1675167471.00
64.000000
-0.00
-0.00
-0.00
-0.00
-0.00
-0.00
-0.00
-0.00
-0.00
-0.00
0.00
0.01
0.01
-0.00
-0.03
-0.05
-0.05
0.00
0.13
0.36
0.66
1.01
1.37
1.72
2.06
2.40
2.79
3.24
3.80
4.42
5.06
5.66
6.20
6.68
7.15
7.68
8.31
9.14
10.09
11.04
11.88
12.56
13.14
13.76
14.65
15.96
17.91
20.32
22.90
25.38
27.58
29.57
31.68
34.32
37.81
42.54
48.15
54.10
59.83
64.97
69.58
74.14
79.34
85.71
93.76
103.00
112.62
121.73
129.77
136.75
143.30
150.75
157.77
166.64
177.95
191.79
206.97
220.57
228.25
225.36
208.53
176.87
132.76
80.05
23.07
-34.94
-92.44
-149.16
-205.23
-260.37
-313.74
-363.87
-409.83
-450.91
-486.50
-515.74
-537.23
-549.22
-549.96
-538.37
-514.21
-478.67
-433.88
-382.45
-327.02
-269.84
-212.63
-156.66
-102.95
-52.37
-5.90
35.58
71.43
101.35
125.50
144.38
158.69
169.15
176.37
180.75
182.57
182.07
179.51
175.23
169.65
163.18
156.15
148.81
141.30
133.69
126.02
118.33
110.69
103.16
95.80
88.68
81.83
75.25
68.95
62.95
57.25
51.86
46.78
42.03
37.59
33.45
29.61
26.07
22.81
19.83
17.11
14.67
12.48
10.54
8.83
7.35
6.07
4.97
4.05
3.27
2.62
2.09
1.65
1.30
1.02
0.80
0.63
0.50
0.41
0.35
0.31
0.29
0.29
0.29
0.31
0.34
0.38
0.42
0.46
0.50
0.55
0.59
0.65
0.70
0.76
0.81
0.88
0.95
1.05
1.17
1.29
1.42
1.52
1.58
1.61
1.62
1.65
1.77
1.99
2.30
2.67
3.04
3.34
3.55
3.71
3.91
4.23
4.74
5.41
6.17
6.89
7.46
7.85
8.14
8.49
9.06
9.96
11.17
12.49
13.63
14.37
14.60
14.53
14.50
14.91
15.92
17.36
18.62
18.90
17.49
14.14
9.16
3.39
-2.15
-6.83
-10.55
-13.99
-18.16
-23.91
-31.39
-39.79
-47.62
-53.29
-55.78
-55.19
-52.77
-50.39
-49.88
-52.43
-58.22
-66.20
-74.11
-79.03
-77.90
-68.54
-50.59
-26.17
0.33
23.36
38.13
42.59
38.42
30.45
24.56
25.08
32.95
45.50
58.15
66.73
69.33
66.71
61.24
55.16
49.59
44.35
38.88
33.25
28.37
25.44
24.95
26.14
27.00
25.32
19.54
9.12
-5.45
-22.94
-41.65
-59.69
-75.09
-86.22
-92.01
-92.24
-87.47
-78.58
-66.29
-51.06
-33.31
-13.47
6.14
22.36
32.14
33.69
27.29
15.35
1.67
-9.93
-16.79
-18.25
-15.16
-9.19
-1.77
6.60
16.43
28.54
43.17
59.37
74.93
87.37
94.82
96.72
93.78
87.51
79.60
71.41
63.69
56.66
50.13
43.60
36.32
27.63
17.24
5.47
-6.84
-18.63
-29.01
-37.56
-44.29
-49.53
-53.72
-57.29
-60.78
-64.77
-69.74
-75.89
-82.90
-89.93
-95.95
-100.18
-102.39
-103.01
-102.76
-102.24
-101.47
-99.74
-95.86
-88.65
-77.41
-62.36
-44.63
-26.05
-8.63
6.06
17.31
25.30
30.81
34.71
37.58
39.57
40.62
40.81
40.42
39.96
39.82
40.12
40.68
41.27
41.86
42.63
43.86
45.63
47.56
48.90
48.83
46.83
42.95
37.83
32.46
27.79
24.37
22.02
20.04
17.39
13.28
7.44
0.32
-7.26
-14.41
-20.52
-25.30
-28.59
-30.04
-29.07
-25.04
-17.64
-7.24
5.07
17.68
29.01
37.95
44.12
47.79
49.59
50.20
50.11
49.54
48.57
47.26
45.71
43.93
41.87
39.28
35.83
31.26
25.55
18.95
11.93
5.02
-1.32
-6.81
-11.37
-15.03
-17.94
-20.34
-22.46
-24.56
-26.79
-29.21
-31.81
-34.52
-37.31
-40.23
-43.39
-46.90
-50.70
-54.48
-57.59
-59.16
-58.26
-54.18
-46.62
-35.86
-22.61
-7.88
7.22
21.75
34.99
46.48
56.00
63.52
69.14
73.14
75.94
78.13
80.24
82.66
85.40
88.12
90.25
91.21
90.72
88.79
85.63
81.37
75.90
68.83
59.69
48.21
34.59
19.48
3.87
-11.15
-24.62
-35.95
-44.96
-51.96
-57.47
-62.16
-66.54
-70.93
-75.50
-80.29
-85.16
-89.60
-92.70
-93.16
-89.79
-81.92
-69.94
-55.25
-39.77
-25.36
-13.21
-3.71
3.40
8.57
12.32
15.17
17.83
21.14
25.94
32.68
41.08
50.17
58.57
65.06
69.07
70.83
71.24
71.42
72.17
73.69
75.49
76.59
75.92
72.76
66.87
58.57
48.49
37.24
25.21
12.45
-1.12
-15.40
-29.99
-44.18
-57.20
-68.62
-78.52
-87.37
-95.59
-103.13
-109.17
-112.47
-111.92
-107.20
-99.01
-88.89
-78.46
-68.92
-60.79
-54.12
-48.99
-45.77
-45.01
-46.98
-51.31
-56.84
-61.98
-65.28
-65.93
-63.83
-59.55
-53.96
-48.07
-42.86
-39.15
-37.53
-38.18
-40.81
-44.82
-49.53
-54.44
-59.31
-64.11
-68.77
-73.04
-76.62
-79.28
-81.18
-82.85
-85.08
-88.64
-93.99
-101.14
-109.64
-118.62
-126.83
-132.88
-135.38
-133.36
-126.54
-115.47
-101.47
-86.15
-71.01
-56.95
-44.19
-32.21
-19.92
-6.03
10.63
30.69
53.83
78.68
103.07
124.76
142.20
155.19
164.95
173.77
184.03
197.36
213.97
232.46
250.03
263.19
268.55
263.78
248.42
224.50
196.36
169.87
150.90
143.57
149.02
165.24
187.82
211.44
231.10
242.83
243.99
233.23
210.68
178.09
138.73
96.75
55.99
19.03
-13.16
-40.75
-64.11
-83.18
-97.62
-107.43
-113.73
-118.86
-125.52
-135.54
-148.60
-161.89
-170.73
-170.02
-156.04
-127.84
-87.84
-41.27
5.34
46.09
77.44
99.03
113.31
124.08
134.50
145.59
155.74
161.54
159.21
146.20
121.96
87.85
46.60
1.48
-44.15
-86.97
-124.11
-153.49
-174.36
-187.65
-195.68
-201.15
-205.80
-209.51
-210.22
-204.92
-191.06
-167.69
-135.69
-97.06
-53.84
-7.42
41.36
91.67
142.14
191.04
236.99
279.61
319.45
356.95
391.20
419.31
437.23
441.56
431.38
409.00
378.96
346.25
314.38
284.49
255.60
225.69
192.72
155.21
112.51
65.07
14.79
-34.82
-79.05
-113.28
-134.51
-142.74
-141.13
-134.87
-129.17
-127.36
-129.74
-133.72
-135.15
-129.93
-115.60
-92.30
-62.80
-31.79
-4.62
14.24
22.36
19.92
9.25
-6.21
-23.18
-39.39
-54.02
-67.39
-80.46
-94.15
-108.98
-124.85
-141.09
-156.61
-170.04
-179.91
-184.82
-183.77
-176.49
-163.70
-147.23
-129.68
-113.91
-102.39
-96.79
-97.68
-104.57
-116.18
-130.82
-146.65
-161.98
-175.20
-184.78
-189.25
-187.50
-179.44
-166.62
-152.34
-140.89
-136.05
-139.35
-149.28
-161.76
-171.87
-176.09
-173.77
-167.28
-160.75
-158.30
-162.57
-173.72
-189.72
-206.69
-219.94
-225.23
-219.68
-202.38
-174.51
-138.91
-99.48
-60.39
-24.95
5.50
32.22
58.48
87.67
120.90
155.45
185.42
204.31
208.47
199.09
181.63
162.93
147.74
136.92
128.22
118.80
107.49
95.38
84.53
76.10
69.58
62.94
54.31
43.28
31.17
20.37
13.33
11.36
14.30
20.66
28.15
34.28
36.96
34.86
27.50
15.31
-0.68
-19.04
-38.27
-56.92
-73.63
-87.16
-96.53
-101.29
-101.70
-98.82
-94.16
-89.19
-84.88
-81.56
-79.17
-77.64
-77.24
-78.42
-81.50
-86.19
-91.58
-96.31
-99.12
-99.01
-95.44
-88.10
-76.77
-61.50
-42.77
-21.82
-0.47
19.35
36.30
50.14
61.71
72.50
83.78
95.98
108.40
119.48
127.48
131.25
130.80
127.37
122.94
119.48
118.24
119.32
121.83
124.42
126.03
126.29
125.61
124.79
124.53
124.95
125.34
124.25
119.99
111.25
97.83
80.95
63.09
47.38
36.81
33.81
39.86
55.13
77.91
104.50
129.59
147.78
155.46
152.36
141.78
129.24
120.21
117.98
122.94
133.03
144.87
154.61
158.31
152.25
133.79
102.69
61.98
17.62
-23.59
-56.78
-80.97
-99.25
-116.81
-138.14
-164.74
-194.68
-223.98
-248.83
-267.30
-279.65
-287.33
-291.51
-292.23
-288.71
-280.48
-268.63
-256.09
-246.52
-242.40
-243.35
-245.66
-243.60
-231.66
-206.61
-168.17
-118.31
-60.23
2.34
65.03
122.36
167.91
195.74
202.57
189.38
161.43
125.92
88.93
53.24
18.57
-16.04
-49.26
-76.02
-88.98
-82.11
-54.41
-11.46
36.72
79.85
111.54
131.01
141.83
148.64
153.95
157.04
154.67
143.45
121.50
88.95
47.00
-3.01
-59.59
-120.25
-180.49
-234.23
-274.50
-295.63
-295.07
-274.39
-238.55
-193.75
-145.34
-96.35
-48.67
-2.33
43.80
91.31
140.84
191.34
240.17
282.95
315.03
330.32
325.96
304.14
271.32
234.85
199.75
167.98
137.99
107.47
70.93
25.75
-26.65
-81.78
-135.75
-187.29
-235.94
-282.29
-325.33
-368.27
-413.23
-459.81
-505.23
-546.60
-582.05
-608.94
-625.94
-598.52
-510.77
-374.55
-223.71
-89.88
12.47
78.24
121.63
152.83
178.21
196.50
207.32
212.99
219.39
232.39
254.46
284.90
317.74
345.84
358.98
351.17
323.79
285.09
245.30
211.73
187.65
170.87
157.86
143.39
124.92
103.34
81.61
61.96
44.48
28.54
13.31
-0.07
-9.98
-14.02
-9.85
3.96
26.92
56.57
89.51
121.85
150.72
174.30
192.49
206.43
217.37
225.19
227.67
221.46
203.67
174.11
136.17
96.00
60.16
33.17
15.85
5.28
-3.66
-16.22
-36.19
-65.24
-103.18
-148.13
-196.49
-242.63
-279.21
-298.45
-294.41
-265.50
-215.91
-155.05
-95.05
-47.16
-18.40
-10.04
-18.07
-35.13
-53.04
-64.95
-66.49
-56.13
-34.92
-6.03
26.20
57.24
83.32
102.17
113.33
117.79
117.44
114.35
110.28
106.42
103.40
101.44
100.49
100.37
100.75
101.07
100.48
97.87
92.19
82.87
70.38
56.32
43.04
32.70
26.14
22.37
18.81
12.44
1.16
-15.30
-35.33
-56.23
-75.40
-91.00
-102.12
-108.34
-109.43
-105.54
-97.76
-88.40
-80.45
-76.01
-74.73
-73.24
-66.48
-50.52
-25.25
4.97
32.95
52.15
59.62
57.03
49.25
41.44
36.72
35.37
35.77
36.07
35.50
34.49
34.13
35.41
38.59
43.05
47.30
49.37
47.39
40.38
28.72
14.00
-1.62
-16.34
-29.51
-41.61
-53.46
-65.28
-75.63
-82.00
-81.93
-74.24
-59.66
-40.66
-20.40
-1.32
15.67
31.56
47.32
62.61
75.51
83.67
85.55
81.07
71.33
57.56
41.13
22.16
0.35
-23.23
-44.93
-59.13
-60.17
-44.69
-12.85
32.69
86.19
140.05
186.78
220.95
240.03
244.74
238.35
218.34
187.30
151.93
119.80
95.21
78.44
67.62
61.20
57.21
54.17
51.72
48.80
43.62
34.29
22.10
8.84
-3.36
-13.08
-19.95
-24.06
-26.90
-30.81
-38.02
-49.40
-64.63
-82.55
-102.03
-122.64
-144.45
-168.57
-196.81
-231.14
-273.23
-324.17
-383.48
-448.12
-511.83
-565.54
-600.01
-608.92
-591.15
-551.06
-496.65
-436.31
-376.10
-318.62
-263.87
-211.21
-160.74
-113.45
-70.18
-30.63
6.97
44.93
84.78
126.30
167.54
205.47
237.26
261.11
276.54
284.24
285.61
282.23
275.46
266.10
254.18
239.03
219.71
195.70
167.57
137.16
107.07
79.70
56.42
37.26
21.62
9.01
-0.39
-5.88
-6.98
-4.15
1.21
7.35
13.02
17.84
22.11
26.14
30.00
33.60
37.36
42.64
51.69
66.94
90.04
121.23
159.28
202.03
247.10
292.54
336.88
378.93
417.21
449.70
473.88
487.26
488.32
477.34
456.64
430.07
401.79
374.97
351.03
329.72
309.85
290.22
270.19
249.72
229.09
208.47
187.80
166.80
145.12
122.50
98.86
74.40
49.57
24.99
1.41
-20.51
-40.41
-58.47
-75.37
-92.12
-109.69
-128.55
-148.39
-168.19
-186.61
-202.50
-215.33
-225.46
-233.84
-241.88
-251.10
-262.93
-278.17
-296.10
-313.79
-326.20
-327.75
-314.89
-288.48
-254.51
-222.28
-200.76
-194.92
-204.06
-222.83
-244.12
-262.17
-274.27
-280.64
-283.38
-285.39
-289.72
-299.21
-315.85
-339.61
-367.55
-394.08
-412.35
-416.67
-404.54
-377.23
-339.00
-295.10
-250.04
-206.50
-165.27
-125.93
-87.69
-50.00
-12.66
24.25
60.58
96.11
130.44
162.82
192.36
218.33
240.35
258.35
272.24
281.44
284.78
280.89
269.21
250.94
229.33
208.80
193.33
184.68
181.69
180.81
177.78
169.46
155.05
136.10
115.37
95.43
77.51
61.16
44.82
26.89
6.81
-14.38
-34.26
-49.90
-59.05
-61.07
-57.22
-49.99
-42.08
-35.18
-29.52
-24.15
-17.86
-10.18
-1.85
5.43
9.98
10.93
8.76
4.97
1.26
-1.23
-2.43
-3.09
-4.25
-6.46
-9.48
-12.43
-14.35
-14.80
-14.13
-13.34
-13.62
-15.77
-19.84
-25.14
-30.56
-34.99
-37.75
-38.70
-38.16
-36.66
-34.71
-32.63
-30.53
-28.37
-26.13
-23.85
-21.71
-20.00
-18.97
-18.72
-19.14
-19.92
-20.66
-21.03
-20.86
-20.22
-19.37
-18.59
-18.04
-17.72
-17.48
-17.10
-16.47
-15.56
-14.46
-13.27
-12.14
-11.15
-10.39
-9.96
-9.95
-10.40
-11.21
-12.16
-12.96
-13.36
-13.34
-13.06
-12.82
-12.87
-13.22
-13.65
-13.77
-13.20
-11.79
-9.60
-6.88
-3.95
-1.08
1.47
3.51
4.81
5.24
4.75
3.49
1.73
-0.16
-1.80
-2.94
-3.52
-3.63
-3.50
-3.42
-3.60
-4.11
-4.89
-5.74
-6.43
-6.77
-6.69
-6.28
-5.80
-5.52
-5.71
-6.45
-7.68
-9.17
-10.58
-11.65
-12.25
-12.42
-12.35
-12.29
-12.48
-13.00
-13.75
-14.48
-14.84
-14.45
-13.05
-10.49
-6.86
-2.41
2.43
7.13
11.21
14.37
16.56
17.95
18.77
19.19
19.20
18.69
17.51
15.70
13.47
11.13
8.93
6.93
5.01
3.06
1.03
-0.91
-2.54
-3.70
-4.40
-4.90
-5.48
-6.30
-7.36
-8.50
-9.54
-10.42
-11.17
-11.92
-12.76
-13.71
-14.82
-16.12
-17.69
-19.56
-21.71
-23.95
-25.96
-27.40
-27.93
-27.37
-25.62
-22.74
-18.87
-14.22
-9.07
-3.74
1.44
6.20
10.29
13.57
15.93
17.33
17.72
17.09
15.55
13.31
10.76
8.33
6.36
4.96
3.96
3.00
1.79
0.26
-1.35
-2.66
-3.31
-3.24
-2.66
-1.93
-1.39
-1.18
-1.27
-1.53
-1.88
-2.34
-2.97
-3.83
-4.93
-6.20
-7.61
-9.17
-10.95
-12.97
-15.09
-16.96
-18.10
-17.97
-16.22
-12.81
-8.07
-2.60
2.91
7.84
11.86
14.88
17.03
18.44
19.25
19.54
19.40
19.04
18.76
18.84
19.42
20.39
21.35
21.90
21.75
20.81
19.32
17.50
15.54
13.42
11.03
8.31
5.35
2.42
-0.21
-2.38
-4.18
-5.81
-7.50
-9.37
-11.34
-13.27
-15.06
-16.69
-18.23
-19.76
-21.43
-23.48
-26.19
-29.82
-34.33
-39.18
-43.37
-45.69
-45.09
-41.15
-34.24
-25.30
-15.55
-5.99
2.76
10.46
17.06
22.51
26.67
29.39
30.66
30.66
29.77
28.44
27.02
25.68
24.38
22.92
21.12
18.93
16.41
13.86
11.56
9.79
8.61
7.92
7.55
7.26
6.90
6.41
5.79
5.10
4.35
3.51
2.52
1.40
0.23
-0.80
-1.54
-1.93
-2.09
-2.28
-2.83
-3.91
-5.48
-7.23
-8.69
-9.35
-8.74
-6.63
-3.01
1.87
7.53
13.34
18.61
22.81
25.63
27.07
27.36
26.81
25.69
24.16
22.28
20.13
17.85
15.67
13.82
12.47
11.61
11.17
10.91
10.65
10.29
9.76
9.08
8.21
7.17
5.99
4.79
3.76
3.03
2.65
2.48
2.33
2.00
1.40
0.59
-0.33
-1.22
-1.98
-2.60
-3.05
-3.32
-3.39
-3.35
-3.33
-3.45
-3.72
-3.96
-3.77
-2.71
-0.35
3.51
8.76
15.06
21.80
28.35
34.11
38.66
41.70
43.13
42.97
41.27
38.17
33.89
28.70
22.99
17.20
11.77
7.12
3.53
1.07
-0.42
-1.29
-1.99
-2.91
-4.28
-6.10
-8.23
-10.45
-12.55
-14.35
-15.70
-16.49
-16.61
-16.16
-15.31
-14.37
-13.63
-13.23
-13.19
-13.32
-13.43
-13.32
-12.91
-12.25
-11.51
-10.95
-10.85
-11.39
-12.56
-14.06
-15.44
-16.13
-15.77
-14.18
-11.49
-8.03
-4.26
-0.61
2.52
4.83
6.19
6.66
6.43
5.86
5.28
4.94
4.87
4.99
5.12
5.09
4.92
4.70
4.57
4.63
4.75
4.70
4.21
3.14
1.56
-0.26
-1.98
-3.38
-4.49
-5.52
-6.73
-8.19
-9.73
-10.97
-11.54
-11.31
-10.46
-9.35
-8.37
-7.76
-7.51
-7.48
-7.54
-7.62
-7.75
-7.97
-8.30
-8.64
-8.83
-8.68
-8.06
-6.92
-5.38
-3.64
-1.99
-0.69
0.14
0.47
0.45
0.23
-0.09
-0.43
-0.82
-1.30
-1.88
-2.56
-3.28
-3.94
-4.43
-4.69
-4.75
-4.78
-4.99
-5.59
-6.55
-7.66
-8.57
-8.94
-8.61
-7.64
-6.27
-4.75
-3.26
-1.91
-0.70
0.34
1.20
1.84
2.25
2.46
2.52
2.44
2.24
1.95
1.59
1.18
0.69
0.13
-0.51
-1.19
-1.85
-2.39
-2.75
-2.97
-3.06
-3.11
-3.17
-3.30
-3.54
-3.93
-4.45
-5.03
-5.55
-5.99
-6.33
-6.67
-7.10
-7.65
-8.22
-8.68
-8.91
-8.85
-8.49
-7.81
-6.68
-4.93
-2.45
0.71
4.28
7.84
10.94
13.29
14.83
15.74
16.27
16.63
16.89
16.99
16.82
16.36
15.65
14.88
14.25
13.91
13.96
14.45
15.38
16.68
18.19
19.60
20.57
20.81
20.18
18.77
16.79
14.48
12.03
9.54
7.01
4.54
2.22
0.29
-1.05
-1.61
-1.27
-0.05
1.92
4.39
7.03
9.55
11.69
13.33
14.42
15.00
15.19
15.13
15.04
15.07
15.35
15.85
16.40
16.83
17.03
17.10
17.28
17.87
19.07
20.80
22.76
24.54
25.69
25.97
25.33
24.05
22.68
21.83
22.04
23.46
25.91
28.82
31.46
33.21
33.65
32.65
30.39
27.33
24.01
20.96
18.31
15.74
12.40
7.27
-0.38
-10.64
-22.78
-35.47
-47.23
-56.83
-63.59
-67.34
-68.40
-67.26
-64.59
-60.98
-57.02
-53.15
-49.72
-46.92
-44.84
-43.40
-42.40
-41.50
-40.43
-39.00
-37.27
-35.52
-34.06
-33.22
-33.11
-33.72
-34.94
-36.65
-38.79
-41.36
-44.37
-47.70
-51.01
-53.82
-55.57
-55.86
-54.66
-52.38
-49.83
-47.90
-47.17
-47.73
-49.24
-51.15
-53.10
-55.21
-58.00
-62.12
-68.03
-75.70
-84.73
-94.61
-104.96
-115.52
-125.94
-135.59
-143.67
-149.67
-153.88
-157.39
-161.51
-166.65
-171.53
-173.17
-167.94
-153.34
-129.45
-99.31
-67.86
-40.17
-19.69
-7.55
-3.05
-4.78
-11.68
-23.29
-39.02
-57.33
-75.13
-88.21
-92.44
-85.35
-66.98
-39.63
-6.65
29.26
67.13
107.58
151.61
198.90
246.94
291.38
327.55
352.41
365.65
369.49
367.48
362.84
357.42
351.60
345.05
337.50
329.08
320.04
310.24
298.77
284.12
264.71
239.60
208.97
174.19
137.63
102.08
69.95
42.74
20.72
3.11
-11.40
-24.02
-35.47
-45.87
-55.04
-62.86
-69.36
-74.82
-79.54
-83.71
-87.50
-90.92
-93.96
-96.35
-97.57
-96.75
-92.90
-85.22
-73.52
-58.39
-41.20
-23.74
-7.90
4.87
13.78
18.77
20.44
19.72
17.63
15.04
12.56
10.51
8.99
7.84
6.72
5.19
2.91
-0.22
-3.96
-7.71
-10.76
-12.49
-12.60
-11.30
-9.19
-7.20
-6.32
-7.20
-10.04
-14.47
-19.78
-25.20
-30.20
-34.61
-38.55
-42.32
-46.25
-50.75
-56.30
-63.49
-72.74
-84.05
-96.65
-108.89
-118.52
-123.24
-121.38
-112.48
-97.44
-78.25
-57.51
-37.67
-20.57
-7.08
2.75
9.46
13.81
16.56
18.29
19.45
20.37
21.26
22.19
23.11
23.92
24.40
24.39
23.80
22.66
21.12
19.38
17.66
16.09
14.75
13.59
12.56
11.55
10.47
9.28
7.95
6.51
5.06
3.67
2.45
1.41
0.57
-0.14
-0.81
-1.55
-2.49
-3.74
-5.29
-6.98
-8.42
-9.08
-8.43
-6.09
-2.02
3.40
9.53
15.55
20.76
24.72
27.23
28.29
28.01
26.52
24.13
21.20
18.23
15.63
13.67
12.33
11.30
10.25
8.89
7.12
5.07
2.94
1.00
-0.62
-1.77
-2.51
-2.93
-3.25
-3.70
-4.45
-5.50
-6.67
-7.70
-8.38
-8.69
-8.80
-9.04
-9.73
-11.12
-13.27
-16.04
-19.09
-21.91
-23.88
-24.31
-22.69
-18.80
-12.93
-5.81
1.58
8.19
13.28
16.53
18.07
18.29
17.64
16.45
14.83
12.82
10.50
8.07
5.84
4.13
3.10
2.70
2.72
2.88
2.99
2.95
2.83
2.73
2.64
2.48
2.07
1.22
-0.12
-1.91
-3.99
-6.20
-8.39
-10.51
-12.57
-14.58
-16.59
-18.60
-20.60
-22.59
-24.48
-26.04
-26.90
-26.58
-24.63
-20.82
-15.28
-8.53
-1.35
5.46
11.22
15.59
18.47
20.00
20.40
19.86
18.55
16.58
14.13
11.43
8.83
6.66
5.12
4.19
3.62
3.04
2.20
1.07
-0.16
-1.19
-1.84
-2.06
-2.04
-2.04
-2.28
-2.87
-3.79
-4.97
-6.33
-7.79
-9.28
-10.73
-12.06
-13.19
-14.11
-14.88
-15.63
-16.52
-17.63
-18.88
-19.90
-20.16
-19.03
-16.04
-11.13
-4.68
2.54
9.57
15.57
19.96
22.52
23.39
22.90
21.44
19.43
17.20
15.06
13.18
11.65
10.49
9.66
9.07
8.67
8.40
8.18
7.94
7.61
7.14
6.46
5.57
4.44
3.13
1.66
0.04
-1.69
-3.48
-5.22
-6.84
-8.24
-9.47
-10.62
-11.82
-13.16
-14.62
-16.09
-17.43
-18.56
-19.50
-20.40
-21.36
-22.33
-23.02
-22.93
-21.53
-18.47
-13.71
-7.65
-0.93
5.67
11.52
16.23
19.72
22.09
23.47
24.01
23.76
22.83
21.38
19.66
17.92
16.37
15.07
13.89
12.63
11.09
9.24
7.16
5.13
3.42
2.19
1.40
0.85
0.26
-0.62
-1.87
-3.42
-5.09
-6.67
-7.99
-8.99
-9.68
-10.09
-10.28
-10.26
-10.10
-9.92
-9.86
-10.09
-10.74
-11.77
-13.08
-14.53
-16.00
-17.46
-18.86
-20.06
-20.73
-20.41
-18.65
-15.18
-10.16
-4.09
2.23
8.05
12.75
16.01
17.76
18.11
17.25
15.44
13.05
10.51
8.24
6.54
5.50
5.01
4.81
4.65
4.37
3.95
3.53
3.26
3.31
3.73
4.42
5.16
5.72
5.88
5.57
4.90
4.05
3.24
2.60
2.15
1.79
1.36
0.74
-0.15
-1.30
-2.66
-4.13
-5.64
-7.14
-8.62
-10.12
-11.71
-13.44
-15.24
-16.98
-18.41
-19.11
-18.63
-16.59
-12.84
-7.62
-1.57
4.45
9.59
13.33
15.56
16.52
16.61
16.18
15.47
14.59
13.63
12.75
12.04
11.61
11.39
11.21
10.87
10.24
9.30
8.16
6.99
5.98
5.17
4.49
3.81
2.95
1.80
0.37
-1.21
-2.80
-4.25
-5.50
-6.52
-7.35
-8.04
-8.62
-9.11
-9.49
-9.77
-9.98
-10.15
-10.40
-10.85
-11.60
-12.68
-14.00
-15.33
-16.36
-16.78
-16.35
-14.94
-12.57
-9.36
-5.55
-1.48
2.48
5.94
8.61
10.36
11.19
11.22
10.67
9.76
8.72
7.76
7.04
6.66
6.57
6.70
6.82
6.76
6.37
5.61
4.54
3.31
2.13
1.18
0.61
0.48
0.75
1.30
1.94
2.41
2.50
2.10
1.23
0.03
-1.25
-2.38
-3.29
-4.10
-5.04
-6.36
-8.19
-10.46
-12.89
-15.19
-16.99
-18.02
-18.04
-16.88
-14.47
-10.94
-6.57
-1.85
2.72
6.73
9.93
12.22
13.66
14.30
14.25
13.58
12.44
11.05
9.61
8.35
7.40
6.82
6.60
6.67
6.91
7.23
7.45
7.47
7.18
6.51
5.50
4.20
2.70
1.06
-0.63
-2.34
-3.99
-5.50
-6.79
-7.78
-8.45
-8.87
-9.16
-9.49
-9.96
-10.62
-11.40
-12.24
-13.05
-13.77
-14.29
-14.37
-13.71
-11.93
-8.87
-4.63
0.32
5.23
9.40
12.27
13.69
13.84
13.07
11.77
10.23
8.65
7.22
6.08
5.37
5.14
5.31
5.68
6.02
6.14
5.96
5.54
5.02
4.54
4.17
3.93
3.71
3.39
2.82
1.87
0.54
-1.06
-2.73
-4.24
-5.48
-6.50
-7.51
-8.80
-10.55
-12.75
-15.20
-17.55
-19.36
-20.19
-19.70
-17.64
-14.04
-9.19
-3.62
1.94
6.88
10.79
13.51
15.14
15.89
15.93
15.36
14.22
12.57
10.55
8.37
6.35
4.71
3.66
3.22
3.31
3.67
4.03
4.08
3.66
2.73
1.44
0.02
-1.29
-2.37
-3.20
-3.93
-4.70
-5.59
-6.61
-7.66
-8.60
-9.43
-10.22
-11.11
-12.22
-13.56
-15.00
-16.27
-17.06
-17.05
-15.94
-13.60
-10.00
-5.38
-0.17
5.05
9.81
13.73
16.68
18.69
19.95
20.57
20.68
20.34
19.62
18.62
17.44
16.23
15.07
14.02
13.05
12.09
11.00
9.68
8.07
6.20
4.15
2.04
0.00
-1.86
-3.47
-4.82
-5.99
-7.12
-8.40
-9.91
-11.62
-13.31
-14.76
-15.77
-16.40
-16.87
-17.59
-18.89
-20.91
-23.52
-26.26
-28.47
-29.39
-28.37
-25.04
-19.44
-12.09
-3.90
4.08
10.95
16.20
19.74
21.84
22.88
23.21
23.04
22.51
21.74
20.82
19.78
18.61
17.22
15.59
13.80
12.08
10.72
9.89
9.61
9.64
9.66
9.36
8.62
7.43
5.94
4.38
2.92
1.71
0.79
0.09
-0.54
-1.36
-2.60
-4.35
-6.51
-8.77
-10.76
-12.22
-13.15
-13.88
-14.87
-16.57
-19.14
-22.42
-25.90
-28.79
-30.30
-29.74
-26.80
-21.56
-14.59
-6.77
0.90
7.56
12.65
16.00
17.76
18.25
17.86
16.93
15.84
14.84
14.18
13.93
14.03
14.25
14.37
14.21
13.76
13.11
12.46
11.99
11.71
11.53
11.18
10.40
9.03
7.08
4.75
2.37
0.29
-1.27
-2.23
-2.70
-2.94
-3.22
-3.74
-4.59
-5.73
-6.98
-8.19
-9.28
-10.28
-11.33
-12.62
-14.30
-16.45
-19.06
-22.01
-25.06
-27.76
-29.49
-29.56
-27.39
-22.86
-16.34
-8.73
-1.17
5.36
10.32
13.69
15.79
17.08
17.85
18.18
18.06
17.51
16.68
15.82
15.19
14.88
14.79
14.66
14.31
13.66
12.88
12.21
11.90
12.00
12.37
12.71
12.73
12.25
11.28
9.94
8.41
6.80
5.14
3.41
1.50
-0.62
-3.00
-5.61
-8.41
-11.25
-13.93
-16.21
-17.94
-19.11
-19.93
-20.73
-21.89
-23.57
-25.69
-27.87
-29.49
-29.82
-28.22
-24.31
-18.11
-10.18
-1.48
6.85
13.73
18.56
21.23
22.13
21.87
21.01
19.85
18.44
16.66
14.43
11.88
9.31
7.16
5.75
5.12
5.00
4.87
4.19
2.69
0.54
-1.87
-4.03
-5.71
-7.04
-8.55
-10.90
-14.68
-20.06
-26.80
-34.32
-41.90
-49.10
-55.90
-62.88
-71.22
-82.55
-98.72
-121.51
-151.99
-189.94
-233.18
-277.40
-316.71
-345.06
-357.92
-353.68
-334.00
-303.13
-266.18
-227.62
-190.26
-155.24
-122.56
-91.79
-62.44
-33.81
-4.77
25.99
59.44
95.11
130.78
162.71
187.03
201.20
205.19
201.51
194.06
186.60
181.40
178.81
177.79
176.91
175.31
173.10
170.98
169.67
169.31
169.24
168.43
165.92
161.32
155.03
147.94
141.02
134.92
129.88
125.80
122.38
119.18
115.46
110.32
102.94
93.19
82.05
71.75
65.19
64.92
72.07
85.75
103.19
120.54
134.07
141.22
141.06
134.26
122.63
108.27
92.95
77.66
62.58
47.43
31.99
16.49
1.54
-12.18
-24.30
-35.03
-44.87
-54.28
-63.20
-70.98
-76.83
-80.35
-81.92
-82.61
-83.62
-85.57
-88.25
-90.81
-92.37
-92.51
-91.56
-90.51
-90.50
-92.52
-97.01
-103.97
-113.01
-123.58
-135.00
-146.58
-157.42
-166.29
-171.74
-172.19
-166.40
-153.82
-134.76
-110.40
-82.38
-52.40
-21.86
8.27
37.62
66.34
95.02
124.34
154.85
186.41
218.10
248.40
275.72
299.02
318.07
333.46
346.45
358.49
370.78
383.66
396.03
405.09
406.74
396.61
371.48
330.30
274.46
207.30
133.22
57.07
-16.29
-82.32
-137.26
-178.86
-206.93
-223.24
-230.62
-231.47
-226.83
-216.41
-199.19
-174.73
-143.83
-108.66
-72.23
-37.68
-7.68
15.87
31.94
40.45
42.22
38.89
32.60
25.43
18.67
12.40
5.53
-3.47
-15.41
-29.62
-43.80
-54.79
-60.02
-58.63
-51.77
-42.24
-33.18
-27.37
-27.07
-34.37
-51.44
-80.06
-120.33
-169.59
-222.55
-272.46
-313.65
-343.65
-363.90
-378.73
-393.11
-410.74
-433.18
-459.81
-488.39
-515.47
-536.62
-546.92
-542.19
-520.55
-483.78
-437.21
-388.05
-342.76
-305.16
-275.66
-252.25
-232.36
-214.22
-197.36
-182.06
-168.51
-156.34
-144.80
-133.26
-121.55
-110.20
-99.99
-91.39
-84.23
-77.65
-70.55
-62.09
-52.09
-41.09
-30.10
-20.04
-11.34
-3.76
3.46
11.16
19.89
29.63
39.83
49.70
58.66
66.59
73.88
81.18
89.05
97.65
106.60
115.27
123.09
129.95
136.35
143.27
151.70
162.29
174.93
188.98
203.48
217.64
231.19
244.44
258.20
273.62
291.96
314.33
340.98
370.64
400.04
424.32
438.39
438.71
424.70
399.02
366.32
331.26
296.82
263.70
231.00
197.52
162.87
127.62
92.77
58.88
25.64
-7.98
-43.18
-80.77
-120.96
-163.24
-206.55
-249.34
-289.46
-324.29
-351.03
-367.31
-371.95
-365.35
-349.51
-327.38
-302.08
-276.07
-250.85
-227.02
-204.67
-183.73
-164.06
-145.42
-127.34
-109.12
-90.04
-69.64
-47.98
-25.64
-3.48
17.65
37.28
55.49
72.84
90.12
108.14
127.47
148.40
170.91
194.52
218.17
240.24
258.75
271.86
278.47
278.67
273.76
265.85
257.16
249.28
242.79
237.17
231.23
223.69
213.78
201.69
188.69
176.72
167.92
163.90
165.34
171.85
182.13
194.13
205.19
212.08
211.27
199.59
175.07
137.72
89.81
35.37
-20.97
-75.12
-124.32
-167.21
-203.27
-232.16
-253.34
-266.25
-270.85
-268.07
-259.84
-248.57
-236.33
-224.20
-212.12
-199.26
-184.80
-168.54
-151.21
-134.28
-119.37
-107.72
-99.75
-95.10
-92.84
-91.97
-91.78
-92.01
-92.88
-94.81
-98.17
-103.06
-109.18
-115.77
-121.62
-125.21
-124.99
-119.74
-108.92
-92.91
-72.86
-50.29
-26.61
-2.67
21.34
45.76
71.10
97.52
124.54
150.85
174.57
193.71
206.75
213.09
213.21
208.39
200.25
190.27
179.57
168.83
158.43
148.52
139.07
129.85
120.50
110.61
99.97
88.58
76.69
64.62
52.60
40.69
28.80
16.76
4.56
-7.67
-19.59
-30.82
-41.10
-50.45
-59.23
-68.15
-78.01
-89.41
-102.32
-115.79
-127.97
-136.37
-138.58
-133.03
-119.46
-99.10
-74.24
-47.54
-21.31
2.94
24.54
43.43
59.82
73.94
85.96
96.04
104.27
110.74
115.42
118.24
119.15
118.35
116.40
114.14
112.53
112.23
113.47
115.95
119.06
122.18
124.87
126.95
128.50
129.76
131.01
132.56
134.60
137.07
139.78
142.60
145.73
149.71
155.19
162.29
170.04
176.34
178.45
174.05
162.07
143.20
119.72
94.96
72.61
56.09
47.95
49.45
60.08
77.42
97.52
115.67
127.65
130.66
123.85
108.27
86.20
60.49
33.89
8.64
-13.70
-32.32
-47.11
-58.49
-67.25
-74.30
-80.41
-85.98
-91.04
-95.36
-98.71
-101.05
-102.68
-104.19
-106.23
-109.34
-113.78
-119.48
-126.13
-133.29
-140.56
-147.75
-154.89
-162.34
-170.66
-180.47
-192.05
-205.09
-218.44
-230.20
-238.16
-240.34
-235.60
-223.83
-205.98
-183.69
-158.90
-133.61
-109.66
-88.71
-72.05
-60.36
-53.48
-50.36
-49.20
-47.95
-44.77
-38.46
-28.59
-15.48
0.16
17.71
37.00
58.58
83.42
112.46
145.99
183.26
222.57
261.67
298.36
330.77
357.53
377.55
390.01
394.43
390.73
379.11
359.64
331.88
295.03
248.77
194.53
136.28
80.17
33.08
0.42
-15.54
-16.15
-5.52
11.19
29.33
45.68
58.56
67.44
72.48
74.23
73.50
71.27
68.55
66.23
64.93
64.85
65.85
67.43
68.92
69.74
69.64
68.80
67.82
67.39
68.00
69.64
71.86
74.02
75.65
76.70
77.51
78.58
80.25
82.51
85.03
87.33
88.90
89.10
87.03
81.50
71.18
55.22
33.80
8.43
-18.15
-42.62
-61.92
-73.94
-77.83
-73.95
-63.59
-48.57
-30.98
-12.86
4.11
18.88
31.17
41.34
50.14
58.23
65.84
72.70
78.27
82.09
84.06
84.49
83.88
82.60
80.80
78.36
75.13
71.07
66.32
61.12
55.76
50.49
45.48
40.78
36.29
31.66
26.37
19.93
12.14
3.19
-6.39
-16.02
-25.38
-34.67
-44.55
-55.91
-69.55
-85.78
-104.44
-124.84
-146.15
-167.72
-189.44
-211.83
-235.99
-263.17
-294.39
-330.00
-369.33
-410.42
-449.90
-483.19
-505.24
-511.78
-500.72
-472.93
-432.07
-383.15
-330.60
-276.90
-222.64
-167.85
-113.79
-63.81
-22.60
5.94
20.77
24.44
21.89
17.85
14.53
10.78
3.08
-12.29
-37.17
-70.75
-110.18
-151.86
-192.41
-228.91
-258.45
-277.86
-284.15
-275.45
-252.17
-217.25
-175.60
-132.57
-92.27
-56.59
-25.15
4.14
34.13
67.46
105.75
148.80
194.16
237.36
272.94
296.25
305.04
300.32
285.73
266.05
245.35
225.95
208.47
192.60
178.10
165.14
154.10
145.01
137.18
129.41
120.59
110.27
98.77
87.01
75.86
65.56
55.55
44.65
31.63
15.83
-2.32
-21.25
-38.57
-51.78
-59.05
-59.81
-54.84
-45.90
-35.03
-23.82
-13.04
-2.58
8.17
19.89
32.89
46.93
61.07
73.79
83.29
88.09
87.80
83.52
77.86
74.03
74.73
81.03
92.11
105.72
119.06
129.68
135.87
136.75
132.23
123.11
111.15
98.83
88.57
81.79
78.09
75.25
70.15
60.07
43.81
22.02
-3.27
-29.51
-54.26
-75.70
-92.88
-106.03
-116.95
-129.21
-147.45
-175.86
-216.08
-265.55
-317.23
-361.34
-388.15
-390.90
-367.54
-320.94
-257.81
-187.13
-118.68
-61.56
-22.72
-5.42
-8.05
-24.20
-44.34
-58.70
-60.47
-47.67
-23.40
5.67
31.59
47.29
48.35
33.89
6.72
-27.17
-60.11
-84.60
-95.20
-89.59
-68.62
-35.10
7.76
57.70
113.53
174.36
238.36
301.89
359.84
406.87
439.20
455.86
458.83
451.94
439.17
423.23
405.12
384.70
361.71
336.60
310.58
284.89
260.04
235.26
208.86
178.99
144.73
106.75
67.16
28.75
-6.01
-36.03
-61.87
-85.46
-109.33
-135.81
-166.33
-201.01
-238.50
-276.00
-309.63
-335.27
-349.63
-351.25
-341.18
-322.83
-301.11
-280.94
-266.00
-257.86
-256.03
-258.62
-263.26
-267.85
-270.88
-271.32
-268.30
-261.03
-248.94
-232.03
-211.27
-188.64
-166.64
-147.65
-133.01
-122.72
-115.37
-108.87
-101.30
-91.72
-80.48
-68.94
-58.72
-50.85
-45.23
-40.65
-35.46
-28.44
-19.47
-9.56
-0.35
6.65
10.73
12.25
12.24
11.89
11.85
12.13
12.20
11.54
10.17
8.66
7.86
8.19
9.32
10.22
9.81
7.62
4.20
0.91
-0.60
0.83
5.66
13.53
23.67
35.07
46.65
57.39
66.47
73.49
78.49
81.94
84.34
85.87
86.23
84.81
81.09
74.94
66.79
57.65
48.84
41.74
37.40
36.23
37.74
40.65
43.41
44.89
44.91
44.35
44.56
46.60
50.67
56.24
62.82
70.57
80.24
92.27
105.64
117.18
122.14
115.66
94.37
57.12
4.89
-59.60
-132.11
-206.45
-274.36
-326.43
-354.44
-354.27
-327.81
-282.65
-229.37
-177.66
-133.30
-97.26
-67.05
-39.20
-11.44
16.44
43.02
66.47
85.46
99.59
109.30
115.62
119.85
123.33
127.24
132.31
138.43
144.54
148.74
148.83
142.98
130.35
111.50
88.49
64.45
42.84
26.48
16.61
12.48
11.65
10.97
8.03
2.16
-5.36
-12.07
-15.53
-14.51
-9.32
-1.55
6.81
14.08
19.30
22.30
23.59
24.19
25.25
27.65
31.52
36.06
39.74
40.75
37.61
29.49
16.32
-1.38
-22.59
-45.99
-69.92
-92.56
-112.28
-128.15
-140.34
-150.13
-159.49
-170.16
-182.87
-196.69
-209.04
-216.34
-215.00
-202.35
-177.22
-139.90
-91.93
-35.70
25.47
87.11
143.57
188.44
215.81
221.85
206.38
173.58
130.99
87.05
48.12
16.31
-10.90
-38.82
-72.69
-114.91
-163.91
-214.81
-261.51
-298.80
-323.53
-334.71
-332.86
-319.25
-295.62
-264.06
-226.88
-186.31
-144.30
-102.75
-63.83
-30.07
-3.86
13.39
22.01
24.25
23.49
23.04
24.87
29.39
35.75
42.71
49.23
54.48
57.52
56.93
51.13
39.10
21.41
0.57
-19.45
-34.37
-41.13
-38.89
-29.48
-16.87
-6.14
-2.09
-7.75
-23.37
-46.11
-70.83
-91.69
-104.01
-105.52
-96.64
-79.63
-57.42
-32.60
-7.10
17.57
40.08
59.47
75.60
89.52
103.02
117.61
133.16
147.12
154.96
151.70
134.16
102.61
61.32
17.55
-20.55
-46.18
-55.52
-47.95
-25.30
9.25
51.98
98.95
145.94
188.61
223.33
248.20
263.86
273.45
281.68
293.09
310.26
332.68
356.70
376.88
388.24
388.40
378.71
363.59
348.34
336.55
328.36
320.54
308.40
288.23
258.92
221.85
179.40
133.34
84.25
32.43
-20.55
-71.03
-113.78
-143.86
-158.71
-159.49
-150.67
-138.36
-128.04
-122.86
-123.11
-126.81
-131.01
-133.08
-131.59
-126.40
-118.32
-108.57
-98.29
-88.35
-79.34
-71.66
-65.48
-60.70
-56.88
-53.34
-49.41
-44.70
-39.21
-33.14
-26.74
-20.05
-12.95
-5.32
2.71
10.78
18.43
25.28
31.16
36.01
39.76
42.21
43.11
42.27
39.71
35.77
31.03
26.24
22.13
19.21
17.58
16.91
16.60
16.03
14.94
13.43
11.72
9.82
7.31
3.46
-2.32
-9.94
-18.51
-26.52
-32.50
-35.65
-36.22
-35.30
-34.33
-34.42
-35.90
-38.30
-40.65
-41.95
-41.64
-39.75
-36.82
-33.63
-30.96
-29.37
-29.02
-29.56
-30.15
-29.90
-28.51
-26.84
-27.25
-33.21
-48.50
-76.05
-116.73
-168.62
-226.86
-284.23
-332.47
-364.10
-373.95
-360.21
-324.47
-271.08
-206.45
-138.54
-76.25
-28.48
-2.38
-1.11
-22.42
-59.17
-101.93
-142.36
-175.81
-201.64
-221.38
-236.29
-245.61
-246.72
-236.64
-213.82
-179.05
-135.34
-86.92
-38.26
6.67
44.88
74.59
95.55
109.05
117.57
123.93
130.47
138.41
148.01
159.15
171.97
187.14
205.49
227.25
251.24
274.65
293.51
304.02
304.08
294.37
278.46
261.51
248.47
242.02
241.50
243.10
241.29
230.63
207.55
171.13
122.98
66.78
7.62
-48.64
-96.26
-131.02
-151.90
-162.26
-169.28
-181.48
-204.99
-240.45
-282.11
-320.03
-344.14
-348.40
-332.72
-302.25
-264.39
-225.57
-189.38
-156.49
-125.85
-96.17
-66.37
-35.18
-0.34
41.41
92.99
154.66
222.16
286.63
336.72
362.62
359.68
330.06
281.48
223.69
164.81
109.19
57.63
9.20
-36.74
-79.64
-118.23
-151.73
-180.88
-208.00
-235.95
-266.62
-299.66
-332.01
-358.85
-375.39
-378.81
-369.43
-350.48
-326.65
-302.23
-279.67
-259.45
-240.84
-223.00
-205.49
-188.15
-170.49
-151.36
-129.21
-102.75
-71.61
-36.47
1.27
40.20
79.52
119.27
160.09
203.14
249.81
301.31
357.83
417.46
475.53
525.21
559.29
572.66
564.14
536.51
494.73
443.39
385.02
320.38
250.40
178.17
109.69
52.21
11.51
-10.58
-16.66
-12.18
-2.60
8.81
21.42
36.17
53.64
72.65
90.42
103.86
111.29
113.42
113.05
113.72
118.08
127.02
139.67
154.25
168.90
181.99
191.94
196.88
194.76
183.91
163.96
136.22
103.54
69.38
36.78
7.69
-17.14
-37.73
-54.42
-67.71
-78.20
-86.71
-94.08
-100.95
-107.50
-113.50
-118.56
-122.49
-125.43
-127.70
-129.47
-130.51
-130.19
-127.75
-122.58
-114.51
-103.73
-90.74
-76.11
-60.47
-44.46
-28.81
-14.24
-1.49
8.70
15.48
17.83
14.84
6.29
-6.60
-20.86
-32.10
-35.78
-28.93
-11.38
13.99
42.17
67.75
86.45
95.93
95.54
85.61
66.54
38.63
2.25
-41.89
-92.66
-148.63
-208.10
-268.93
-328.08
-381.40
-423.94
-450.92
-459.03
-447.36
-417.47
-372.69
-316.90
-253.79
-186.59
-118.71
-54.45
0.82
41.60
64.20
68.68
59.79
45.90
36.10
36.57
48.03
65.73
82.06
90.41
88.53
79.50
70.25
68.42
79.48
105.21
143.93
191.69
243.48
293.85
337.18
367.74
380.53
372.45
343.69
298.50
244.74
192.13
149.78
123.57
114.55
118.87
129.14
136.86
135.20
120.91
95.07
61.97
27.06
-5.39
-33.74
-58.97
-83.37
-108.75
-135.06
-160.16
-180.67
-193.41
-196.50
-189.75
-174.42
-152.56
-126.53
-98.82
-71.98
-48.61
-31.15
-21.50
-20.58
-27.99
-42.04
-60.20
-79.97
-99.85
-119.92
-141.83
-167.93
-199.97
-237.77
-278.50
-316.97
-346.94
-362.92
-361.94
-344.36
-313.55
-274.66
-232.74
-191.31
-151.63
-112.99
-73.45
-30.93
15.95
67.37
122.12
177.68
230.55
276.83
313.14
337.60
350.63
355.12
355.56
356.51
360.79
368.30
376.04
379.35
373.81
357.03
329.37
293.45
252.95
211.21
170.47
131.89
96.02
63.17
33.60
7.33
-16.02
-37.23
-57.21
-76.52
-95.10
-112.14
-126.38
-136.50
-141.66
-141.65
-137.02
-128.78
-118.09
-105.93
-93.08
-80.07
-67.45
-55.80
-45.79
-37.99
-32.72
-29.92
-29.05
-29.24
-29.45
-28.84
-27.08
-24.57
-22.45
-22.26
-25.34
-32.34
-42.82
-55.45
-68.36
-79.73
-88.12
-92.69
-93.02
-89.04
-81.07
-69.95
-57.16
-44.77
-35.16
-30.38
-31.66
-38.99
-51.09
-65.68
-79.90
-90.87
-96.20
-94.33
-84.81
-68.40
-46.88
-22.80
1.10
22.36
39.21
50.77
57.05
58.76
56.97
52.90
47.58
41.74
35.80
30.01
24.48
19.38
14.86
11.02
7.86
5.22
2.83
0.44
-2.12
-4.89
-7.88
-11.10
-14.60
-18.49
-22.84
-27.73
-33.18
-39.28
-45.99
-53.10
-60.01
-65.71
-68.81
-67.91
-61.97
-50.72
-34.80
-15.74
4.37
23.32
39.17
50.58
56.90
58.07
54.50
46.87
35.98
22.68
7.84
-7.70
-23.23
-38.27
-52.59
-66.18
-79.11
-91.41
-103.05
-113.96
-124.22
-134.10
-144.09
-154.75
-166.51
-179.51
-193.37
-207.22
-219.73
-229.49
-235.48
-237.73
-237.50
-236.93
-237.96
-241.17
-245.01
-246.13
-240.65
-225.92
-201.73
-170.41
-135.70
-101.22
-69.12
-39.75
-12.09
15.36
44.09
75.53
111.13
152.00
197.85
245.88
290.33
323.51
338.15
330.06
299.87
252.81
196.77
139.67
87.35
43.03
7.88
-17.91
-34.61
-42.97
-44.85
-43.25
-41.88
-44.05
-51.50
-63.86
-78.72
-92.31
-100.67
-100.65
-90.64
-70.79
-42.80
-9.21
27.36
65.01
103.01
141.80
182.72
227.09
275.29
325.85
375.29
418.85
451.96
471.94
479.09
476.65
469.40
461.74
455.96
451.65
446.30
436.73
420.16
394.85
360.13
316.63
266.84
215.69
170.14
137.39
121.99
123.35
135.23
147.65
150.88
139.08
112.19
74.90
33.63
-6.50
-43.43
-77.87
-111.73
-146.52
-182.42
-218.49
-253.23
-285.19
-313.39
-337.40
-357.37
-374.00
-388.52
-402.16
-415.44
-427.41
-435.32
-435.01
-421.98
-392.87
-346.84
-286.49
-217.78
-149.11
-89.28
-45.41
-21.03
-15.47
-24.54
-42.21
-62.48
-80.58
-93.15
-97.98
-93.55
-79.36
-56.39
-27.57
2.63
29.42
49.15
60.18
62.94
59.19
51.15
40.97
30.54
21.32
14.24
9.37
5.95
2.78
-1.09
-5.77
-10.41
-13.53
-13.69
-9.91
-1.99
9.58
23.79
39.34
54.75
68.56
79.59
87.06
90.77
91.06
88.64
84.42
79.44
74.65
70.80
68.17
66.54
65.30
63.71
61.19
57.64
53.43
49.15
45.37
42.32
39.73
36.98
33.41
28.69
23.05
17.25
12.21
8.56
6.31
4.78
2.90
-0.38
-5.67
-12.87
-21.00
-28.37
-32.87
-32.48
-25.96
-13.27
4.21
24.18
44.10
61.92
76.47
87.28
94.23
97.32
96.81
93.50
88.87
84.71
82.44
82.63
84.80
88.15
92.14
96.87
102.74
109.57
115.95
119.29
116.65
105.91
86.53
59.68
27.78
-6.22
-39.31
-68.76
-92.41
-108.99
-118.43
-121.88
-121.42
-119.41
-117.72
-117.18
-117.58
-117.85
-116.55
-112.29
-104.00
-91.12
-73.82
-53.02
-30.39
-8.01
12.09
28.47
40.65
49.21
55.41
60.66
66.03
71.95
78.41
85.26
92.55
100.37
108.64
117.12
125.73
134.93
145.65
158.70
173.64
188.20
198.76
202.06
197.14
186.35
174.41
166.04
163.51
165.81
170.08
174.07
177.98
184.10
194.65
209.19
223.67
231.85
228.29
211.11
182.87
148.99
114.99
84.00
56.04
29.05
0.84
-29.51
-61.15
-92.32
-121.55
-148.39
-173.46
-197.77
-221.75
-244.60
-264.34
-278.53
-285.49
-285.32
-280.30
-274.18
-270.77
-272.54
-279.83
-291.31
-305.22
-320.57
-337.33
-355.62
-374.47
-391.35
-402.91
-406.78
-402.90
-393.35
-380.41
-364.37
-342.77
-312.18
-271.54
-224.96
-181.71
-152.49
-144.08
-155.28
-176.54
-193.98
-195.44
-175.26
-135.69
-84.40
-30.07
21.39
68.33
112.38
156.46
202.99
253.17
306.77
362.17
416.26
464.46
501.46
522.62
525.41
510.33
480.37
439.74
392.38
341.18
288.17
235.18
184.32
137.57
96.13
59.56
25.54
-9.28
-48.16
-93.38
-145.93
-205.60
-271.00
-339.23
-405.45
-463.24
-505.87
-528.35
-529.21
-511.04
-479.11
-439.21
-395.40
-349.17
-300.23
-248.37
-195.26
-144.79
-101.81
-69.70
-48.30
-33.28
-17.44
6.36
42.22
89.23
141.89
192.41
233.67
261.45
274.88
275.44
265.22
246.07
219.63
188.19
155.25
125.21
102.30
89.54
88.04
97.25
115.67
141.36
171.63
202.54
228.79
244.52
245.04
228.54
196.76
154.23
106.81
60.22
19.51
-11.10
-28.39
-30.96
-20.05
-0.03
22.41
40.37
48.91
46.54
34.79
16.60
-5.60
-30.76
-58.60
-88.30
-117.51
-142.76
-160.85
-170.62
-173.56
-172.93
-172.07
-172.61
-173.91
-174.03
-171.41
-166.12
-159.93
-155.04
-152.44
-151.08
-148.45
-142.14
-131.48
-118.14
-105.38
-96.41
-92.79
-93.78
-96.83
-98.77
-97.17
-90.86
-79.88
-64.76
-46.08
-24.40
-0.59
23.78
46.46
65.10
78.09
85.22
87.71
87.67
87.10
87.09
87.39
86.89
84.41
79.57
73.12
66.64
61.75
59.34
59.23
60.32
61.11
60.25
56.77
50.29
40.99
29.73
17.79
6.58
-2.93
-10.67
-17.50
-24.85
-34.00
-45.48
-58.77
-72.42
-84.34
-92.22
-93.95
-88.09
-74.29
-53.61
-28.37
-1.76
22.78
42.25
54.34
57.75
52.40
39.90
23.70
8.45
-1.55
-4.39
-1.92
0.45
-4.34
-22.30
-56.48
-106.31
-168.22
-236.63
-304.67
-364.71
-409.14
-431.93
-430.42
-406.71
-367.18
-320.52
-274.70
-234.64
-201.58
-174.06
-149.64
-126.24
-102.66
-78.26
-52.64
-25.51
3.08
32.52
61.79
89.72
115.49
139.20
161.86
184.92
209.34
234.60
258.42
277.46
288.69
290.99
285.82
276.77
268.17
263.51
264.47
270.83
281.13
293.40
305.85
317.21
327.00
335.52
343.37
350.80
356.98
359.77
356.32
344.28
322.76
292.77
256.73
217.70
178.65
142.47
112.02
89.96
78.00
75.84
80.93
89.21
96.65
100.58
100.12
95.41
86.39
72.31
52.29
26.74
-1.48
-27.10
-44.07
-47.97
-37.93
-16.94
9.56
35.85
57.94
74.28
85.22
91.85
94.91
94.43
90.08
81.92
70.83
58.44
46.50
36.13
27.41
19.48
10.98
0.79
-11.60
-25.98
-41.69
-57.96
-74.01
-89.05
-101.97
-111.39
-115.89
-114.57
-107.48
-95.56
-80.00
-61.58
-40.30
-15.61
12.76
44.17
76.90
108.35
135.70
156.25
167.63
167.82
155.47
130.41
94.17
49.94
1.83
-46.34
-92.25
-135.49
-177.43
-220.55
-267.57
-320.47
-379.25
-441.03
-499.69
-546.97
-574.77
-577.83
-555.66
-512.52
-455.66
-392.80
-330.13
-271.56
-219.20
-174.21
-137.29
-108.56
-87.24
-71.56
-59.31
-48.58
-38.42
-28.89
-20.73
-14.87
-11.99
-12.31
-15.61
-21.20
-27.99
-34.45
-38.81
-39.28
-34.48
-23.84
-7.75
12.50
35.10
58.13
79.98
99.53
116.22
129.92
140.82
149.38
156.24
162.06
167.40
172.55
177.47
181.82
185.23
187.51
188.85
189.86
191.28
193.60
196.65
199.40
200.17
197.24
189.41
176.56
159.73
140.80
121.89
104.74
90.28
78.60
69.11
60.96
53.36
45.79
38.00
30.01
21.94
14.02
6.44
-0.73
-7.67
-14.91
-23.18
-33.10
-44.66
-56.89
-67.80
-74.87
-75.84
-69.52
-56.27
-37.83
-16.77
4.34
23.54
39.77
52.75
62.64
69.78
74.46
76.96
77.61
76.85
75.22
73.32
71.76
71.08
71.72
73.87
77.44
82.07
87.15
91.94
95.59
97.24
96.14
91.80
84.03
73.07
59.45
43.87
27.07
9.74
-7.41
-23.70
-38.42
-50.97
-60.99
-68.49
-73.84
-77.79
-81.29
-85.35
-90.72
-97.49
-104.74
-110.50
-112.21
-107.51
-95.25
-75.98
-51.93
-26.25
-2.06
18.45
34.27
45.39
52.29
55.46
55.28
52.05
46.20
38.40
29.47
20.25
11.55
3.97
-2.00
-5.98
-7.74
-7.29
-4.93
-1.19
3.25
7.75
11.80
14.96
16.79
16.83
14.65
10.01
3.10
-5.49
-14.88
-24.19
-32.82
-40.66
-48.09
-55.82
-64.66
-75.27
-87.86
-101.89
-115.83
-127.17
-132.86
-130.07
-117.19
-94.62
-64.89
-32.07
-0.60
25.88
45.23
56.76
60.71
57.56
47.72
31.72
10.62
-13.76
-39.07
-63.05
-84.23
-102.42
-118.57
-134.17
-150.59
-168.44
-187.46
-206.79
-225.47
-243.07
-259.93
-277.25
-296.83
-320.51
-349.55
-383.70
-420.71
-456.23
-484.64
-500.67
-501.16
-486.21
-459.14
-425.17
-389.48
-355.55
-324.56
-295.94
-268.42
-240.96
-213.01
-184.46
-155.60
-127.44
-102.00
-82.06
-70.10
-66.80
-69.99
-74.90
-75.58
-67.15
-47.45
-17.52
19.37
59.31
99.19
137.17
172.47
204.75
233.65
258.79
279.99
297.43
311.65
323.32
332.91
340.63
346.58
351.15
355.57
361.87
372.34
388.17
408.32
429.04
444.75
450.09
442.08
421.38
392.19
360.65
332.92
313.60
305.09
307.79
320.56
341.16
366.54
393.09
417.19
435.74
446.78
449.57
444.39
432.13
413.80
390.27
362.20
330.15
294.93
257.91
220.98
186.23
155.24
128.37
104.67
82.36
59.83
36.71
14.33
-4.74
-17.96
-24.09
-24.06
-20.59
-17.07
-16.23
-19.34
-26.38
-36.85
-50.56
-67.82
-88.95
-113.44
-139.53
-164.57
-186.05
-202.55
-214.17
-221.92
-226.70
-228.53
-226.56
-219.77
-208.01
-192.38
-174.92
-157.84
-142.61
-129.66
-118.63
-108.92
-100.13
-92.12
-84.76
-77.75
-70.60
-62.97
-55.03
-47.54
-41.68
-38.49
-38.41
-41.13
-45.71
-51.00
-56.02
-60.20
-63.42
-65.89
-67.99
-70.09
-72.39
-74.84
-77.23
-79.29
-80.89
-82.19
-83.64
-85.85
-89.24
-93.75
-98.67
-102.67
-104.15
-101.71
-94.59
-82.89
-67.57
-50.12
-32.24
-15.36
-0.47
11.94
21.81
29.35
34.89
38.89
41.80
44.06
46.10
48.17
50.38
52.56
54.32
55.15
54.57
52.43
48.92
44.65
40.39
36.82
34.23
32.38
30.63
28.12
24.06
17.99
9.92
0.22
-10.41
-21.19
-31.42
-40.67
-48.89
-56.46
-64.15
-72.90
-83.39
-95.57
-108.30
-119.33
-125.79
-125.08
-115.79
-98.32
-74.82
-48.51
-22.65
0.24
18.84
32.86
42.60
48.55
51.13
50.72
47.79
43.00
37.12
30.92
24.86
19.14
13.66
8.25
2.86
-2.19
-6.34
-8.96
-9.62
-8.46
-6.16
-3.81
-2.51
-2.98
-5.36
-9.20
-13.80
-18.43
-22.64
-26.24
-29.37
-32.30
-35.48
-39.36
-44.29
-50.24
-56.57
-61.89
-64.29
-61.90
-53.48
-39.02
-19.72
2.33
24.89
46.13
64.98
81.03
94.19
104.34
111.09
113.89
112.19
105.78
94.94
80.45
63.37
44.83
25.74
6.66
-12.13
-30.50
-48.34
-65.42
-81.45
-96.15
-109.34
-120.98
-131.08
-139.67
-146.70
-152.05
-155.65
-157.44
-157.42
-155.63
-152.09
-146.88
-140.19
-132.54
-124.84
-118.24
-113.82
-112.04
-112.35
-113.11
-111.87
-106.03
-93.64
-74.06
-48.17
-18.13
13.14
42.74
68.43
88.98
104.22
114.71
121.35
125.02
126.46
126.31
125.18
123.74
122.54
121.82
121.41
120.82
119.42
116.83
113.05
108.51
103.82
99.55
95.92
92.74
89.42
85.13
79.08
70.81
60.28
47.93
34.48
20.65
6.97
-6.31
-19.29
-32.36
-46.23
-61.92
-80.50
-102.58
-127.70
-153.89
-177.79
-195.57
-204.13
-202.22
-190.84
-172.75
-151.42
-129.94
-110.47
-94.15
-81.58
-72.98
-68.33
-67.19
-68.45
-70.56
-71.87
-71.17
-67.97
-62.49
-55.22
-46.55
-36.49
-24.80
-11.33
3.60
19.13
33.96
46.70
56.20
61.69
62.84
59.73
52.92
43.44
32.67
22.03
12.49
4.30
-3.21
-11.17
-20.60
-31.89
-44.50
-57.07
-67.76
-74.75
-76.52
-72.12
-61.07
-43.32
-19.13
10.95
45.84
83.82
122.45
158.83
190.19
214.59
231.41
241.44
246.54
248.99
250.86
253.59
257.72
262.88
267.97
271.38
271.57
267.56
259.31
247.87
235.04
222.78
212.53
204.69
198.49
192.18
183.65
171.12
153.73
131.92
107.37
82.58
60.18
42.20
29.50
21.62
17.05
13.85
10.29
5.43
-0.85
-7.95
-15.01
-21.20
-25.85
-28.48
-28.85
-27.05
-23.63
-19.61
-16.35
-15.09
-16.54
-20.62
-26.51
-32.98
-38.74
-42.96
-45.40
-46.50
-47.12
-48.17
-50.21
-53.17
-56.38
-58.84
-59.73
-58.73
-56.19
-52.88
-49.58
-46.69
-44.04
-41.02
-36.93
-31.33
-24.36
-16.68
-9.27
-3.00
1.65
4.74
6.64
7.88
8.78
9.43
9.74
9.55
8.72
7.12
4.63
1.08
-3.56
-9.16
-15.34
-21.64
-27.70
-33.40
-38.80
-44.04
-49.14
-54.00
-58.52
-62.71
-66.77
-70.96
-75.44
-80.10
-84.53
-88.19
-90.66
-91.79
-91.75
-90.88
-89.58
-88.14
-86.71
-85.38
-84.18
-83.09
-82.04
-80.84
-79.27
-77.23
-74.77
-72.25
-70.15
-68.89
-68.56
-68.83
-69.15
-68.97
-68.01
-66.34
-64.28
-62.23
-60.54
-59.47
-59.22
-59.87
-61.31
-63.14
-64.70
-65.24
-64.26
-61.73
-58.20
-54.54
-51.53
-49.55
-48.46
-47.69
-46.76
-45.35
-43.55
-41.66
-40.03
-38.88
-38.26
-38.15
-38.63
-39.79
-41.62
-43.87
-45.98
-47.29
-47.32
-45.98
-43.61
-40.79
-38.04
-35.61
-33.45
-31.35
-29.10
-26.64
-24.07
-21.49
-18.97
-16.51
-14.07
-11.66
-9.31
-7.05
-4.84
-2.59
-0.19
2.44
5.25
8.07
10.67
12.84
14.52
15.76
16.72
17.60
18.50
19.41
20.20
20.67
20.70
20.28
19.54
18.71
17.98
17.41
16.91
16.30
15.37
14.02
12.27
10.20
7.92
5.50
3.00
0.49
-1.90
-4.06
-5.87
-7.34
-8.55
-9.64
-10.71
-11.77
-12.75
-13.43
-13.63
-13.16
-11.97
-10.06
-7.57
-4.72
-1.79
0.83
2.86
4.11
4.64
4.70
4.68
4.91
5.52
6.37
7.12
7.41
7.05
6.10
4.82
3.60
2.75
2.40
2.53
2.97
3.49
3.93
4.21
4.33
4.37
4.39
4.43
4.48
4.49
4.43
4.25
3.98
3.63
3.19
2.62
1.89
1.03
0.18
-0.45
-0.67
-0.40
0.31
1.26
2.28
3.23
4.14
5.05
6.05
7.17
8.34
9.44
10.35
10.94
11.16
10.98
10.48
9.76
8.95
8.18
7.55
7.13
6.94
6.97
7.14
7.32
7.36
7.18
6.81
6.42
6.18
6.22
6.53
6.93
7.17
7.02
6.39
5.34
4.05
2.74
1.60
0.67
-0.07
-0.73
-1.39
-2.08
-2.73
-3.24
-3.48
-3.40
-2.97
-2.21
-1.11
0.36
2.16
4.16
6.04
7.46
8.16
8.11
7.53
6.84
6.41
6.48
7.00
7.72
8.37
8.71
8.72
8.50
8.21
7.91
7.58
7.09
6.37
5.46
4.52
3.74
3.25
3.03
2.90
2.68
2.23
1.58
0.88
0.25
-0.23
-0.60
-0.95
-1.33
-1.73
-2.14
-2.50
-2.84
-3.15
-3.43
-3.61
-3.60
-3.29
-2.60
-1.53
-0.15
1.41
2.99
4.39
5.44
6.09
6.31
6.25
6.04
5.86
5.86
6.11
6.66
7.48
8.48
9.51
10.39
10.92
11.03
10.73
10.06
9.08
7.85
6.37
4.76
3.19
1.88
0.97
0.48
0.25
0.07
-0.18
-0.48
-0.70
-0.73
-0.55
-0.31
-0.24
-0.51
-1.15
-2.07
-3.07
-3.94
-4.50
-4.64
-4.30
-3.50
-2.29
-0.74
1.03
2.87
4.61
6.07
7.16
7.83
8.17
8.32
8.45
8.65
8.87
9.00
8.93
8.63
8.21
7.82
7.60
7.59
7.75
7.98
8.19
8.29
8.22
7.89
7.31
6.51
5.64
4.92
4.53
4.48
4.66
4.78
4.58
3.91
2.84
1.55
0.27
-0.85
-1.76
-2.52
-3.19
-3.83
-4.47
-5.13
-5.87
-6.75
-7.77
-8.83
-9.69
-10.02
-9.54
-8.15
-5.99
-3.43
-0.88
1.29
2.93
4.07
4.91
5.60
6.27
6.93
7.54
7.98
8.18
8.05
7.59
6.87
6.04
5.33
4.96
5.03
5.51
6.18
6.75
6.96
6.70
6.07
5.25
4.50
3.98
3.73
3.74
3.89
4.08
4.22
4.24
4.09
3.72
3.12
2.38
1.60
0.91
0.40
0.10
-0.07
-0.22
-0.51
-1.10
-2.08
-3.47
-5.15
-6.87
-8.34
-9.21
-9.27
-8.50
-7.03
-5.16
-3.16
-1.26
0.48
2.09
3.60
5.01
6.26
7.25
7.92
8.26
8.35
8.24
8.00
7.66
7.24
6.80
6.43
6.23
6.23
6.38
6.55
6.60
6.50
6.24
5.92
5.55
5.16
4.78
4.45
4.25
4.24
4.39
4.55
4.57
4.27
3.65
2.79
1.86
1.03
0.37
-0.13
-0.54
-0.93
-1.31
-1.69
-2.06
-2.44
-2.85
-3.40
-4.16
-5.18
-6.37
-7.58
-8.54
-9.02
-8.90
-8.14
-6.88
-5.20
-3.22
-0.97
1.42
3.80
5.87
7.39
8.17
8.24
7.80
7.13
6.47
5.94
5.54
5.18
4.77
4.34
3.95
3.73
3.73
3.91
4.17
4.39
4.53
4.60
4.62
4.59
4.42
4.06
3.49
2.82
2.24
1.92
1.89
2.03
2.11
1.92
1.38
0.55
-0.38
-1.21
-1.85
-2.28
-2.57
-2.78
-2.98
-3.16
-3.35
-3.55
-3.81
-4.18
-4.67
-5.22
-5.70
-5.91
-5.64
-4.75
-3.28
-1.37
0.70
2.62
4.12
5.10
5.55
5.62
5.48
5.27
5.07
4.84
4.55
4.15
3.72
3.39
3.27
3.43
3.81
4.26
4.60
4.74
4.65
4.41
4.09
3.75
3.39
3.01
2.64
2.32
2.10
1.97
1.86
1.63
1.17
0.45
-0.48
-1.45
-2.30
-2.92
-3.28
-3.47
-3.62
-3.82
-4.10
-4.43
-4.71
-4.90
-4.96
-4.92
-4.81
-4.66
-4.43
-4.02
-3.37
-2.42
-1.22
0.12
1.44
2.62
3.60
4.42
5.08
5.55
5.73
5.57
5.05
4.34
3.62
3.07
2.75
2.60
2.47
2.27
1.97
1.63
1.33
1.15
1.11
1.22
1.48
1.93
2.57
3.31
4.02
4.52
4.70
4.55
4.19
3.82
3.62
3.65
3.91
4.27
4.56
4.64
4.43
3.94
3.20
2.23
1.04
-0.33
-1.76
-3.04
-3.91
-4.16
-3.74
-2.78
-1.55
-0.36
0.59
1.23
1.60
1.83
1.94
1.96
1.84
1.60
1.28
0.95
0.69
0.52
0.43
0.40
0.36
0.30
0.21
0.07
-0.08
-0.24
-0.38
-0.50
-0.63
-0.80
-1.07
-1.45
-1.86
-2.24
-2.50
-2.58
-2.49
-2.24
-1.83
-1.25
-0.51
0.29
0.98
1.34
1.15
0.33
-1.03
-2.63
-4.06
-4.99
-5.20
-4.71
-3.71
-2.50
-1.36
-0.47
0.12
0.46
0.62
0.68
0.71
0.72
0.74
0.73
0.68
0.53
0.27
-0.02
-0.21
-0.14
0.29
1.03
1.90
2.67
3.14
3.26
3.09
2.77
2.41
2.04
1.62
1.17
0.77
0.56
0.64
0.95
1.34
1.54
1.35
0.64
-0.57
-2.22
-4.19
-6.35
-8.53
-10.52
-12.10
-13.12
-13.44
-13.02
-11.89
-10.15
-7.99
-5.67
-3.48
-1.63
-0.22
0.81
1.59
2.21
2.72
3.12
3.45
3.85
4.49
5.51
6.86
8.33
9.62
10.45
10.74
10.53
10.02
9.34
8.56
7.63
6.50
5.18
3.78
2.40
1.14
0.09
-0.75
-1.37
-1.77
-1.97
-2.07
-2.19
-2.50
-3.07
-3.89
-4.84
-5.79
-6.64
-7.36
-7.89
-8.16
-8.01
-7.35
-6.13
-4.44
-2.45
-0.32
1.87
4.08
6.26
8.24
9.77
10.60
10.64
9.98
8.96
7.94
7.23
6.93
6.96
7.16
7.40
7.57
7.66
7.62
7.42
7.02
6.41
5.66
4.92
4.29
3.82
3.43
2.98
2.31
1.37
0.27
-0.78
-1.53
-1.85
-1.78
-1.48
-1.22
-1.14
-1.30
-1.62
-1.98
-2.29
-2.53
-2.82
-3.28
-4.05
-5.19
-6.65
-8.25
-9.68
-10.62
-10.79
-10.11
-8.66
-6.68
-4.38
-1.93
0.63
3.24
5.73
7.86
9.28
9.83
9.53
8.66
7.61
6.72
6.11
5.72
5.38
4.95
4.42
3.85
3.37
3.08
3.01
3.09
3.28
3.48
3.59
3.52
3.19
2.60
1.84
1.07
0.49
0.23
0.34
0.72
1.18
1.52
1.54
1.16
0.38
-0.70
-1.91
-3.04
-3.93
-4.49
-4.73
-4.79
-4.85
-5.09
-5.56
-6.21
-6.86
-7.26
-7.21
-6.54
-5.21
-3.30
-1.02
1.32
3.39
4.96
5.95
6.39
6.42
6.16
5.69
5.07
4.40
3.80
3.41
3.24
3.21
3.16
2.93
2.53
2.11
1.93
2.14
2.78
3.66
4.53
5.18
5.49
5.48
5.23
4.87
4.50
4.15
3.75
3.22
2.45
1.42
0.21
-0.97
-1.95
-2.60
-2.89
-2.89
-2.67
-2.34
-1.99
-1.82
-2.01
-2.73
-3.96
-5.43
-6.68
-7.27
-6.90
-5.58
-3.53
-1.08
1.46
3.91
6.14
8.11
9.73
10.95
11.77
12.23
12.43
12.49
12.56
12.76
13.19
13.87
14.79
15.83
16.88
17.89
18.91
20.04
21.40
23.03
24.81
26.47
27.71
28.32
28.34
28.07
28.01
28.62
30.07
32.00
33.54
33.53
30.86
24.82
15.25
2.52
-12.74
-29.76
-47.75
-65.94
-83.53
-99.84
-114.48
-127.52
-139.54
-151.26
-163.15
-175.10
-186.44
-196.39
-204.64
-211.52
-217.75
-223.73
-229.02
-232.27
-231.89
-227.03
-218.11
-206.85
-195.38
-185.19
-176.27
-167.09
-155.22
-138.23
-114.60
-84.10
-47.89
-8.23
31.88
69.19
100.59
123.49
136.29
138.87
132.76
121.13
108.02
97.23
91.11
89.89
91.79
94.06
94.23
91.18
85.42
78.48
71.95
66.72
62.75
59.44
56.20
52.84
49.48
46.29
43.05
39.24
34.47
29.23
25.23
25.07
31.08
43.97
61.95
80.94
95.72
101.71
96.32
79.62
54.17
24.19
-5.72
-31.97
-53.08
-69.97
-85.28
-101.61
-119.80
-138.30
-154.17
-165.19
-171.77
-177.16
-185.52
-199.10
-216.25
-231.65
-238.76
-232.99
-213.77
-184.40
-150.08
-115.30
-82.46
-51.70
-21.91
8.06
39.05
71.93
108.04
148.80
194.42
242.10
285.25
314.31
319.48
294.39
238.72
158.93
66.48
-25.51
-105.70
-166.79
-206.15
-225.10
-227.53
-218.50
-203.16
-185.92
-169.89
-156.60
-145.96
-136.69
-126.84
-114.38
-97.87
-76.94
-52.23
-25.28
2.17
28.81
54.26
79.20
105.17
134.09
167.42
205.37
246.32
286.79
322.17
348.16
362.14
364.13
356.51
342.94
326.85
310.45
294.48
278.84
263.40
248.51
234.79
222.45
210.78
197.98
181.77
160.32
133.15
101.44
67.91
36.04
9.10
-10.46
-21.39
-23.55
-17.61
-4.71
13.64
35.61
58.94
81.03
99.20
111.12
115.28
111.35
100.25
83.86
64.50
44.45
25.51
8.94
-4.52
-14.64
-21.68
-26.62
-30.98
-36.58
-44.76
-55.98
-69.46
-83.70
-97.12
-108.82
-118.89
-128.06
-137.09
-146.19
-154.87
-162.19
-167.34
-170.10
-171.04
-171.36
-172.53
-175.81
-181.73
-189.71
-197.88
-203.37
-202.94
-193.84
-174.72
-146.01
-109.90
-69.62
-28.67
9.95
44.20
73.04
96.30
114.39
128.13
138.53
146.60
153.13
158.56
162.83
165.51
166.04
164.04
159.57
153.17
145.63
137.67
129.58
121.04
111.25
99.28
84.43
66.62
46.49
25.25
4.35
-14.79
-31.07
-43.78
-52.66
-57.80
-59.70
-59.13
-56.90
-53.57
-49.18
-43.16
-34.58
-22.72
-7.50
10.23
28.85
46.48
61.56
73.25
81.48
86.72
89.60
90.69
90.45
89.41
88.26
87.88
89.12
92.42
97.62
103.90
110.11
115.25
118.78
120.79
121.73
122.04
121.75
120.31
116.74
109.99
99.29
84.48
66.08
45.18
23.07
0.92
-20.52
-41.00
-60.68
-79.96
-99.22
-118.61
-137.88
-156.15
-171.80
-182.63
-186.26
-180.84
-165.61
-141.37
-110.22
-75.11
-39.02
-4.47
26.78
53.59
75.32
91.68
102.68
108.65
110.11
107.57
101.34
91.45
77.77
60.37
39.76
17.14
-5.78
-27.11
-45.17
-58.91
-68.04
-73.01
-74.97
-75.49
-76.29
-78.90
-84.26
-92.52
-102.98
-114.32
-125.14
-134.49
-142.25
-149.15
-156.43
-165.26
-176.17
-188.72
-201.53
-212.52
-219.49
-220.67
-215.10
-202.87
-185.01
-163.15
-139.16
-114.69
-90.83
-68.18
-46.97
-27.41
-10.01
4.45
15.12
21.46
23.62
22.60
20.07
18.04
18.35
22.25
30.18
41.68
55.62
70.49
84.88
97.86
109.25
119.63
130.20
142.44
157.74
176.85
199.50
224.13
247.90
267.31
279.04
281.08
273.64
259.54
243.65
231.66
228.63
237.49
258.40
288.60
323.20
356.43
383.01
399.44
404.56
399.41
386.40
368.29
347.26
324.52
300.49
275.27
249.05
222.18
194.97
167.41
139.10
109.46
78.03
44.67
9.54
-26.87
-63.58
-98.88
-130.34
-155.31
-171.68
-178.85
-178.07
-172.08
-164.04
-156.40
-150.22
-145.30
-140.87
-136.27
-131.27
-125.93
-120.01
-112.79
-103.21
-90.61
-75.18
-58.18
-41.36
-26.35
-14.09
-4.85
1.32
4.00
2.18
-5.39
-19.52
-39.96
-65.33
-93.35
-121.53
-147.83
-171.05
-190.88
-207.86
-223.21
-238.49
-255.08
-273.64
-293.89
-314.84
-335.35
-354.78
-373.26
-391.45
-410.09
-429.54
-449.67
-469.90
-489.23
-506.26
-519.02
-525.21
-522.80
-510.85
-490.22
-463.48
-434.25
-405.97
-380.85
-359.59
-341.69
-326.11
-311.78
-297.79
-283.26
-267.18
-248.64
-227.10
-202.78
-176.70
-150.35
-125.15
-101.86
-80.30
-59.54
-38.45
-16.33
6.66
29.49
50.79
69.53
85.74
100.70
116.57
135.60
159.18
187.22
218.39
250.58
281.93
311.58
339.93
368.57
399.89
436.60
480.90
533.12
590.40
646.11
690.83
715.05
712.50
682.57
630.59
565.53
496.35
429.03
365.31
303.73
241.80
178.17
113.63
50.96
-5.92
-52.97
-86.87
-105.81
-110.08
-102.42
-87.32
-70.06
-55.24
-45.68
-42.24
-44.42
-51.20
-61.54
-74.29
-87.77
-99.84
-108.64
-113.67
-116.50
-120.10
-127.01
-137.20
-147.12
-150.61
-141.52
-116.49
-76.17
-24.34
34.38
96.48
159.94
222.90
281.85
331.37
365.37
379.78
374.52
353.69
323.49
289.55
255.04
220.85
186.96
153.91
122.93
94.76
68.01
38.83
2.38
-44.15
-98.83
-154.13
-198.95
-222.65
-219.34
-190.25
-143.26
-90.10
-42.19
-7.36
11.70
16.85
12.55
3.55
-6.98
-18.08
-30.73
-46.68
-66.91
-90.36
-113.59
-131.70
-140.20
-136.86
-122.65
-101.26
-77.31
-54.70
-35.46
-19.86
-7.39
2.10
7.73
7.76
0.29
-15.68
-39.43
-67.99
-96.64
-120.11
-134.20
-137.12
-129.67
-114.56
-95.22
-74.81
-55.56
-38.82
-25.08
-14.25
-6.00
-0.41
1.36
-2.88
-15.24
-35.98
-62.04
-87.19
-104.13
-107.55
-96.53
-74.65
-48.08
-22.81
-2.76
10.62
17.67
19.63
18.17
15.28
12.80
11.65
11.08
8.62
1.39
-12.13
-30.77
-50.81
-67.39
-76.23
-74.92
-63.29
-43.16
-18.31
5.79
22.70
26.86
15.86
-7.76
-36.64
-61.11
-73.07
-69.46
-53.63
-33.94
-20.29
-20.18
-35.85
-63.48
-94.80
-120.05
-131.25
-124.42
-100.27
-63.25
-20.36
20.25
50.18
62.01
51.25
18.62
-28.22
-75.83
-109.00
-116.72
-97.16
-59.01
-18.08
9.18
11.96
-11.95
-57.43
-115.77
-178.61
-239.64
-294.11
-337.60
-365.65
-375.06
-366.10
-343.66
-316.21
-292.58
-278.33
-273.52
-273.40
-271.06
-261.05
-241.65
-215.04
-185.63
-157.75
-134.07
-115.13
-100.09
-87.80
-77.62
-69.55
-63.81
-60.42
-58.89
-58.46
-58.37
-58.25
-58.14
-58.36
-59.21
-60.63
-62.23
-63.43
-63.83
-63.46
-62.78
-62.41
-62.67
-63.18
-62.79
-59.81
-52.58
-39.98
-21.80
1.38
28.51
58.70
91.43
126.66
164.55
205.12
247.90
291.81
335.12
375.40
409.63
434.65
447.92
448.83
439.68
425.63
413.07
407.16
409.64
418.44
429.05
436.91
439.34
435.78
426.76
412.44
392.07
364.77
330.88
292.64
253.70
217.51
185.79
158.06
132.45
107.13
81.35
55.58
30.85
8.00
-12.75
-31.90
-50.33
-68.93
-88.27
-108.53
-129.36
-149.95
-169.30
-186.50
-201.08
-213.17
-223.55
-233.52
-244.72
-258.83
-277.09
-299.51
-324.26
-347.48
-364.04
-369.07
-359.70
-336.19
-301.69
-260.95
-218.31
-176.31
-135.44
-94.96
-54.25
-13.79
24.77
59.32
88.21
110.89
127.95
140.66
150.40
158.38
165.58
172.98
181.69
192.80
207.11
224.79
245.32
267.63
290.44
312.68
333.70
353.42
372.26
390.75
409.14
426.91
442.62
454.19
459.49
457.17
447.16
430.62
409.43
385.43
359.96
333.80
307.39
281.21
255.91
232.17
210.56
191.29
174.19
158.82
144.60
130.98
117.52
104.00
90.43
77.03
64.06
51.67
39.68
27.55
14.51
-0.18
-16.88
-35.32
-54.68
-73.72
-91.27
-106.65
-119.90
-131.88
-144.13
-158.34
-175.72
-196.21
-217.81
-236.95
-249.62
-253.25
-248.21
-238.26
-229.36
-227.36
-235.70
-254.35
-280.21
-308.71
-335.48
-357.47
-373.24
-383.18
-389.56
-396.43
-408.57
-429.52
-459.34
-493.45
-523.85
-542.05
-542.68
-525.54
-495.20
-458.39
-420.99
-386.02
-353.81
-323.44
-294.39
-267.17
-242.79
-221.65
-202.85
-184.37
-164.04
-140.60
-114.31
-86.72
-59.76
-34.60
-11.19
11.47
34.28
57.04
78.08
94.67
104.27
105.53
98.68
85.24
67.32
47.14
26.82
8.39
-6.24
-15.68
-19.51
-18.52
-14.68
-10.46
-8.16
-9.18
-13.76
-20.90
-28.74
-35.12
-38.20
-36.82
-30.56
-19.59
-4.38
14.26
35.18
56.86
77.58
95.79
110.57
121.72
129.79
135.85
141.25
147.49
156.03
167.96
183.71
202.94
224.90
249.11
275.88
306.09
340.20
376.86
412.16
440.22
455.03
452.88
434.03
402.99
367.25
335.09
313.50
306.79
316.19
340.03
374.20
412.72
448.66
475.41
488.22
485.45
468.84
442.81
412.82
383.60
358.01
336.69
318.57
301.75
284.26
264.66
242.26
217.08
189.71
161.01
131.79
102.52
73.21
43.37
12.12
-21.46
-57.75
-96.06
-134.24
-168.95
-196.61
-214.77
-223.22
-224.25
-221.67
-219.28
-219.32
-221.91
-225.51
-228.25
-229.05
-228.21
-227.19
-227.92
-232.03
-240.28
-252.27
-266.45
-280.32
-290.91
-295.38
-291.61
-278.60
-256.48
-226.32
-189.84
-149.20
-106.94
-65.86
-28.71
2.37
26.26
43.08
53.86
59.94
62.32
61.39
57.06
49.22
38.24
25.12
11.21
-2.19
-14.26
-24.80
-33.99
-42.08
-49.22
-55.46
-60.98
-66.31
-72.18
-79.20
-87.57
-96.96
-106.78
-116.82
-127.71
-140.85
-157.79
-179.04
-203.18
-226.80
-245.42
-255.02
-253.53
-241.38
-221.27
-197.11
-172.99
-152.39
-137.77
-130.30
-129.58
-133.37
-137.81
-138.22
-130.50
-112.26
-83.27
-44.92
1.03
53.75
113.51
180.54
253.08
325.85
390.37
437.39
460.55
459.12
438.41
407.25
373.83
342.30
311.74
277.83
235.95
183.99
123.64
60.17
1.34
-44.25
-69.16
-69.34
-46.05
-6.29
38.95
78.47
104.38
114.17
109.80
94.74
70.88
37.33
-7.99
-65.18
-129.65
-191.93
-240.10
-263.95
-258.77
-227.23
-178.40
-124.42
-76.42
-41.20
-20.21
-11.06
-10.31
-16.19
-29.68
-53.65
-90.42
-139.59
-197.03
-255.89
-308.86
-350.87
-380.76
-401.31
-417.39
-433.41
-451.14
-468.87
-482.35
-487.06
-480.45
-463.34
-439.32
-412.95
-387.63
-364.34
-341.67
-317.34
-289.80
-259.40
-228.27
-199.32
-174.87
-155.73
-141.02
-128.63
-116.23
-102.26
-86.46
-69.96
-54.81
-43.23
-36.79
-35.81
-39.18
-44.79
-50.25
-53.80
-54.93
-54.39
-53.53
-53.42
-53.89
-53.14
-48.15
-35.47
-11.97
24.55
74.99
138.17
209.70
281.47
342.44
381.66
392.30
374.94
338.12
295.29
259.57
238.91
233.95
239.55
248.39
254.70
255.88
252.02
244.02
232.22
216.20
195.58
171.02
144.38
118.30
95.15
76.17
61.32
49.67
40.29
32.91
28.19
27.38
31.58
41.03
54.73
70.63
86.27
99.47
108.88
114.18
115.89
115.06
112.84
110.15
107.50
104.97
102.31
99.22
95.49
91.19
86.76
82.82
79.97
78.56
78.54
79.40
80.37
80.61
79.50
76.83
72.88
68.25
63.66
59.67
56.50
53.97
51.58
48.63
44.45
38.62
31.23
23.07
15.57
10.54
9.60
13.60
22.27
34.32
47.87
61.18
73.11
83.29
91.80
98.80
104.16
107.44
108.17
106.07
101.25
94.12
85.14
74.65
62.87
49.95
36.08
21.58
6.80
-7.95
-22.45
-36.61
-50.43
-63.94
-77.25
-90.45
-103.60
-116.65
-129.41
-141.58
-152.94
-163.47
-173.48
-183.61
-194.63
-207.09
-221.02
-235.59
-249.16
-259.50
-264.44
-262.52
-253.53
-238.56
-219.69
-199.44
-179.99
-162.78
-148.32
-136.19
-125.19
-113.57
-99.33
-80.70
-56.64
-27.27
6.04
41.06
75.34
106.85
134.47
158.10
178.37
196.14
212.05
226.20
238.18
247.39
253.39
256.25
256.50
254.98
252.50
249.56
246.28
242.40
237.45
230.79
221.71
209.63
194.40
176.60
157.65
139.53
124.22
112.97
105.95
102.13
99.72
96.70
91.39
82.81
70.70
55.45
37.93
19.30
0.94
-15.59
-28.66
-36.79
-39.03
-35.18
-26.02
-13.06
1.86
17.09
31.55
44.82
56.93
68.03
78.07
86.85
94.05
99.60
103.79
107.20
110.35
113.42
116.06
117.68
117.97
117.18
116.12
115.71
116.55
118.90
122.93
129.00
137.61
148.82
161.67
174.05
183.34
187.54
186.22
180.56
172.64
164.16
155.72
146.85
136.76
125.18
112.67
100.21
88.58
77.78
67.07
55.37
41.91
26.71
10.66
-4.91
-18.86
-30.72
-40.90
-50.48
-60.72
-72.67
-86.85
-103.22
-121.11
-139.13
-155.23
-167.13
-173.08
-172.95
-168.73
-164.16
-163.28
-168.66
-180.13
-194.88
-208.89
-218.68
-222.69
-221.32
-216.05
-208.39
-199.39
-190.13
-182.48
-179.23
-183.25
-195.97
-216.16
-239.66
-260.58
-273.17
-273.54
-260.31
-234.41
-198.35
-155.82
-111.44
-70.46
-37.81
-16.72
-7.28
-5.98
-6.97
-4.38
4.92
19.88
35.65
45.58
43.64
26.31
-6.88
-53.58
-109.30
-168.08
-223.12
-267.84
-297.17
-308.88
-304.11
-286.82
-262.46
-236.27
-212.03
-191.83
-176.38
-165.69
-159.51
-157.48
-159.06
-163.36
-168.84
-173.05
-172.52
-163.13
-141.43
-106.23
-59.81
-7.88
41.78
81.75
107.22
116.91
112.58
97.63
75.74
50.28
24.34
1.09
-16.26
-25.21
-24.90
-16.57
-3.40
10.63
22.04
28.90
31.17
30.29
28.08
25.55
22.19
15.83
3.27
-18.49
-50.86
-92.62
-139.57
-185.49
-223.71
-249.04
-259.22
-255.37
-241.41
-222.70
-204.55
-191.10
-184.80
-186.43
-195.32
-209.51
-225.97
-240.97
-250.91
-253.43
-248.23
-237.00
-222.52
-207.25
-192.13
-176.30
-157.93
-135.60
-109.52
-81.83
-55.91
-35.19
-21.99
-16.90
-18.86
-25.60
-34.35
-42.40
-47.61
-48.67
-45.28
-38.00
-27.96
-16.40
-4.38
7.40
18.61
29.13
39.00
48.41
57.71
67.29
77.54
88.69
100.88
114.19
128.64
144.06
159.89
174.94
187.58
196.21
199.81
198.51
193.61
187.19
181.48
178.34
178.91
183.65
192.34
204.20
218.08
232.82
247.73
262.84
278.87
296.75
316.92
338.83
360.87
380.88
396.82
407.39
412.22
411.77
407.18
400.11
392.67
387.11
385.30
387.97
394.28
401.88
407.58
408.20
401.50
386.35
362.72
331.43
294.13
253.50
213.34
178.15
152.03
137.19
132.89
135.23
138.37
136.32
124.95
103.04
72.37
36.86
1.38
-29.40
-51.99
-64.70
-68.16
-65.15
-60.06
-57.54
-61.00
-71.19
-85.78
-100.18
-109.37
-109.91
-101.23
-85.69
-67.40
-50.69
-38.83
-33.56
-35.22
-43.15
-55.90
-71.23
-86.26
-97.83
-103.40
-101.88
-93.98
-81.78
-67.79
-54.03
-41.71
-31.48
-23.74
-18.75
-16.36
-15.75
-15.64
-15.12
-14.64
-16.20
-22.77
-36.85
-59.23
-88.79
-123.63
-162.70
-206.47
-255.94
-310.29
-364.85
-410.94
-438.17
-438.15
-407.74
-350.10
-273.35
-187.90
-103.87
-29.48
29.58
70.44
93.42
102.20
103.36
104.71
113.10
132.24
161.72
197.46
233.37
263.33
283.16
291.59
290.43
283.53
275.13
268.11
262.79
257.08
247.62
231.55
207.61
176.42
139.86
100.23
59.41
18.54
-22.13
-62.97
-104.23
-145.11
-182.91
-213.29
-231.69
-235.54
-225.89
-207.50
-187.21
-171.30
-163.84
-166.49
-179.40
-201.96
-232.42
-266.64
-297.07
-313.55
-306.24
-269.58
-205.36
-123.16
-37.78
35.40
84.95
106.21
101.23
76.63
40.42
-0.59
-41.84
-80.28
-113.24
-137.37
-148.85
-144.77
-124.94
-93.13
-56.66
-24.13
-2.59
4.90
-0.25
-13.76
-31.19
-50.16
-70.85
-94.69
-121.70
-148.94
-170.82
-181.39
-177.13
-158.74
-131.05
-101.18
-75.88
-59.28
-51.98
-51.37
-53.15
-53.48
-50.80
-46.27
-42.96
-43.59
-48.51
-55.02
-58.45
-54.66
-42.48
-24.28
-5.00
9.71
15.10
7.80
-13.82
-49.14
-94.33
-142.01
-182.02
-204.12
-201.56
-174.17
-129.30
-79.86
-40.17
-21.28
-27.82
-57.38
-102.51
-154.10
-204.45
-248.95
-285.76
-314.42
-334.21
-343.72
-341.59
-328.10
-305.91
-279.51
-253.48
-230.54
-210.73
-191.96
-171.77
-149.12
-125.07
-102.17
-82.88
-68.14
-56.61
-45.34
-31.09
-11.92
11.96
38.28
63.91
86.28
104.47
119.42
133.14
147.44
162.72
177.60
189.60
196.30
196.62
191.52
183.75
176.95
174.91
180.84
196.71
222.32
254.33
286.13
309.01
315.03
300.20
266.56
221.57
175.10
135.57
107.07
89.16
78.83
73.30
71.80
75.44
85.71
102.70
124.38
147.19
167.51
183.03
193.36
199.89
204.62
208.92
212.87
215.22
214.08
208.01
196.64
180.88
162.44
143.02
123.94
105.96
89.51
74.85
62.14
51.37
42.26
34.45
27.60
21.60
16.58
12.77
10.29
8.94
8.15
6.92
4.05
-1.73
-11.38
-25.12
-42.05
-59.96
-75.66
-85.60
-86.85
-77.99
-59.70
-34.62
-6.76
19.59
40.89
55.04
61.49
60.97
54.87
44.75
32.17
18.68
6.03
-3.87
-9.36
-9.57
-4.95
2.80
11.23
18.08
22.07
23.27
22.65
21.42
20.42
20.04
20.63
23.08
29.00
40.29
58.34
83.19
113.20
145.46
176.77
204.64
227.76
245.81
258.68
265.89
266.75
261.10
250.32
237.59
227.12
222.43
224.67
232.03
240.55
245.98
245.64
239.24
228.29
214.84
200.21
184.53
167.15
147.51
125.70
102.60
79.57
57.81
38.05
20.27
3.72
-12.86
-30.92
-51.64
-75.53
-102.26
-130.86
-160.23
-189.65
-219.19
-249.71
-282.55
-319.23
-361.37
-410.44
-467.25
-530.92
-597.74
-660.98
-712.09
-743.15
-749.68
-732.22
-695.94
-648.34
-596.45
-544.82
-495.21
-447.67
-401.96
-358.25
-316.91
-277.70
-239.36
-200.02
-158.13
-113.38
-66.98
-21.20
21.61
60.18
94.87
127.70
161.69
199.70
243.12
290.77
338.72
381.13
412.14
427.93
428.27
416.55
398.38
379.41
363.26
350.66
339.85
327.98
312.57
292.63
268.87
243.46
219.21
198.76
183.78
174.34
168.77
163.98
156.47
143.70
125.37
103.88
83.68
69.51
64.06
66.43
71.76
72.92
63.20
39.29
3.22
-37.76
-73.23
-92.80
-89.46
-61.82
-14.56
42.92
98.92
142.42
165.58
165.45
144.55
110.29
73.29
44.81
33.78
43.99
73.57
115.33
159.78
198.46
226.48
242.82
249.09
247.57
239.78
227.03
210.76
193.21
176.95
163.75
153.35
143.44
130.63
111.71
86.19
54.93
19.94
-16.42
-51.96
-84.89
-113.93
-138.48
-160.02
-178.14
-194.10
-209.07
-224.17
-241.09
-262.61
-292.04
-331.51
-382.10
-434.71
-479.10
-504.37
-502.77
-472.21
-416.38
-342.88
-260.72
-182.81
-112.73
-57.37
-21.94
-8.87
-17.08
-42.57
-80.39
-126.82
-185.45
-249.84
-317.88
-384.40
-441.65
-481.93
-500.83
-499.06
-449.16
-399.64
-349.48
-300.59
-251.86
-201.32
-148.15
-93.37
-38.86
14.48
62.69
114.38
171.77
233.82
294.78
344.78
372.65
369.80
333.44
263.88
176.01
83.63
0.69
-61.89
-97.97
-106.42
-90.36
-56.11
-14.83
26.44
58.09
73.53
70.48
51.28
21.64
-11.49
-42.20
-68.41
-87.29
-98.64
-100.77
-91.70
-71.01
-41.77
-10.12
17.20
34.71
42.90
45.13
48.62
59.80
81.20
109.98
139.98
165.45
182.91
194.60
205.25
223.62
257.85
312.58
386.78
474.25
566.05
651.33
722.18
750.67
715.62
613.77
466.25
307.25
164.89
58.99
-21.05
-87.89
-150.12
-207.66
-256.25
-290.14
-306.17
-305.31
-291.43
-271.09
-248.91
-229.21
-212.35
-196.37
-178.68
-158.50
-137.47
-118.21
-103.61
-93.18
-85.03
-75.11
-59.79
-37.63
-10.64
16.54
38.87
52.41
56.81
53.75
46.60
38.74
32.24
27.23
22.22
15.30
4.89
-8.93
-25.12
-41.83
-57.15
-69.68
-79.02
-85.77
-91.10
-96.31
-102.06
-108.44
-115.00
-121.00
-125.68
-128.66
-130.05
-130.49
-130.94
-132.50
-136.14
-142.39
-151.15
-161.35
-171.06
-177.67
-178.59
-172.00
-157.44
-135.97
-109.70
-80.95
-51.37
-21.55
8.89
40.61
73.79
107.56
139.81
167.41
186.66
194.04
187.16
165.64
131.63
89.50
44.76
2.29
-35.20
-67.71
-97.06
-125.09
-151.77
-174.59
-189.48
-192.78
-183.06
-161.63
-131.55
-95.88
-56.35
-13.48
32.19
78.60
121.68
156.28
178.26
186.51
183.67
175.32
167.86
166.37
173.28
188.19
208.77
232.07
255.54
277.54
297.30
314.56
329.29
341.52
351.51
359.83
367.23
374.19
380.32
384.14
383.50
376.43
362.19
341.79
317.78
293.34
271.13
252.60
237.91
226.39
217.20
209.69
203.42
198.00
192.88
187.28
180.46
171.83
161.14
148.47
134.16
118.56
101.94
84.35
65.65
45.60
24.06
1.13
-22.79
-47.03
-70.82
-93.55
-114.86
-134.73
-153.38
-171.05
-187.95
-204.26
-220.32
-236.61
-253.49
-270.72
-287.04
-300.27
-308.03
-308.81
-302.68
-291.46
-277.91
-264.63
-253.16
-243.74
-235.63
-227.75
-219.13
-209.04
-197.10
-183.36
-168.62
-154.61
-143.75
-138.41
-139.89
-147.71
-159.51
-171.95
-181.91
-187.76
-189.86
-190.43
-192.83
-200.55
-216.34
-241.43
-275.08
-314.44
-355.04
-391.85
-420.78
-440.02
-450.54
-455.34
-457.76
-459.70
-460.78
-458.73
-450.93
-435.88
-413.99
-387.20
-357.81
-327.55
-297.21
-267.04
-237.44
-209.40
-184.13
-162.39
-143.81
-126.84
-109.34
-89.61
-67.21
-43.15
-19.28
2.77
22.57
41.30
61.27
84.93
113.71
147.36
184.29
222.17
259.23
294.98
330.27
366.92
407.13
453.00
505.86
565.40
628.68
689.59
739.71
770.30
775.31
753.43
708.56
647.96
579.44
508.72
438.53
369.33
300.96
234.03
170.02
110.59
56.45
6.95
-39.59
-84.80
-129.20
-171.78
-210.14
-241.92
-266.13
-284.16
-299.68
-317.42
-341.20
-372.04
-407.30
-441.10
-466.02
-475.38
-465.24
-435.62
-390.27
-335.48
-278.06
-223.61
-175.36
-134.18
-99.39
-69.77
-44.25
-22.12
-2.85
14.18
29.85
45.19
61.54
80.55
104.39
135.65
177.12
231.26
299.25
379.88
468.62
557.40
635.47
691.82
718.07
711.06
673.77
614.09
541.97
466.39
393.32
325.27
262.34
203.64
148.47
96.92
49.76
8.06
-27.35
-56.42
-80.72
-103.67
-129.88
-163.68
-206.66
-255.92
-303.76
-339.60
-353.13
-337.62
-292.03
-221.42
-135.63
-46.88
32.96
94.86
134.08
150.52
147.69
130.63
103.48
68.06
24.03
-29.06
-89.17
-150.25
-203.06
-237.80
-247.26
-229.05
-186.09
-125.52
-56.89
9.74
65.75
105.05
124.67
124.69
107.39
76.05
33.74
-17.03
-74.00
-134.11
-193.06
-246.07
-289.69
-323.19
-348.86
-370.57
-391.60
-412.55
-430.56
-440.68
-438.63
-423.21
-396.78
-364.36
-331.29
-301.60
-277.13
-256.78
-237.70
-217.38
-195.09
-172.03
-150.54
-132.38
-118.08
-106.87
-95.80
-81.50
-62.85
-42.06
-23.42
-10.93
-5.25
-3.51
-0.86
9.37
33.27
73.93
130.48
199.12
274.06
349.13
419.75
473.11
496.01
484.60
447.34
398.59
350.85
304.56
255.93
201.75
142.20
83.18
36.74
13.56
18.39
48.08
92.86
140.99
182.11
209.78
223.75
227.81
225.55
217.76
202.44
176.77
140.22
95.27
46.49
-0.22
-39.82
-70.34
-93.26
-111.97
-129.80
-148.06
-166.01
-181.89
-193.81
-200.90
-204.24
-206.39
-210.17
-217.23
-227.24
-238.18
-247.26
-251.74
-249.66
-240.40
-224.53
-203.56
-179.51
-154.40
-129.90
-106.88
-85.00
-62.93
-38.89
-11.62
18.92
51.21
82.78
111.12
134.47
152.33
165.23
174.14
179.94
183.19
184.24
183.52
181.79
180.04
179.12
179.37
180.45
181.40
180.97
178.06
172.02
162.75
150.60
136.23
120.28
103.29
85.71
67.96
50.68
34.70
21.05
10.55
3.49
-0.62
-3.05
-5.55
-10.01
-18.05
-30.79
-48.76
-71.67
-98.30
-126.30
-152.44
-173.28
-186.03
-189.44
-184.15
-172.37
-157.23
-141.95
-129.29
-121.30
-119.24
-123.43
-133.14
-146.50
-160.79
-172.92
-180.10
-180.22
-172.08
-155.41
-130.90
-100.38
-66.81
-33.93
-5.32
16.62
31.31
39.97
44.81
47.93
50.61
53.06
54.87
55.45
54.38
51.32
45.97
38.09
27.91
16.53
5.91
-1.52
-3.80
-0.21
8.38
19.97
32.29
43.69
53.66
62.71
71.84
82.11
94.24
108.58
125.10
143.36
162.45
181.05
197.64
210.95
220.32
225.97
228.87
230.47
232.31
235.75
241.86
251.21
263.60
277.61
290.36
297.77
295.41
279.66
248.75
203.37
146.56
83.08
18.65
-40.98
-90.72
-126.85
-147.48
-152.93
-145.47
-128.89
-107.53
-85.45
-65.65
-49.89
-38.65
-31.22
-25.92
-20.57
-13.22
-3.08
8.73
19.16
23.84
18.24
-1.15
-35.88
-84.93
-144.43
-207.79
-266.46
-311.62
-336.39
-338.09
-319.43
-287.93
-253.62
-225.80
-210.40
-208.79
-218.34
-234.13
-250.63
-262.92
-267.24
-261.13
-243.49
-214.73
-176.89
-133.38
-88.51
-46.44
-10.14
19.42
43.51
64.98
87.11
112.26
140.96
171.72
201.83
228.56
250.30
267.07
280.17
291.26
301.39
310.40
317.03
319.62
316.90
308.62
295.58
279.26
261.10
242.03
222.18
201.15
178.49
154.23
129.24
105.17
84.02
67.49
56.33
50.03
47.01
45.08
42.21
37.05
29.26
19.49
9.08
-0.31
-7.37
-11.84
-15.20
-20.73
-32.61
-54.19
-86.12
-125.17
-164.59
-196.09
-212.48
-210.14
-189.91
-156.46
-116.30
-75.67
-38.95
-8.25
16.01
34.03
45.84
51.03
49.27
41.02
28.20
14.00
1.89
-5.70
-8.46
-8.42
-9.21
-14.70
-27.75
-49.66
-80.38
-119.16
-165.05
-216.78
-272.29
-328.08
-379.13
-419.55
-443.97
-449.08
-434.81
-404.50
-363.94
-319.57
-276.75
-238.38
-204.82
-174.54
-145.27
-115.01
-82.57
-47.64
-10.68
27.13
63.76
96.31
121.54
136.65
140.47
133.99
120.14
102.70
84.90
68.50
53.57
39.16
24.26
8.58
-7.24
-21.89
-33.86
-41.77
-44.43
-40.82
-30.19
-12.44
11.43
38.99
66.60
90.13
106.02
112.28
109.13
98.87
85.23
72.23
63.08
59.42
61.05
66.18
72.10
75.99
75.67
70.11
59.58
45.56
30.38
16.68
6.96
3.05
5.74
14.62
28.18
44.18
60.30
74.70
86.41
95.37
102.10
107.18
110.89
113.08
113.34
111.34
107.06
100.88
93.44
85.36
77.14
69.10
61.53
54.75
49.07
44.67
41.40
38.87
36.51
33.87
30.76
27.15
23.10
18.51
13.13
6.77
-0.56
-8.44
-16.17
-23.05
-28.65
-33.05
-36.86
-40.92
-45.99
-52.40
-59.75
-66.97
-72.59
-75.25
-74.12
-69.17
-61.11
-51.02
-39.94
-28.69
-17.90
-8.22
-0.48
4.48
6.07
4.34
0.14
-5.13
-9.88
-12.90
-13.64
-12.31
-9.65
-6.63
-4.09
-2.56
-2.19
-2.75
-3.77
-4.73
-5.24
-5.22
-4.87
-4.62
-4.83
-5.53
-6.30
-6.41
-5.05
-1.69
3.66
10.48
17.92
25.20
31.90
38.15
44.51
51.75
60.53
71.16
83.48
96.88
110.40
122.98
133.68
141.93
147.64
151.12
152.92
153.41
152.59
149.95
144.85
136.91
126.46
114.60
102.70
91.83
82.18
73.11
63.56
52.80
40.78
28.22
16.10
5.19
-4.33
-12.77
-20.58
-27.97
-34.79
-40.62
-45.12
-48.22
-50.23
-51.68
-53.10
-54.85
-57.10
-59.81
-62.88
-66.15
-69.32
-71.96
-73.40
-72.91
-69.88
-64.07
-55.77
-45.76
-35.11
-24.86
-15.76
-8.21
-2.22
2.37
5.74
8.01
9.27
9.62
9.35
8.86
8.60
8.91
9.86
11.34
13.18
15.29
17.77
20.76
24.26
27.98
31.39
33.93
35.26
35.42
34.77
33.74
32.53
31.04
28.86
25.56
20.85
14.79
7.70
0.04
-7.78
-15.41
-22.50
-28.63
-33.20
-35.59
-35.33
-32.40
-27.30
-20.92
-14.23
-7.96
-2.44
2.34
6.54
10.17
13.08
14.97
15.69
15.35
14.36
13.23
12.30
11.53
10.48
8.59
5.50
1.27
-3.55
-8.09
-11.50
-13.24
-13.14
-11.41
-8.51
-4.96
-1.29
2.01
4.51
5.95
6.24
5.62
4.56
3.58
2.89
2.07
0.11
-4.23
-11.59
-21.49
-32.23
-41.42
-47.00
-48.07
-45.09
-39.43
-32.59
-25.55
-18.74
-12.28
-6.54
-2.28
-0.46
-1.76
-6.27
-13.32
-21.72
-30.04
-37.03
-41.73
-43.55
-42.16
-37.37
-29.13
-17.66
-3.64
11.63
26.37
38.71
47.22
51.36
51.60
49.21
45.69
42.21
39.31
36.86
34.36
31.25
27.07
21.45
13.90
3.90
-8.95
-24.38
-41.15
-57.07
-69.48
-76.13
-75.99
-69.57
-58.58
-45.19
-31.32
-18.25
-6.71
2.83
10.00
14.55
16.66
17.13
17.22
18.26
21.05
25.51
30.73
35.47
38.74
40.31
40.76
41.19
42.79
46.37
52.14
59.73
68.21
76.32
82.59
85.69
84.72
79.59
71.07
60.70
50.22
40.97
33.47
27.27
21.31
14.42
5.83
-4.65
-16.63
-29.47
-42.42
-54.75
-65.73
-74.57
-80.52
-82.97
-81.68
-76.83
-69.05
-59.25
-48.48
-37.68
-27.62
-18.83
-11.60
-6.10
-2.33
-0.24
0.32
-0.40
-2.00
-3.99
-5.83
-7.04
-7.31
-6.60
-5.11
-3.20
-1.31
0.17
0.97
1.02
0.38
-0.72
-2.03
-3.29
-4.38
-5.30
-6.18
-7.21
-8.49
-10.05
-11.83
-13.77
-15.96
-18.61
-22.05
-26.55
-32.07
-38.16
-43.97
-48.41
-50.46
-49.43
-45.17
-38.09
-29.00
-18.91
-8.71
0.91
9.54
16.97
23.07
27.79
31.13
33.20
34.18
34.31
33.88
33.09
32.11
31.06
30.03
29.05
28.10
27.09
25.93
24.60
23.11
21.49
19.75
17.80
15.47
12.58
9.05
4.89
0.26
-4.65
-9.62
-14.50
-19.13
-23.42
-27.32
-30.90
-34.37
-38.02
-42.04
-46.34
-50.43
-53.46
-54.48
-52.72
-47.92
-40.36
-30.77
-20.03
-9.02
1.62
11.46
20.29
28.11
35.04
41.30
47.11
52.53
57.48
61.75
65.16
67.77
70.01
72.63
76.53
82.47
90.87
101.65
114.33
128.25
142.78
157.54
172.32
186.97
201.17
214.34
225.69
234.37
239.62
240.84
237.48
228.98
214.79
194.52
168.20
136.39
100.31
61.70
22.73
-14.23
-46.78
-72.94
-91.52
-102.49
-107.06
-107.32
-105.54
-103.52
-102.10
-101.24
-100.48
-99.60
-98.91
-99.31
-101.83
-107.12
-115.06
-124.75
-134.67
-143.21
-149.08
-151.55
-150.54
-146.48
-139.94
-131.44
-121.27
-109.60
-96.74
-83.32
-70.30
-58.71
-49.28
-42.18
-36.98
-33.07
-29.99
-27.76
-26.72
-27.22
-29.20
-32.17
-35.42
-38.47
-41.29
-44.25
-47.62
-51.19
-54.04
-54.84
-52.43
-46.35
-37.18
-26.27
-15.28
-5.55
2.21
7.85
11.53
13.38
13.42
11.61
8.10
3.37
-1.90
-6.99
-11.44
-15.18
-18.52
-21.84
-25.43
-29.25
-32.99
-36.19
-38.45
-39.70
-40.18
-40.39
-40.93
-42.25
-44.52
-47.55
-50.91
-54.11
-56.78
-58.76
-60.17
-61.30
-62.49
-64.07
-66.18
-68.80
-71.54
-73.64
-74.09
-71.83
-66.13
-56.93
-44.98
-31.61
-18.39
-6.59
3.08
10.60
16.35
20.76
24.11
26.36
27.37
27.05
25.51
23.17
20.58
18.25
16.48
15.32
14.55
13.98
13.44
12.96
12.61
12.43
12.35
12.18
11.66
10.58
8.84
6.51
3.71
0.61
-2.69
-6.13
-9.70
-13.39
-17.18
-21.08
-25.11
-29.35
-33.81
-38.34
-42.49
-45.49
-46.43
-44.56
-39.60
-31.93
-22.49
-12.52
-3.20
4.66
10.68
14.84
17.30
18.28
18.02
16.76
14.81
12.49
10.12
7.94
6.12
4.74
3.80
3.24
3.01
3.02
3.22
3.61
4.16
4.82
5.43
5.69
5.27
3.89
1.45
-1.92
-5.85
-9.90
-13.65
-16.88
-19.58
-21.97
-24.41
-27.25
-30.74
-34.93
-39.63
-44.35
-48.36
-50.72
-50.50
-47.00
-39.99
-29.83
-17.41
-4.01
9.10
20.92
30.86
38.76
44.68
48.77
51.17
52.01
51.52
50.09
48.20
46.34
44.84
43.76
43.01
42.35
41.60
40.70
39.71
38.73
37.83
36.98
36.08
34.96
33.44
31.35
28.52
24.88
20.48
15.56
10.50
5.67
1.29
-2.69
-6.60
-10.95
-16.19
-22.56
-29.87
-37.47
-44.34
-49.23
-51.03
-49.03
-43.20
-34.15
-23.03
-11.13
0.37
10.64
19.24
25.92
30.61
33.29
34.08
33.27
31.33
28.86
26.38
24.28
22.65
21.43
20.39
19.37
18.29
17.19
16.21
15.42
14.77
14.04
12.91
11.04
8.24
4.53
0.12
-4.67
-9.50
-14.11
-18.41
-22.41
-26.23
-30.11
-34.30
-39.03
-44.36
-50.01
-55.31
-59.20
-60.53
-58.43
-52.59
-43.45
-32.10
-19.86
-7.98
2.77
12.05
19.81
26.09
30.80
33.82
35.10
34.81
33.38
31.37
29.28
27.38
25.64
23.87
21.88
19.62
17.25
15.07
13.36
12.20
11.45
10.68
9.42
7.25
4.01
-0.13
-4.81
-9.57
-14.09
-18.35
-22.56
-27.09
-32.28
-38.31
-45.12
-52.38
-59.48
-65.54
-69.51
-70.32
-67.20
-59.94
-49.06
-35.78
-21.58
-7.84
4.56
15.29
24.36
31.76
37.29
40.49
40.95
38.63
34.04
28.18
22.20
17.00
12.97
9.98
7.65
5.67
3.98
2.78
2.36
2.86
4.13
5.81
7.45
8.68
9.27
9.21
8.58
7.57
6.37
5.16
4.05
3.06
2.08
0.96
-0.53
-2.58
-5.22
-8.22
-11.02
-12.77
-12.49
-9.40
-3.20
5.79
16.62
28.06
38.94
48.44
56.20
62.17
66.47
69.12
70.10
69.42
67.26
64.06
60.36
56.64
53.08
49.51
45.58
40.93
35.49
29.54
23.56
18.07
13.37
9.48
6.15
3.02
-0.22
-3.75
-7.55
-11.49
-15.37
-18.99
-22.28
-25.30
-28.18
-31.15
-34.44
-38.21
-42.50
-47.09
-51.40
-54.51
-55.30
-52.78
-46.45
-36.53
-23.95
-10.13
3.50
15.83
26.26
34.64
41.02
45.45
47.93
48.45
47.11
44.28
40.50
36.44
32.60
29.26
26.34
23.52
20.47
17.02
13.28
9.66
6.60
4.32
2.68
1.17
-0.85
-3.86
-7.96
-12.81
-17.81
-22.39
-26.22
-29.29
-31.92
-34.58
-37.73
-41.74
-46.70
-52.40
-58.29
-63.43
-66.73
-67.15
-64.05
-57.39
-47.81
-36.43
-24.50
-13.14
-3.02
5.56
12.59
18.17
22.33
25.07
26.37
26.36
25.27
23.51
21.50
19.65
18.23
17.33
16.87
16.67
16.54
16.38
16.20
16.08
16.03
15.92
15.44
14.28
12.18
9.19
5.54
1.65
-2.09
-5.49
-8.58
-11.60
-14.90
-18.85
-23.74
-29.68
-36.52
-43.76
-50.54
-55.78
-58.37
-57.49
-52.84
-44.82
-34.35
-22.68
-11.01
-0.27
9.04
16.76
22.92
27.65
31.02
33.13
34.09
34.07
33.31
32.08
30.67
29.32
28.24
27.46
26.96
26.57
26.15
25.58
24.82
23.89
22.84
21.63
20.15
18.27
15.82
12.75
9.12
5.07
0.81
-3.46
-7.63
-11.59
-15.34
-18.93
-22.53
-26.43
-30.95
-36.25
-42.21
-48.20
-53.17
-55.87
-55.23
-50.80
-42.84
-32.36
-20.71
-9.24
1.10
9.82
16.88
22.43
26.61
29.44
30.85
30.83
29.51
27.22
24.46
21.74
19.43
17.72
16.59
15.86
15.27
14.51
13.30
11.45
8.96
5.98
2.81
-0.24
-2.94
-5.20
-7.04
-8.55
-9.84
-11.00
-12.15
-13.41
-14.91
-16.72
-18.86
-21.26
-23.85
-26.52
-29.08
-31.24
-32.53
-32.44
-30.50
-26.49
-20.50
-12.97
-4.53
4.20
12.64
20.39
27.14
32.65
36.69
39.08
39.76
38.85
36.74
34.02
31.36
29.33
28.25
28.17
28.94
30.33
32.12
34.11
36.08
37.77
38.88
39.12
38.35
36.57
33.98
30.86
27.54
24.21
21.04
18.06
15.22
12.39
9.29
5.50
0.56
-5.96
-14.29
-24.21
-35.10
-45.84
-55.10
-61.52
-64.12
-62.47
-56.82
-48.12
-37.71
-27.06
-17.38
-9.40
-3.28
1.23
4.52
6.90
8.39
8.83
8.00
5.86
2.63
-1.22
-5.13
-8.56
-11.16
-12.73
-13.26
-12.82
-11.56
-9.67
-7.37
-4.84
-2.22
0.42
2.98
5.28
7.10
8.17
8.31
7.51
5.99
4.05
1.98
-0.14
-2.44
-5.29
-9.09
-14.16
-20.52
-27.76
-35.01
-40.99
-44.34
-44.03
-39.71
-31.90
-21.75
-10.75
-0.19
9.12
16.85
22.94
27.39
30.12
31.00
30.11
27.85
24.86
21.89
19.52
17.99
17.18
16.76
16.34
15.69
14.74
13.62
12.49
11.51
10.68
9.88
8.89
7.51
5.60
3.19
0.47
-2.27
-4.73
-6.75
-8.31
-9.52
-10.63
-11.96
-13.89
-16.80
-20.97
-26.39
-32.54
-38.37
-42.52
-43.64
-40.96
-34.51
-25.21
-14.50
-3.88
5.55
13.23
19.14
23.50
26.55
28.43
29.19
28.93
27.90
26.48
25.10
24.11
23.64
23.62
23.78
23.77
23.27
22.10
20.25
17.83
15.02
12.04
8.99
5.94
2.87
-0.22
-3.32
-6.38
-9.33
-12.13
-14.77
-17.29
-19.78
-22.39
-25.29
-28.71
-32.87
-37.79
-43.21
-48.41
-52.28
-53.55
-51.19
-44.75
-34.61
-21.92
-8.27
4.71
15.71
24.00
29.42
32.23
32.86
31.83
29.55
26.42
22.87
19.38
16.49
14.57
13.77
13.87
14.43
14.95
15.13
14.92
14.47
13.95
13.29
12.15
10.11
6.83
2.26
-3.29
-9.23
-14.96
-19.98
-24.06
-27.22
-29.67
-31.76
-33.90
-36.45
-39.71
-43.72
-48.17
-52.27
-54.90
-54.82
-51.08
-43.35
-32.03
-18.14
-3.01
12.05
26.00
38.12
47.94
55.13
59.44
60.72
59.10
55.00
49.19
42.61
36.17
30.56
26.07
22.59
19.71
16.93
13.88
10.31
6.22
1.75
-2.95
-7.76
-12.64
-17.69
-23.02
-28.64
-34.38
-39.85
-44.58
-48.17
-50.48
-51.74
-52.51
-53.48
-55.27
-58.19
-62.08
-66.27
-69.63
-70.75
-68.34
-61.59
-50.47
-35.79
-19.05
-1.94
14.04
27.88
39.13
47.70
53.70
57.29
58.63
57.97
55.67
52.21
48.05
43.57
38.99
34.40
29.87
25.50
21.54
18.31
16.10
15.02
14.89
15.22
15.36
14.68
12.83
9.82
6.01
1.94
-1.94
-5.38
-8.43
-11.36
-14.56
-18.43
-23.29
-29.29
-36.23
-43.46
-49.89
-54.13
-54.93
-51.55
-44.09
-33.46
-21.12
-8.55
3.08
13.18
21.59
28.43
33.81
37.73
40.08
40.81
40.00
37.94
35.10
31.99
28.99
26.32
24.00
21.93
20.03
18.30
16.81
15.64
14.76
13.97
12.92
11.24
8.68
5.22
1.09
-3.31
-7.55
-11.35
-14.68
-17.71
-20.77
-24.20
-28.27
-33.15
-38.84
-45.12
-51.49
-57.00
-60.45
-60.59
-56.60
-48.40
-36.81
-23.36
-9.77
2.48
12.56
20.25
25.77
29.48
31.66
32.48
32.11
30.83
29.09
27.34
25.93
24.97
24.30
23.66
22.85
21.83
20.78
19.96
19.57
19.56
19.62
19.29
18.10
15.83
12.55
8.59
4.32
0.03
-4.22
-8.54
-13.07
-17.85
-22.86
-28.13
-33.81
-40.19
-47.40
-55.10
-62.30
-67.48
-69.00
-65.77
-57.69
-45.70
-31.54
-17.05
-3.70
7.73
17.05
24.37
29.78
33.22
34.60
33.99
31.75
28.60
25.41
22.95
21.65
21.52
22.21
23.27
24.32
25.23
26.05
26.93
27.95
28.95
29.58
29.42
28.12
25.58
22.04
17.92
13.71
9.76
6.14
2.69
-0.88
-4.94
-9.75
-15.45
-21.94
-28.83
-35.36
-40.48
-43.11
-42.38
-38.02
-30.42
-20.55
-9.69
0.96
10.49
18.36
24.36
28.40
30.50
30.75
29.32
26.54
22.79
18.48
13.95
9.40
4.87
0.32
-4.25
-8.66
-12.52
-15.33
-16.71
-16.57
-15.35
-13.91
-13.22
-14.04
-16.52
-20.21
-24.24
-27.66
-29.89
-30.75
-30.46
-29.49
-28.34
-27.50
-27.39
-28.21
-29.88
-31.84
-33.19
-32.87
-30.12
-24.81
-17.56
-9.53
-1.98
4.22
8.78
12.01
14.43
16.46
18.18
19.40
19.90
19.61
18.78
17.80
16.99
16.41
15.83
14.94
13.57
11.89
10.34
9.44
9.52
10.56
12.12
13.49
13.96
13.02
10.53
6.73
2.20
-2.41
-6.54
-9.92
-12.64
-15.12
-17.93
-21.67
-26.71
-33.09
-40.31
-47.37
-52.89
-55.43
-53.96
-48.17
-38.58
-26.42
-13.13
-0.01
12.10
22.84
32.09
39.79
45.83
50.10
52.65
53.79
54.06
54.06
54.23
54.75
55.52
56.39
57.38
58.72
60.88
64.26
69.00
74.72
80.52
85.22
87.65
86.98
82.99
76.06
67.02
56.84
46.36
36.06
26.05
16.20
6.21
-4.19
-15.24
-26.91
-38.84
-50.13
-59.52
-65.62
-67.39
-64.59
-57.83
-48.45
-38.03
-27.90
-18.86
-11.23
-5.00
-0.15
3.25
5.11
5.39
4.19
1.80
-1.39
-4.96
-8.56
-11.95
-14.98
-17.54
-19.53
-20.83
-21.29
-20.86
-19.60
-17.82
-16.03
-14.81
-14.61
-15.60
-17.60
-20.13
-22.67
-24.83
-26.59
-28.24
-30.32
-33.39
-37.82
-43.62
-50.35
-57.11
-62.68
-65.79
-65.34
-60.81
-52.34
-40.71
-27.14
-12.99
0.63
12.94
23.54
32.22
38.90
43.53
46.12
46.84
46.02
44.10
41.56
38.78
36.02
33.42
31.04
28.93
27.19
25.89
25.09
24.72
24.55
24.21
23.25
21.28
18.06
13.63
8.28
2.43
-3.49
-9.21
-14.64
-19.99
-25.67
-32.15
-39.71
-48.24
-57.01
-64.74
-69.89
-71.19
-68.00
-60.56
-49.82
-37.08
-23.63
-10.50
1.51
11.83
20.04
25.90
29.44
30.94
30.89
29.80
28.13
26.17
24.07
21.92
19.77
17.71
15.85
14.34
13.31
12.82
12.79
12.98
13.06
12.71
11.73
10.04
7.71
4.86
1.63
-1.88
-5.65
-9.79
-14.58
-20.38
-27.51
-35.94
-45.10
-53.87
-60.79
-64.46
-64.01
-59.32
-51.09
-40.48
-28.77
-17.00
-5.87
4.32
13.40
21.27
27.75
32.68
35.95
37.60
37.88
37.14
35.72
33.92
31.87
29.65
27.31
24.98
22.86
21.19
20.05
19.36
18.85
18.12
16.78
14.63
11.66
8.02
3.96
-0.34
-4.84
-9.67
-15.13
-21.54
-29.18
-38.09
-47.91
-57.90
-66.93
-73.70
-77.08
-76.38
-71.52
-63.03
-51.86
-39.13
-25.88
-12.95
-0.90
9.90
19.22
26.96
33.11
37.75
41.08
43.35
44.84
45.80
46.42
46.79
46.98
47.04
47.02
47.02
47.16
47.41
47.63
47.47
46.53
44.43
41.05
36.52
31.20
25.55
19.95
14.56
9.34
4.09
-1.52
-7.78
-14.90
-22.86
-31.28
-39.38
-46.05
-50.12
-50.65
-47.25
-40.19
-30.27
-18.60
-6.29
5.79
17.03
27.12
35.83
43.00
48.50
52.26
54.32
54.90
54.33
53.01
51.39
49.80
48.54
47.77
47.59
48.04
49.04
50.44
52.05
53.67
55.12
56.30
57.11
57.42
57.12
56.16
54.59
52.59
50.38
48.02
45.36
41.93
37.13
30.53
22.13
12.60
3.15
-4.72
-9.67
-10.91
-8.47
-3.16
3.58
10.13
15.08
17.60
17.65
15.90
13.53
11.76
11.48
12.93
15.69
18.94
21.78
23.61
24.26
23.89
22.77
20.98
18.23
13.90
7.24
-2.30
-14.70
-29.09
-43.71
-56.14
-63.81
-64.67
-57.89
-44.22
-25.95
-6.36
11.08
23.54
29.46
28.73
22.43
12.55
1.58
-7.77
-12.86
-11.55
-2.70
13.39
34.92
58.96
82.27
102.20
117.24
126.98
131.86
132.70
130.69
127.32
124.49
124.09
127.45
134.93
145.74
158.42
171.38
183.49
194.15
203.09
209.94
214.08
214.74
211.33
203.78
192.62
178.94
163.95
148.72
133.84
119.42
105.18
90.79
76.16
61.53
47.34
33.98
21.45
9.36
-2.99
-16.34
-31.24
-47.95
-66.23
-85.36
-104.10
-121.01
-134.84
-145.03
-151.91
-156.52
-160.09
-163.41
-166.52
-168.86
-169.66
-168.43
-165.20
-160.37
-154.51
-148.08
-141.43
-134.84
-128.59
-122.86
-117.65
-112.79
-108.05
-103.32
-98.69
-94.46
-90.94
-88.26
-86.26
-84.60
-83.00
-81.39
-80.03
-79.24
-79.23
-79.90
-80.80
-81.35
-81.14
-80.09
-78.43
-76.51
-74.48
-72.07
-68.73
-63.82
-57.00
-48.50
-39.11
-29.92
-21.97
-15.96
-12.09
-10.06
-9.36
-9.44
-9.90
-10.55
-11.38
-12.40
-13.62
-15.00
-16.47
-18.04
-19.84
-22.08
-24.94
-28.37
-32.04
-35.33
-37.58
-38.35
-37.56
-35.55
-32.93
-30.27
-27.99
-26.25
-25.04
-24.25
-23.82
-23.65
-23.67
-23.77
-23.82
-23.69
-23.33
-22.81
-22.30
-22.03
-22.23
-22.94
-24.10
-25.41
-26.47
-26.88
-26.39
-24.94
-22.74
-20.19
-17.74
-15.75
-14.40
-13.65
-13.30
-13.07
-12.72
-12.07
-11.10
-9.81
-8.27
-6.67
-5.25
-4.35
-4.25
-5.08
-6.64
-8.49
-10.07
-10.95
-11.06
-10.71
-10.45
-10.78
-11.90
-13.63
-15.55
-17.18
-18.23
-18.61
-18.40
-17.68
-16.53
-14.99
-13.17
-11.28
-9.59
-8.30
-7.45
-6.93
-6.51
-6.02
-5.40
-4.74
-4.21
-3.99
-4.19
-4.84
-5.88
-7.19
-8.64
-10.10
-11.45
-12.57
-13.36
-13.77
-13.78
-13.49
-13.08
-12.72
-12.53
-12.53
-12.58
-12.53
-12.30
-11.94
-11.62
-11.53
-11.73
-12.14
-12.56
-12.77
-12.65
-12.19
-11.43
-10.40
-9.11
-7.46
-5.37
-2.86
-0.04
2.87
5.60
7.95
9.82
11.22
12.26
13.06
13.74
14.38
15.05
15.81
16.72
17.84
19.19
20.73
22.41
24.15
25.92
27.76
29.75
31.95
34.34
36.81
39.19
41.28
43.04
44.56
46.01
47.60
49.41
51.44
53.60
55.81
58.03
60.19
62.17
63.69
64.39
63.91
62.02
58.63
53.72
47.23
39.04
29.05
17.38
4.44
-9.08
-22.42
-34.97
-46.38
-56.55
-65.47
-73.06
-79.16
-83.47
-85.72
-85.68
-83.29
-78.57
-71.76
-63.22
-53.53
-43.41
-33.61
-24.72
-17.07
-10.61
-5.01
0.25
5.55
11.02
16.40
21.21
24.87
26.99
27.47
26.57
24.77
22.71
20.98
19.90
19.39
18.90
17.51
14.22
8.33
-0.32
-11.18
-23.22
-35.18
-45.94
-54.82
-61.65
-66.64
-70.26
-72.94
-74.95
-76.36
-77.06
-76.88
-75.66
-73.36
-70.00
-65.65
-60.36
-54.24
-47.47
-40.28
-32.97
-25.74
-18.67
-11.71
-4.73
2.31
9.28
15.87
21.56
25.86
28.40
29.13
28.22
26.04
22.97
19.30
15.21
10.90
6.58
2.58
-0.77
-3.23
-4.77
-5.59
-6.01
-6.35
-6.81
-7.39
-7.93
-8.17
-7.76
-6.38
-3.77
0.24
5.64
12.18
19.31
26.32
32.51
37.39
40.85
43.14
44.69
45.86
46.75
47.20
46.87
45.48
42.91
39.23
34.65
29.40
23.71
17.76
11.71
5.74
-0.01
-5.42
-10.39
-14.84
-18.68
-21.86
-24.40
-26.41
-28.01
-29.35
-30.48
-31.36
-31.92
-32.09
-31.86
-31.38
-30.84
-30.46
-30.40
-30.65
-31.08
-31.49
-31.62
-31.26
-30.28
-28.65
-26.48
-23.94
-21.27
-18.65
-16.24
-14.12
-12.28
-10.71
-9.33
-8.06
-6.84
-5.67
-4.57
-3.63
-2.91
-2.41
-2.03
-1.64
-1.15
-0.51
0.27
1.16
2.12
3.17
4.27
5.38
6.41
7.23
7.78
8.04
8.05
7.87
7.55
7.17
6.81
6.56
6.54
6.78
7.24
7.74
8.07
8.07
7.70
7.05
6.30
5.61
5.10
4.72
4.43
4.12
3.80
3.47
3.19
2.95
2.69
2.35
1.94
1.51
1.18
1.01
1.00
1.09
1.26
1.56
2.11
2.99
4.18
5.48
6.66
7.56
8.18
8.70
9.32
10.15
11.09
11.95
12.48
12.54
12.12
11.31
10.26
9.14
8.08
7.21
6.61
6.26
6.11
6.02
5.91
5.75
5.56
5.36
5.17
4.95
4.69
4.44
4.29
4.32
4.51
4.79
4.99
4.99
4.72
4.21
3.51
2.65
1.63
0.44
-0.89
-2.27
-3.54
-4.55
-5.23
-5.61
-5.86
-6.20
-6.79
-7.74
-9.01
-10.53
-12.13
-13.62
-14.79
-15.42
-15.34
-14.47
-12.90
-10.91
-8.83
-7.03
-5.71
-4.93
-4.55
-4.42
-4.33
-4.12
-3.66
-2.81
-1.51
0.27
2.41
4.74
7.06
9.18
10.96
12.34
13.28
13.81
13.96
13.84
13.63
13.51
13.63
14.09
14.83
15.72
16.54
17.11
17.29
17.09
16.64
16.13
15.71
15.42
15.10
14.54
13.54
12.08
10.31
8.53
6.97
5.77
4.91
4.29
3.86
3.66
3.77
4.27
5.09
6.00
6.66
6.76
6.12
4.79
3.05
1.27
-0.23
-1.28
-1.95
-2.50
-3.18
-4.16
-5.38
-6.56
-7.35
-7.41
-6.60
-4.99
-2.82
-0.44
1.82
3.66
4.90
5.43
5.23
4.34
2.86
0.99
-1.04
-2.97
-4.61
-5.85
-6.72
-7.26
-7.49
-7.34
-6.63
-5.24
-3.15
-0.51
2.31
4.91
6.89
8.05
8.32
7.85
6.90
5.72
4.53
3.47
2.53
1.65
0.77
-0.07
-0.75
-1.02
-0.65
0.50
2.39
4.85
7.60
10.34
12.87
14.99
16.59
17.57
17.92
17.70
17.08
16.28
15.51
14.90
14.41
13.88
13.13
12.04
10.64
9.10
7.66
6.55
5.85
5.51
5.36
5.23
4.99
4.59
4.09
3.57
3.08
2.66
2.28
1.87
1.36
0.67
-0.23
-1.36
-2.65
-3.96
-5.08
-5.73
-5.66
-4.73
-3.01
-0.78
1.52
3.41
4.55
4.86
4.49
3.72
2.84
1.98
1.22
0.55
-0.03
-0.44
-0.68
-0.72
-0.57
-0.24
0.33
1.18
2.32
3.67
5.07
6.29
7.14
7.57
7.60
7.31
6.84
6.23
5.54
4.77
3.95
3.05
2.01
0.72
-0.91
-2.92
-5.25
-7.70
-9.96
-11.71
-12.63
-12.59
-11.61
-9.91
-7.76
-5.44
-3.09
-0.75
1.70
4.34
7.17
10.05
12.70
14.79
16.05
16.32
15.70
14.37
12.68
10.99
9.63
8.85
8.74
9.21
9.99
10.74
11.16
11.11
10.65
9.95
9.24
8.66
8.27
8.04
7.91
7.81
7.69
7.52
7.26
6.83
6.15
5.09
3.59
1.67
-0.46
-2.50
-4.05
-4.80
-4.60
-3.50
-1.71
0.55
3.06
5.64
8.08
10.12
11.49
11.98
11.58
10.52
9.19
8.01
7.24
6.94
6.90
6.87
6.63
6.08
5.24
4.17
2.90
1.46
-0.11
-1.77
-3.39
-4.90
-6.24
-7.46
-8.67
-10.01
-11.56
-13.30
-15.12
-16.83
-18.20
-19.12
-19.56
-19.66
-19.62
-19.67
-19.92
-20.46
-21.18
-21.89
-22.34
-22.22
-21.30
-19.48
-16.83
-13.58
-10.02
-6.43
-2.96
0.30
3.29
5.92
8.09
9.68
10.62
11.00
10.99
10.85
10.85
11.23
12.10
13.44
15.14
16.98
18.72
20.14
21.12
21.62
21.72
21.53
21.24
20.92
20.59
20.12
19.33
18.07
16.30
14.09
11.60
8.98
6.34
3.74
1.25
-1.11
-3.35
-5.54
-7.81
-10.24
-12.79
-15.22
-17.16
-18.23
-18.20
-17.05
-14.97
-12.22
-9.14
-6.08
-3.36
-1.18
0.37
1.41
2.18
2.95
3.84
4.79
5.66
6.25
6.52
6.54
6.45
6.35
6.22
5.99
5.60
5.08
4.54
4.11
3.87
3.81
3.82
3.75
3.51
3.09
2.59
2.19
2.02
2.11
2.36
2.60
2.64
2.44
2.00
1.34
0.49
-0.57
-1.88
-3.33
-4.72
-5.74
-6.08
-5.57
-4.25
-2.29
0.04
2.43
4.67
6.61
8.15
9.26
9.94
10.25
10.31
10.21
10.04
9.83
9.52
9.05
8.34
7.39
6.23
5.00
3.83
2.88
2.23
1.97
2.13
2.59
3.22
3.75
3.95
3.65
2.89
1.85
0.77
-0.11
-0.69
-1.02
-1.24
-1.51
-1.92
-2.45
-3.04
-3.63
-4.24
-4.98
-5.97
-7.27
-8.82
-10.36
-11.56
-12.07
-11.69
-10.38
-8.31
-5.71
-2.89
-0.09
2.44
4.51
5.90
6.52
6.42
5.78
4.90
4.11
3.64
3.54
3.75
4.10
4.41
4.60
4.67
4.68
4.71
4.80
4.91
4.98
4.90
4.62
4.12
3.46
2.70
1.89
1.07
0.28
-0.42
-0.95
-1.23
-1.29
-1.24
-1.23
-1.40
-1.76
-2.21
-2.63
-2.90
-3.05
-3.18
-3.41
-3.81
-4.32
-4.80
-5.02
-4.78
-3.91
-2.37
-0.31
1.97
4.11
5.77
6.75
7.05
6.80
6.21
5.43
4.59
3.80
3.13
2.67
2.41
2.33
2.33
2.35
2.38
2.45
2.61
2.83
3.06
3.22
3.24
3.11
2.82
2.34
1.64
0.70
-0.41
-1.54
-2.51
-3.17
-3.49
-3.57
-3.60
-3.75
-4.11
-4.67
-5.29
-5.84
-6.27
-6.59
-6.92
-7.33
-7.84
-8.30
-8.47
-8.11
-7.02
-5.19
-2.74
0.11
3.09
5.95
8.46
10.41
11.67
12.16
11.93
11.10
9.87
8.47
7.12
5.99
5.19
4.71
4.44
4.23
3.87
3.25
2.40
1.47
0.67
0.15
-0.12
-0.27
-0.53
-1.03
-1.80
-2.72
-3.65
-4.48
-5.19
-5.77
-6.24
-6.59
-6.77
-6.82
-6.80
-6.82
-7.03
-7.49
-8.17
-8.99
-9.77
-10.32
-10.44
-9.95
-8.79
-6.94
-4.55
-1.84
0.89
3.40
5.53
7.21
8.41
9.11
9.25
8.81
7.83
6.48
5.04
3.81
2.99
2.64
2.65
2.92
3.29
3.74
4.24
4.83
5.51
6.25
6.99
7.68
8.29
8.75
8.98
8.90
8.40
7.49
6.25
4.85
3.46
2.26
1.30
0.54
-0.14
-0.91
-1.91
-3.21
-4.77
-6.38
-7.74
-8.49
-8.34
-7.19
-5.20
-2.69
-0.08
2.26
4.13
5.45
6.28
6.72
6.86
6.80
6.61
6.31
5.86
5.27
4.55
3.76
3.02
2.41
1.97
1.70
1.60
1.66
1.95
2.41
2.93
3.29
3.26
2.71
1.68
0.34
-1.06
-2.28
-3.22
-3.84
-4.18
-4.37
-4.59
-5.01
-5.79
-6.95
-8.39
-9.88
-11.16
-11.99
-12.21
-11.66
-10.28
-8.10
-5.38
-2.48
0.14
2.08
3.11
3.25
2.63
1.53
0.18
-1.20
-2.44
-3.36
-3.85
-3.84
-3.37
-2.53
-1.42
-0.10
1.41
3.13
5.03
7.01
8.85
10.33
11.20
11.34
10.78
9.67
8.28
6.83
5.50
4.33
3.23
2.02
0.50
-1.53
-4.13
-7.18
-10.34
-13.15
-15.13
-15.89
-15.31
-13.50
-10.84
-7.86
-5.11
-3.04
-1.85
-1.49
-1.71
-2.18
-2.61
-2.87
-2.99
-3.16
-3.59
-4.46
-5.79
-7.49
-9.29
-10.90
-12.01
-12.46
-12.20
-11.36
-10.20
-8.96
-7.85
-6.95
-6.20
-5.49
-4.66
-3.60
-2.29
-0.77
0.79
2.19
3.26
3.87
4.05
3.97
3.93
4.27
5.21
6.84
8.97
11.27
13.35
14.92
15.82
16.07
15.78
15.11
14.22
13.24
12.27
11.36
10.53
9.76
9.01
8.25
7.47
6.69
5.95
5.38
5.12
5.26
5.78
6.53
7.14
7.25
6.63
5.31
3.57
1.85
0.52
-0.34
-0.92
-1.59
-2.70
-4.35
-6.43
-8.58
-10.43
-11.68
-12.23
-12.11
-11.44
-10.36
-8.97
-7.33
-5.50
-3.56
-1.61
0.24
1.91
3.32
4.45
5.26
5.68
5.66
5.20
4.42
3.50
2.66
2.06
1.71
1.55
1.45
1.33
1.13
0.91
0.64
0.34
-0.03
-0.51
-1.06
-1.59
-2.00
-2.26
-2.38
-2.51
-2.76
-3.15
-3.61
-3.89
-3.73
-2.92
-1.44
0.53
2.61
4.43
5.71
6.38
6.56
6.49
6.40
6.41
6.54
6.69
6.75
6.59
6.10
5.29
4.25
3.16
2.26
1.74
1.64
1.86
2.15
2.30
2.22
1.93
1.51
1.04
0.47
-0.30
-1.39
-2.83
-4.61
-6.63
-8.83
-11.08
-13.24
-15.02
-16.09
-16.11
-14.88
-12.43
-9.01
-5.06
-1.06
2.59
5.62
7.93
9.51
10.36
10.54
10.10
9.13
7.76
6.12
4.36
2.62
1.06
-0.20
-1.07
-1.52
-1.65
-1.60
-1.53
-1.54
-1.68
-1.94
-2.32
-2.86
-3.60
-4.58
-5.77
-7.12
-8.55
-10.03
-11.54
-13.03
-14.33
-15.16
-15.19
-14.10
-11.67
-7.92
-3.05
2.46
7.98
12.81
16.37
18.31
18.67
17.80
16.20
14.28
12.27
10.17
7.90
5.46
3.00
0.81
-0.84
-1.81
-2.16
-2.04
-1.68
-1.27
-0.96
-0.82
-0.99
-1.53
-2.45
-3.66
-4.98
-6.19
-7.15
-7.85
-8.43
-9.07
-9.85
-10.75
-11.54
-11.85
-11.31
-9.66
-6.87
-3.10
1.29
5.78
9.88
13.16
15.33
16.32
16.27
15.46
14.22
12.80
11.36
9.95
8.58
7.34
6.37
5.77
5.53
5.51
5.46
5.21
4.73
4.13
3.55
3.02
2.45
1.60
0.33
-1.36
-3.28
-5.12
-6.62
-7.68
-8.37
-8.93
-9.67
-10.84
-12.59
-14.85
-17.35
-19.70
-21.50
-22.50
-22.58
-21.81
-20.26
-17.96
-14.87
-10.93
-6.23
-1.00
4.37
9.36
13.51
16.54
18.32
18.93
18.53
17.36
15.70
13.86
12.18
10.93
10.25
10.07
10.16
10.24
10.12
9.77
9.26
8.68
8.01
7.22
6.29
5.27
4.30
3.53
3.01
2.67
2.33
1.84
1.11
0.19
-0.79
-1.71
-2.46
-3.03
-3.49
-3.96
-4.53
-5.21
-5.94
-6.61
-7.14
-7.48
-7.70
-7.85
-8.01
-8.21
-8.48
-8.81
-9.19
-9.62
-10.07
-10.49
-10.80
-10.92
-10.69
-9.94
-8.46
-6.10
-2.85
1.06
5.22
9.16
12.40
14.64
15.69
15.52
14.19
11.87
8.91
5.70
2.63
0.01
-2.12
-3.90
-5.62
-7.54
-9.82
-12.42
-15.20
-17.91
-20.31
-22.20
-23.41
-23.85
-23.45
-22.26
-20.37
-17.91
-15.03
-11.86
-8.42
-4.71
-0.70
3.58
7.89
11.88
15.13
17.37
18.51
18.68
18.16
17.21
15.99
14.61
13.15
11.74
10.47
9.36
8.29
6.99
5.21
2.81
-0.16
-3.45
-6.68
-9.39
-11.09
-11.42
-10.26
-7.77
-4.35
-0.56
3.14
6.47
9.39
11.89
13.97
15.44
16.09
15.80
14.70
13.17
11.70
10.78
10.65
11.26
12.30
13.29
13.79
13.57
12.60
11.07
9.25
7.35
5.44
3.51
1.45
-0.76
-3.09
-5.44
-7.69
-9.79
-11.70
-13.38
-14.73
-15.63
-15.98
-15.81
-15.28
-14.69
-14.29
-14.26
-14.56
-15.01
-15.32
-15.28
-14.78
-13.88
-12.75
-11.60
-10.61
-9.86
-9.36
-9.01
-8.62
-7.96
-6.79
-4.91
-2.22
1.18
5.01
8.86
12.25
14.83
16.42
17.07
17.01
16.54
15.88
15.17
14.41
13.52
12.41
11.09
9.63
8.23
7.08
6.33
5.96
5.79
5.58
5.10
4.28
3.18
1.96
0.78
-0.32
-1.36
-2.34
-3.26
-4.03
-4.55
-4.80
-4.86
-4.88
-4.98
-5.19
-5.41
-5.41
-5.04
-4.23
-3.16
-2.14
-1.50
-1.51
-2.21
-3.38
-4.64
-5.58
-5.80
-5.16
-3.67
-1.46
1.25
4.25
7.34
10.27
12.81
14.75
15.97
16.50
16.47
16.06
15.41
14.54
13.39
11.86
9.97
7.91
6.01
4.61
3.90
3.82
4.05
4.20
3.94
3.16
2.04
0.96
0.22
0.00
0.18
0.47
0.50
0.06
-0.84
-2.02
-3.24
-4.33
-5.27
-6.10
-6.88
-7.57
-8.15
-8.62
-9.16
-10.04
-11.47
-13.45
-15.73
-17.81
-19.21
-19.51
-18.61
-16.60
-13.77
-10.50
-7.25
-4.45
-2.39
-1.18
-0.69
-0.65
-0.80
-1.01
-1.30
-1.74
-2.36
-3.09
-3.78
-4.28
-4.49
-4.37
-3.92
-3.19
-2.20
-1.03
0.27
1.61
2.92
4.19
5.42
6.65
7.93
9.22
10.52
11.75
12.80
13.53
13.75
13.36
12.31
10.72
8.82
6.86
5.06
3.55
2.39
1.51
0.84
0.20
-0.54
-1.53
-2.81
-4.31
-5.80
-6.99
-7.58
-7.43
-6.54
-5.06
-3.27
-1.42
0.27
1.64
2.73
3.60
4.41
5.22
6.00
6.60
6.87
6.70
6.18
5.52
4.95
4.65
4.59
4.57
4.33
3.70
2.72
1.62
0.71
0.18
0.06
0.19
0.33
0.27
-0.02
-0.43
-0.78
-0.94
-0.95
-0.93
-1.04
-1.38
-1.92
-2.53
-3.11
-3.54
-3.77
-3.82
-3.79
-3.76
-3.84
-4.06
-4.36
-4.60
-4.55
-4.02
-2.97
-1.49
0.12
1.53
2.44
2.76
2.53
1.91
1.08
0.16
-0.75
-1.59
-2.33
-2.90
-3.29
-3.52
-3.62
-3.60
-3.47
-3.13
-2.52
-1.59
-0.41
0.87
2.10
3.16
3.97
4.50
4.67
4.42
3.65
2.36
0.62
-1.33
-3.20
-4.69
-5.59
-5.86
-5.59
-4.97
-4.18
-3.38
-2.63
-1.93
-1.29
-0.78
-0.50
-0.61
-1.23
-2.36
-3.77
-5.09
-5.87
-5.74
-4.51
-2.29
0.60
3.77
6.82
9.50
11.61
13.09
13.87
13.94
13.35
12.27
10.97
9.69
8.63
7.85
7.29
6.84
6.38
5.85
5.27
4.69
4.14
3.67
3.30
3.04
2.90
2.82
2.71
2.43
1.93
1.16
0.24
-0.74
-1.75
-2.77
-3.84
-4.97
-6.15
-7.38
-8.62
-9.87
-11.12
-12.34
-13.42
-14.29
-14.89
-15.28
-15.59
-15.99
-16.56
-17.23
-17.78
-17.87
-17.22
-15.67
-13.21
-10.08
-6.63
-3.29
-0.39
1.86
3.44
4.43
4.98
5.16
5.05
4.68
4.16
3.64
3.28
3.22
3.48
4.01
4.72
5.45
6.11
6.62
6.92
6.98
6.84
6.54
6.19
5.89
5.71
5.67
5.74
5.87
6.02
6.09
5.98
5.58
4.83
3.74
2.46
1.19
0.11
-0.65
-1.13
-1.47
-1.84
-2.42
-3.27
-4.34
-5.54
-6.71
-7.70
-8.45
-8.99
-9.41
-9.91
-10.62
-11.49
-12.30
-12.68
-12.30
-10.99
-8.85
-6.12
-3.10
-0.01
2.99
5.78
8.14
9.88
10.85
11.07
10.77
10.24
9.74
9.34
9.04
8.72
8.33
7.86
7.32
6.74
6.10
5.43
4.79
4.30
4.06
4.07
4.20
4.22
3.93
3.20
2.07
0.73
-0.62
-1.78
-2.67
-3.34
-3.93
-4.65
-5.62
-6.92
-8.46
-10.11
-11.65
-12.90
-13.79
-14.37
-14.80
-15.27
-15.94
-16.81
-17.82
-18.79
-19.61
-20.15
-20.35
-20.11
-19.28
-17.67
-15.17
-11.78
-7.67
-3.17
1.35
5.52
9.09
11.87
13.72
14.58
14.43
13.38
11.68
9.69
7.86
6.58
6.07
6.33
7.13
8.14
9.04
9.65
10.01
10.29
10.76
11.59
12.83
14.30
15.78
16.99
17.78
18.18
18.33
18.44
18.63
18.94
19.24
19.32
18.98
18.11
16.67
14.68
12.26
9.55
6.83
4.38
2.44
1.12
0.23
-0.62
-1.89
-3.85
-6.43
-9.14
-11.26
-12.11
-11.34
-8.95
-5.38
-1.23
2.85
6.36
8.99
10.64
11.32
11.14
10.30
9.03
7.60
6.22
5.02
3.98
3.00
1.99
0.90
-0.17
-1.04
-1.53
-1.52
-1.07
-0.35
0.43
1.11
1.63
2.01
2.25
2.36
2.30
2.05
1.65
1.14
0.55
-0.18
-1.14
-2.43
-4.03
-5.86
-7.77
-9.67
-11.53
-13.38
-15.34
-17.49
-19.93
-22.64
-25.56
-28.52
-31.23
-33.37
-34.57
-34.51
-32.99
-29.90
-25.34
-19.60
-13.21
-6.88
-1.38
2.70
5.09
5.84
5.34
4.03
2.32
0.52
-1.10
-2.25
-2.55
-1.59
0.81
4.56
9.16
13.89
18.02
21.04
22.79
23.45
23.41
22.99
22.41
21.67
20.74
19.55
18.12
16.59
15.11
13.84
12.79
11.89
10.97
9.86
8.50
7.00
5.50
4.13
2.85
1.47
-0.23
-2.36
-4.74
-6.96
-8.46
-8.81
-7.80
-5.47
-2.11
1.94
6.30
10.62
14.53
17.77
20.13
21.49
21.86
21.27
19.83
17.67
15.05
12.26
9.52
7.00
4.66
2.43
0.24
-1.85
-3.73
-5.31
-6.61
-7.74
-8.85
-9.97
-11.04
-11.89
-12.39
-12.50
-12.28
-11.83
-11.23
-10.55
-9.85
-9.24
-8.89
-8.91
-9.37
-10.19
-11.19
-12.16
-12.97
-13.63
-14.25
-15.00
-15.98
-17.16
-18.35
-19.24
-19.44
-18.56
-16.36
-12.77
-8.03
-2.63
2.81
7.63
11.34
13.74
14.90
15.06
14.56
13.67
12.59
11.42
10.24
9.03
7.78
6.43
4.97
3.43
1.92
0.60
-0.33
-0.76
-0.72
-0.32
0.23
0.70
0.93
0.83
0.46
-0.02
-0.43
-0.61
-0.51
-0.16
0.29
0.68
0.81
0.56
-0.08
-1.04
-2.22
-3.48
-4.70
-5.85
-6.96
-8.09
-9.36
-10.86
-12.57
-14.28
-15.64
-16.16
-15.37
-12.98
-8.99
-3.76
2.06
7.70
12.48
15.98
18.05
18.92
18.92
18.41
17.65
16.73
15.63
14.27
12.64
10.76
8.71
6.63
4.63
2.86
1.40
0.33
-0.37
-0.76
-1.00
-1.25
-1.62
-2.18
-2.93
-3.76
-4.51
-5.00
-5.06
-4.64
-3.88
-3.10
-2.63
-2.74
-3.44
-4.54
-5.70
-6.68
-7.43
-8.06
-8.77
-9.69
-10.83
-12.06
-13.27
-14.39
-15.43
-16.48
-17.47
-18.22
-18.41
-17.68
-15.84
-12.87
-9.00
-4.63
-0.18
3.97
7.52
10.25
12.04
12.88
12.86
12.19
11.12
9.89
8.66
7.53
6.54
5.71
5.10
4.69
4.45
4.35
4.35
4.48
4.77
5.23
5.74
6.07
5.97
5.26
3.98
2.34
0.66
-0.75
-1.74
-2.36
-2.74
-3.05
-3.37
-3.70
-3.99
-4.27
-4.64
-5.26
-6.19
-7.31
-8.43
-9.38
-10.11
-10.78
-11.62
-12.66
-13.68
-14.25
-13.84
-12.13
-9.10
-5.04
-0.45
4.08
8.10
11.25
13.36
14.42
14.57
14.07
13.19
12.11
10.97
9.81
8.68
7.61
6.72
6.07
5.73
5.71
5.99
6.51
7.16
7.76
8.11
8.07
7.54
6.58
5.35
4.05
2.87
1.90
1.10
0.36
-0.44
-1.44
-2.67
-4.03
-5.40
-6.60
-7.53
-8.17
-8.63
-9.00
-9.35
-9.68
-9.88
-9.90
-9.75
-9.53
-9.40
-9.51
-9.92
-10.64
-11.58
-12.55
-13.28
-13.42
-12.64
-10.74
-7.73
-3.89
0.29
4.33
7.83
10.57
12.49
13.61
13.98
13.71
12.99
12.07
11.24
10.66
10.31
10.03
9.60
8.88
7.93
6.98
6.23
5.83
5.74
5.79
5.77
5.54
5.10
4.57
4.04
3.59
3.25
3.06
3.04
3.22
3.58
3.97
4.15
3.87
3.02
1.69
0.16
-1.24
-2.32
-3.08
-3.74
-4.52
-5.56
-6.84
-8.20
-9.46
-10.58
-11.62
-12.69
-13.91
-15.26
-16.58
-17.60
-18.04
-17.64
-16.23
-13.80
-10.48
-6.57
-2.41
1.57
5.02
7.66
9.36
10.13
10.14
9.64
8.87
8.04
7.26
6.59
5.98
5.41
4.86
4.31
3.81
3.35
2.99
2.72
2.52
2.34
2.12
1.79
1.28
0.60
-0.25
-1.20
-2.11
-2.82
-3.21
-3.20
-2.85
-2.34
-1.90
-1.68
-1.67
-1.76
-1.75
-1.56
-1.23
-0.92
-0.81
-1.00
-1.56
-2.45
-3.68
-5.19
-6.93
-8.68
-10.09
-10.71
-10.15
-8.21
-5.00
-0.94
3.34
7.23
10.25
12.23
13.23
13.54
13.47
13.29
13.11
12.90
12.57
11.97
11.01
9.64
7.91
5.95
3.92
1.97
0.17
-1.52
-3.25
-5.15
-7.31
-9.74
-12.34
-15.01
-17.71
-20.42
-23.22
-26.11
-29.11
-32.15
-35.13
-37.93
-40.39
-42.39
-43.85
-44.80
-45.36
-45.75
-46.20
-46.87
-47.82
-49.00
-50.27
-51.40
-52.14
-52.24
-51.50
-49.82
-47.18
-43.59
-39.06
-33.52
-26.98
-19.63
-11.80
-4.04
3.13
9.33
14.46
18.58
21.88
24.52
26.61
28.21
29.37
30.09
30.31
29.95
28.91
27.17
24.77
21.93
18.88
15.95
13.43
11.59
10.62
10.54
11.18
12.22
13.20
13.74
13.66
12.99
11.98
10.96
10.18
9.80
9.79
10.05
10.45
10.87
11.19
11.29
11.08
10.48
9.52
8.33
7.12
6.12
5.51
5.42
5.89
6.91
8.35
10.05
11.78
13.28
14.38
14.96
15.07
14.79
14.31
13.74
13.21
12.77
12.51
12.46
12.62
12.92
13.22
13.40
13.36
13.13
12.80
12.49
12.34
12.41
12.72
13.22
13.83
14.41
14.91
15.24
15.39
15.39
15.30
15.17
14.96
14.67
14.25
13.67
12.94
12.05
11.01
9.82
8.50
7.07
5.53
3.92
2.30
0.80
-0.41
-1.11
-1.24
-0.81
0.00
1.03
2.13
3.25
4.39
5.54
6.56
7.29
7.57
7.34
6.69
5.75
4.69
3.68
2.81
2.11
1.60
1.26
1.06
0.97
0.98
1.07
1.23
1.48
1.75
1.96
1.99
1.75
1.16
0.24
-0.95
-2.30
-3.71
-5.11
-6.50
-7.93
-9.43
-10.92
-12.21
-12.96
-12.85
-11.72
-9.62
-6.82
-3.68
-0.56
2.36
4.98
7.30
9.28
10.87
11.99
12.60
12.76
12.59
12.23
11.78
11.24
10.57
9.71
8.67
7.54
6.49
5.67
5.11
4.72
4.27
3.53
2.34
0.68
-1.39
-3.74
-6.19
-8.60
-10.80
-12.66
-14.16
-15.43
-16.68
-18.17
-20.02
-22.20
-24.46
-26.44
-27.68
-27.75
-26.34
-23.29
-18.76
-13.16
-7.11
-1.27
3.87
8.07
11.31
13.68
15.25
16.10
16.28
15.95
15.30
14.55
13.84
13.14
12.42
11.63
10.82
10.04
9.33
8.63
7.84
6.91
5.88
4.88
3.98
3.13
2.17
0.90
-0.73
-2.57
-4.41
-6.04
-7.41
-8.67
-10.04
-11.74
-13.88
-16.43
-19.29
-22.21
-24.80
-26.51
-26.73
-24.95
-20.96
-15.00
-7.73
-0.01
7.32
13.71
18.88
22.78
25.45
26.95
27.34
26.77
25.56
24.09
22.78
21.89
21.42
21.18
20.82
20.11
18.93
17.37
15.65
13.99
12.53
11.29
10.14
8.90
7.43
5.69
3.80
2.00
0.57
-0.32
-0.72
-0.89
-1.23
-2.12
-3.75
-6.05
-8.77
-11.51
-14.00
-16.10
-17.88
-19.50
-21.11
-22.82
-24.61
-26.41
-28.10
-29.47
-30.19
-29.73
-27.52
-23.09
-16.41
-7.99
1.13
9.73
16.82
22.01
25.53
28.01
30.18
32.51
35.12
37.88
40.66
43.38
46.09
48.85
51.59
54.08
56.05
57.37
58.09
58.49
58.83
59.22
59.41
58.87
56.99
53.30
47.74
40.68
32.80
24.94
17.78
11.69
6.69
2.45
-1.45
-5.38
-9.44
-13.58
-17.52
-21.03
-24.03
-26.53
-28.66
-30.49
-31.97
-33.01
-33.55
-33.65
-33.54
-33.53
-33.95
-35.01
-36.79
-39.17
-41.87
-44.54
-46.77
-48.22
-48.67
-48.04
-46.42
-44.01
-41.08
-37.89
-34.65
-31.54
-28.66
-26.04
-23.67
-21.51
-19.44
-17.36
-15.23
-13.04
-10.84
-8.70
-6.67
-4.73
-2.81
-0.80
1.34
3.60
5.84
7.85
9.36
10.19
10.26
9.70
8.74
7.67
6.68
5.86
5.16
4.55
3.97
3.37
2.78
2.15
1.48
0.75
0.03
-0.67
-1.27
-1.80
-2.31
-2.89
-3.58
-4.37
-5.19
-5.96
-6.65
-7.27
-7.90
-8.61
-9.43
-10.34
-11.22
-11.85
-11.92
-11.15
-9.31
-6.33
-2.44
1.98
6.40
10.36
13.51
15.73
17.02
17.41
16.93
15.64
13.68
11.32
8.93
6.84
5.26
4.17
3.41
2.76
2.13
1.56
1.12
0.91
0.91
0.98
0.98
0.80
0.52
0.25
0.13
0.26
0.56
0.95
1.32
1.59
1.75
1.82
1.79
1.65
1.38
0.98
0.47
-0.07
-0.68
-1.42
-2.41
-3.73
-5.35
-7.11
-8.83
-10.35
-11.61
-12.69
-13.67
-14.54
-15.17
-15.33
-14.84
-13.70
-12.11
-10.31
-8.51
-6.76
-5.02
-3.24
-1.51
0.02
1.14
1.75
1.92
1.78
1.50
1.15
0.79
0.44
0.15
0.03
0.12
0.39
0.71
0.94
1.00
0.88
0.63
0.31
-0.09
-0.52
-0.93
-1.23
-1.33
-1.19
-0.87
-0.53
-0.37
-0.52
-1.05
-1.85
-2.81
-3.79
-4.70
-5.56
-6.42
-7.36
-8.41
-9.54
-10.66
-11.63
-12.27
-12.41
-11.86
-10.51
-8.32
-5.46
-2.23
0.97
3.77
5.97
7.53
8.59
9.28
9.71
9.93
9.92
9.70
9.27
8.69
8.03
7.38
6.83
6.44
6.21
6.08
5.93
5.74
5.53
5.40
5.43
5.58
5.70
5.60
5.13
4.30
3.26
2.17
1.19
0.40
-0.19
-0.60
-0.87
-1.09
-1.38
-1.82
-2.46
-3.19
-3.81
-4.17
-4.19
-3.94
-3.62
-3.43
-3.59
-4.15
-5.13
-6.45
-7.98
-9.53
-10.84
-11.65
-11.78
-11.24
-10.20
-8.98
-7.92
-7.25
-7.01
-7.12
-7.35
-7.48
-7.36
-6.97
-6.36
-5.60
-4.68
-3.54
-2.10
-0.31
1.72
3.82
5.79
7.51
8.99
10.28
11.42
12.37
13.00
13.25
13.14
12.84
12.55
12.41
12.43
12.52
12.58
12.53
12.36
12.12
11.80
11.34
10.69
9.79
8.65
7.28
5.68
3.81
1.64
-0.85
-3.56
-6.31
-8.83
-10.86
-12.17
-12.63
-12.28
-11.25
-9.83
-8.28
-6.83
-5.59
-4.56
-3.64
-2.79
-2.03
-1.42
-1.07
-1.06
-1.34
-1.77
-2.17
-2.33
-2.08
-1.33
-0.05
1.62
3.51
5.31
6.78
7.69
7.97
7.73
7.13
6.40
5.68
4.93
4.05
2.83
1.24
-0.61
-2.46
-3.99
-4.98
-5.42
-5.52
-5.63
-6.10
-7.11
-8.61
-10.34
-11.99
-13.29
-14.11
-14.46
-14.40
-13.93
-12.96
-11.40
-9.26
-6.74
-4.18
-1.92
-0.13
1.22
2.31
3.30
4.23
4.99
5.43
5.41
4.92
4.09
3.06
2.03
1.15
0.54
0.29
0.38
0.70
1.09
1.41
1.54
1.44
1.12
0.64
0.06
-0.49
-0.92
-1.15
-1.21
-1.17
-1.17
-1.31
-1.62
-2.04
-2.42
-2.71
-2.94
-3.22
-3.71
-4.52
-5.58
-6.69
-7.49
-7.64
-6.89
-5.20
-2.77
0.04
2.83
5.29
7.25
8.64
9.46
9.70
9.36
8.48
7.13
5.42
3.48
1.42
-0.66
-2.75
-4.77
-6.68
-8.31
-9.56
-10.32
-10.58
-10.44
-10.13
-9.87
-9.81
-9.92
-10.04
-9.91
-9.31
-8.18
-6.63
-4.92
-3.38
-2.22
-1.54
-1.27
-1.26
-1.38
-1.55
-1.86
-2.43
-3.36
-4.59
-5.94
-7.15
-7.92
-8.07
-7.52
-6.29
-4.45
-2.07
0.74
3.78
6.78
9.41
11.44
12.82
13.70
14.33
14.95
15.65
16.38
17.00
17.36
17.37
16.98
16.25
15.26
14.12
12.97
11.89
10.92
10.06
9.24
8.43
7.61
6.80
5.97
5.11
4.15
3.04
1.83
0.60
-0.56
-1.57
-2.43
-3.21
-3.98
-4.81
-5.74
-6.76
-7.82
-8.87
-9.86
-10.78
-11.60
-12.27
-12.67
-12.61
-11.79
-10.03
-7.32
-3.87
-0.14
3.36
6.28
8.43
9.87
10.76
11.20
11.23
10.85
10.03
8.83
7.37
5.77
4.11
2.45
0.87
-0.53
-1.60
-2.22
-2.37
-2.21
-1.96
-1.86
-2.04
-2.46
-3.00
-3.49
-3.81
-3.92
-3.88
-3.76
-3.64
-3.61
-3.73
-4.07
-4.63
-5.37
-6.11
-6.68
-6.96
-6.97
-6.93
-7.11
-7.66
-8.52
-9.33
-9.56
-8.75
-6.70
-3.58
0.12
3.79
6.93
9.28
10.80
11.65
11.96
11.84
11.35
10.52
9.47
8.34
7.29
6.42
5.74
5.14
4.52
3.82
3.06
2.37
1.85
1.53
1.39
1.34
1.30
1.22
1.13
1.07
1.10
1.23
1.41
1.51
1.40
0.98
0.23
-0.81
-2.11
-3.63
-5.36
-7.26
-9.28
-11.29
-13.15
-14.78
-16.20
-17.57
-19.18
-21.32
-24.26
-28.18
-33.14
-39.05
-45.75
-53.05
-60.71
-68.61
-76.66
-84.88
-93.24
-101.62
-109.76
-117.28
-123.69
-128.37
-130.76
-130.29
-126.67
-119.87
-110.24
-98.50
-85.64
-72.79
-60.92
-50.70
-42.36
-35.76
-30.42
-25.83
-21.52
-17.22
-12.84
-8.36
-3.74
1.10
6.32
12.00
18.07
24.28
30.28
35.67
40.14
43.42
45.30
45.58
44.29
41.77
38.87
36.89
37.25
41.04
48.64
59.53
72.50
86.02
98.74
109.78
118.76
125.63
130.51
133.44
134.55
134.01
132.24
129.79
127.23
124.89
122.63
119.92
116.00
110.29
102.61
93.34
83.19
72.87
62.84
53.11
43.44
33.49
23.11
12.46
1.97
-7.89
-16.74
-24.59
-31.84
-39.13
-47.14
-56.14
-65.92
-75.70
-84.56
-91.80
-97.21
-101.17
-104.27
-107.06
-109.67
-111.87
-113.12
-112.78
-110.10
-104.20
-94.10
-78.96
-58.37
-32.78
-3.51
27.34
57.34
84.20
106.11
122.03
131.64
135.31
133.89
128.46
120.05
109.44
97.14
83.48
68.79
53.64
38.73
24.79
12.41
1.96
-6.37
-12.48
-16.34
-18.00
-17.82
-16.53
-15.24
-15.17
-17.34
-22.17
-29.39
-38.10
-47.17
-55.64
-62.98
-69.24
-74.84
-80.38
-86.31
-92.82
-99.71
-106.30
-111.54
-114.10
-112.60
-105.93
-93.60
-75.96
-54.31
-30.60
-7.13
14.09
31.72
45.28
55.12
62.01
66.82
70.21
72.53
73.89
74.33
73.97
73.07
72.02
71.28
71.27
72.35
74.64
77.99
81.87
85.48
87.88
88.19
85.90
80.98
73.90
65.59
57.23
49.99
44.65
41.40
39.76
38.74
37.14
34.06
29.03
22.14
13.84
4.60
-5.25
-15.64
-26.52
-37.81
-49.22
-60.42
-71.23
-81.81
-92.74
-104.78
-118.63
-134.50
-151.94
-169.62
-185.55
-197.35
-202.82
-200.51
-190.15
-172.80
-150.64
-126.43
-102.81
-81.80
-64.47
-50.99
-40.83
-33.07
-26.60
-20.32
-13.27
-4.85
4.99
15.69
26.08
34.76
40.41
42.20
39.92
33.96
25.15
14.56
3.42
-6.94
-15.11
-19.86
-20.43
-16.95
-10.54
-3.17
2.83
5.58
3.99
-1.96
-11.53
-23.59
-37.07
-51.20
-65.47
-79.65
-93.71
-107.86
-122.44
-137.59
-152.85
-166.85
-177.39
-182.00
-178.72
-166.73
-146.53
-119.54
-87.55
-52.20
-15.06
22.22
57.63
88.94
114.22
132.41
143.74
149.66
152.30
153.90
156.13
159.98
165.72
173.21
182.16
192.34
203.58
215.70
228.24
240.38
250.91
258.46
261.86
260.52
254.59
244.82
232.24
217.67
201.56
184.01
164.97
144.66
123.69
103.00
83.57
66.16
50.96
37.55
24.90
11.55
-4.13
-23.37
-46.37
-71.84
-96.82
-117.21
-128.91
-129.08
-117.19
-95.27
-67.23
-37.74
-10.88
10.70
25.95
35.14
39.27
39.57
37.20
33.20
28.51
23.99
20.31
17.91
16.98
17.42
18.98
21.49
24.92
29.39
35.07
42.00
49.94
58.32
66.35
73.18
78.08
80.59
80.55
78.10
73.59
67.44
60.10
51.99
43.44
34.71
25.89
16.89
7.41
-2.93
-14.34
-26.51
-38.50
-48.67
-55.15
-56.39
-51.75
-41.70
-27.74
-11.80
4.22
18.93
31.50
41.56
48.94
53.46
54.98
53.46
49.13
42.46
34.17
25.03
15.80
7.15
-0.36
-6.33
-10.59
-13.21
-14.57
-15.22
-15.76
-16.68
-18.25
-20.61
-23.76
-27.68
-32.31
-37.49
-42.93
-48.21
-52.86
-56.44
-58.69
-59.69
-59.86
-59.98
-61.01
-63.86
-69.15
-76.82
-86.00
-94.93
-101.28
-102.73
-97.67
-85.80
-68.35
-47.83
-27.30
-9.55
3.68
11.84
15.46
15.64
13.61
10.36
6.61
2.86
-0.61
-3.70
-6.41
-8.85
-11.05
-12.87
-14.04
-14.18
-13.06
-10.64
-7.14
-2.98
1.33
5.28
8.37
10.12
10.11
8.08
4.03
-1.63
-8.15
-14.60
-20.16
-24.32
-27.07
-28.84
-30.29
-32.17
-35.12
-39.54
-45.49
-52.40
-59.07
-63.71
-64.27
-59.21
-48.06
-31.75
-12.45
7.21
24.86
39.07
49.40
56.08
59.58
60.24
58.26
53.86
47.58
40.28
33.00
26.66
21.78
18.44
16.29
14.84
13.63
12.42
11.14
9.78
8.31
6.51
4.04
0.59
-3.98
-9.54
-15.68
-21.77
-27.17
-31.35
-34.11
-35.56
-36.21
-36.83
-38.38
-41.67
-47.20
-54.95
-64.16
-73.31
-80.30
-82.82
-78.95
-67.77
-49.85
-27.20
-2.87
19.96
38.69
51.97
59.63
62.42
61.51
58.07
53.13
47.57
42.12
37.39
33.66
30.95
28.93
27.12
25.01
22.26
18.74
14.53
9.85
4.95
0.14
-4.32
-8.18
-11.23
-13.33
-14.46
-14.79
-14.60
-14.35
-14.47
-15.32
-17.09
-19.79
-23.18
-26.92
-30.55
-33.69
-36.15
-38.00
-39.54
-41.13
-42.93
-44.71
-45.83
-45.33
-42.23
-35.91
-26.28
-13.97
-0.18
13.48
25.45
34.56
40.25
42.62
42.22
39.82
36.09
31.53
26.43
20.94
15.12
9.02
2.71
-3.60
-9.52
-14.49
-17.96
-19.63
-19.52
-18.01
-15.63
-12.89
-10.14
-7.67
-5.72
-4.45
-3.73
-3.03
-1.61
0.94
4.09
6.19
4.92
-1.68
-14.11
-30.88
-48.96
-64.96
-76.43
-82.63
-84.24
-82.50
-78.36
-72.00
-63.25
-52.31
-40.35
-29.39
-21.65
-18.63
-20.59
-26.52
-34.88
-44.24
-53.67
-62.64
-70.56
-76.40
-78.80
-76.50
-69.04
-57.04
-42.20
-26.73
-12.70
-1.40
6.93
12.97
17.97
23.12
29.02
35.40
41.24
45.17
46.16
43.95
39.20
33.11
26.90
21.30
16.26
11.11
4.91
-3.05
-12.85
-23.60
-33.50
-40.11
-41.04
-34.57
-20.44
0.07
24.35
49.22
71.72
89.72
102.20
109.11
111.10
109.18
104.50
98.14
90.96
83.50
76.01
68.52
60.96
53.36
45.87
38.78
32.42
27.06
22.90
19.97
18.14
17.10
16.38
15.43
13.79
11.14
7.47
3.02
-1.79
-6.57
-11.00
-14.95
-18.40
-21.40
-24.08
-26.64
-29.41
-32.79
-37.06
-42.23
-47.86
-53.00
-56.44
-56.96
-53.80
-46.77
-36.39
-23.66
-9.88
3.59
15.56
25.17
31.96
35.82
37.03
36.01
33.32
29.50
25.09
20.57
16.38
12.82
9.97
7.65
5.56
3.34
0.83
-1.90
-4.54
-6.79
-8.48
-9.71
-10.81
-12.14
-13.91
-16.02
-18.14
-19.79
-20.68
-20.81
-20.55
-20.56
-21.58
-24.18
-28.56
-34.43
-41.02
-47.13
-51.32
-52.22
-48.78
-40.58
-28.02
-12.32
4.69
20.99
34.80
44.95
50.98
53.09
51.90
48.21
42.82
36.46
29.77
23.27
17.33
12.06
7.33
2.82
-1.80
-6.71
-11.84
-16.95
-21.80
-26.33
-30.74
-35.44
-40.78
-46.97
-53.91
-61.33
-69.02
-76.94
-85.31
-94.50
-104.91
-116.83
-130.41
-145.69
-162.53
-180.68
-199.75
-219.24
-238.59
-257.17
-274.28
-289.08
-300.54
-307.44
-308.58
-303.03
-290.47
-271.25
-246.42
-217.40
-185.57
-152.05
-117.52
-82.22
-46.11
-9.24
27.77
63.40
95.26
120.64
137.50
145.51
146.26
142.78
138.19
134.46
131.80
129.06
124.75
118.06
109.27
99.38
89.40
79.71
69.92
59.33
47.35
33.88
19.46
5.31
-6.89
-15.11
-17.29
-11.70
2.69
25.84
56.57
92.57
130.83
168.00
201.04
227.79
247.22
259.64
266.33
269.14
269.89
270.09
270.78
272.58
275.59
279.25
282.38
283.60
281.99
277.72
271.82
265.33
258.20
248.68
234.04
212.13
182.97
149.25
115.30
85.02
60.08
39.36
19.92
-1.16
-25.24
-51.69
-78.44
-103.03
-123.26
-137.37
-143.86
-141.39
-129.02
-106.71
-75.77
-38.93
0.13
37.61
70.47
96.98
116.75
130.40
138.97
143.48
144.63
142.91
138.74
132.66
125.40
117.89
110.98
105.24
100.79
97.16
93.43
88.36
80.77
69.73
54.80
36.16
14.59
-8.62
-31.97
-53.95
-73.53
-90.26
-104.35
-116.47
-127.37
-137.56
-147.09
-155.64
-162.63
-167.53
-170.03
-170.08
-167.93
-164.04
-159.00
-153.44
-147.88
-142.67
-137.92
-133.64
-129.78
-126.31
-123.20
-120.38
-117.63
-114.57
-110.72
-105.51
-98.35
-88.67
-76.03
-60.23
-41.40
-20.21
2.28
24.75
45.92
64.73
80.55
93.11
102.37
108.40
111.23
110.81
106.98
99.59
88.60
74.28
57.44
39.58
22.78
9.43
1.64
0.58
6.01
16.23
28.47
39.65
47.25
49.88
47.37
40.38
29.95
16.96
2.00
-14.59
-32.51
-51.39
-70.67
-89.81
-108.29
-125.70
-141.75
-156.26
-169.05
-180.03
-189.21
-196.70
-202.68
-207.37
-210.96
-213.62
-215.49
-216.69
-217.27
-217.17
-216.27
-214.60
-212.53
-210.82
-210.43
-211.94
-214.89
-217.44
-216.64
-209.16
-192.39
-165.19
-128.28
-84.01
-35.84
12.29
56.55
93.76
121.91
140.30
149.53
151.07
146.73
138.21
126.86
113.88
100.48
88.07
78.21
72.46
72.21
78.53
91.98
112.38
138.62
168.55
199.28
227.66
250.98
267.45
276.42
278.22
273.76
264.14
250.37
233.19
213.10
190.36
165.16
137.56
107.74
76.10
43.37
10.71
-20.42
-48.41
-71.81
-89.48
-100.70
-105.17
-102.98
-94.56
-80.62
-62.09
-40.10
-15.79
9.70
35.30
59.93
82.53
102.07
117.70
128.94
135.73
138.44
137.70
134.27
128.81
121.85
113.73
104.63
94.67
83.94
72.63
61.03
49.47
38.23
27.52
17.53
8.37
0.20
-6.88
-12.94
-18.25
-23.27
-28.50
-34.26
-40.57
-47.07
-53.22
-58.50
-62.51
-64.99
-65.81
-64.90
-62.26
-58.08
-52.77
-46.96
-41.35
-36.58
-32.98
-30.59
-29.17
-28.43
-28.16
-28.33
-29.03
-30.37
-32.29
-34.57
-36.83
-38.72
-39.95
-40.41
-40.12
-39.14
-37.60
-35.61
-33.32
-30.93
-28.71
-26.94
-25.85
-25.55
-25.99
-26.95
-28.16
-29.36
-30.36
-31.15
-31.81
-32.51
-33.39
-34.54
-36.04
-37.94
-40.22
-42.77
-45.21
-46.95
-47.23
-45.34
-40.84
-33.78
-24.72
-14.67
-4.80
3.83
10.57
15.23
18.04
19.44
19.87
19.60
18.72
17.28
15.32
12.96
10.35
7.65
4.94
2.24
-0.48
-3.23
-5.98
-8.62
-11.04
-13.14
-14.89
-16.41
-17.87
-19.42
-21.10
-22.78
-24.17
-25.00
-25.13
-24.69
-23.97
-23.35
-23.07
-23.26
-23.85
-24.75
-25.91
-27.33
-28.97
-30.70
-32.16
-32.82
-32.07
-29.47
-24.86
-18.47
-10.87
-2.81
4.93
11.71
17.10
20.85
22.93
23.48
22.82
21.39
19.67
17.99
16.50
15.10
13.57
11.71
9.49
7.08
4.71
2.64
1.03
-0.11
-0.84
-1.29
-1.59
-1.93
-2.45
-3.24
-4.28
-5.50
-6.74
-7.92
-9.05
-10.15
-11.28
-12.44
-13.57
-14.61
-15.55
-16.47
-17.47
-18.70
-20.23
-22.01
-23.83
-25.33
-26.04
-25.44
-23.13
-18.98
-13.26
-6.54
0.39
6.75
11.96
15.73
18.06
19.08
19.06
18.28
17.03
15.54
14.01
12.57
11.26
10.09
9.05
8.07
7.16
6.30
5.52
4.84
4.25
3.66
2.98
2.10
0.91
-0.61
-2.40
-4.42
-6.58
-8.81
-11.03
-13.10
-14.85
-16.03
-16.49
-16.23
-15.43
-14.45
-13.66
-13.38
-13.76
-14.72
-16.06
-17.48
-18.63
-19.21
-18.93
-17.65
-15.32
-12.07
-8.14
-3.84
0.50
4.61
8.25
11.24
13.43
14.74
15.20
14.92
14.05
12.79
11.32
9.78
8.35
7.19
6.44
6.18
6.32
6.65
6.95
6.97
6.62
5.92
5.02
4.09
3.24
2.50
1.78
0.91
-0.23
-1.75
-3.60
-5.66
-7.74
-9.67
-11.31
-12.59
-13.52
-14.16
-14.70
-15.31
-16.21
-17.46
-18.96
-20.41
-21.37
-21.46
-20.41
-18.16
-14.89
-10.92
-6.66
-2.50
1.24
4.40
6.93
8.90
10.40
11.47
12.10
12.23
11.83
10.97
9.78
8.54
7.44
6.60
6.02
5.57
5.11
4.57
3.91
3.18
2.41
1.61
0.76
-0.13
-1.09
-2.06
-3.01
-3.93
-4.84
-5.78
-6.78
-7.84
-8.90
-9.88
-10.70
-11.35
-11.84
-12.29
-12.83
-13.59
-14.54
-15.51
-16.21
-16.25
-15.29
-13.18
-9.97
-5.85
-1.13
3.77
8.42
12.37
15.23
16.80
17.13
16.56
15.50
14.28
13.02
11.66
10.05
8.15
6.16
4.40
3.14
2.50
2.34
2.37
2.28
1.90
1.22
0.35
-0.55
-1.35
-2.03
-2.62
-3.24
-3.98
-4.87
-5.88
-6.93
-7.96
-8.99
-10.10
-11.47
-13.17
-15.16
-17.19
-18.91
-19.87
-19.72
-18.23
-15.38
-11.31
-6.38
-1.03
4.20
8.84
12.54
15.13
16.57
16.96
16.45
15.24
13.56
11.70
9.94
8.49
7.35
6.40
5.43
4.25
2.84
1.38
0.10
-0.81
-1.33
-1.59
-1.77
-1.99
-2.22
-2.45
-2.60
-2.73
-2.95
-3.35
-3.96
-4.73
-5.60
-6.57
-7.74
-9.24
-11.13
-13.24
-15.19
-16.48
-16.60
-15.26
-12.45
-8.45
-3.76
1.09
5.61
9.46
12.47
14.57
15.78
16.19
15.86
14.90
13.39
11.50
9.42
7.35
5.54
4.17
3.33
3.02
3.14
3.53
4.03
4.48
4.70
4.56
3.96
2.92
1.51
-0.11
-1.78
-3.40
-4.90
-6.26
-7.46
-8.53
-9.51
-10.54
-11.72
-13.11
-14.72
-16.39
-17.93
-19.06
-19.49
-18.93
-17.11
-13.94
-9.55
-4.34
1.13
6.32
10.79
14.33
16.93
18.66
19.62
19.91
19.62
18.89
17.88
16.70
15.40
13.97
12.39
10.69
8.95
7.32
5.90
4.75
3.83
3.00
2.15
1.17
0.04
-1.23
-2.60
-4.02
-5.41
-6.68
-7.75
-8.57
-9.15
-9.59
-10.04
-10.58
-11.25
-11.98
-12.68
-13.31
-13.88
-14.43
-14.98
-15.38
-15.36
-14.61
-12.82
-9.84
-5.76
-0.87
4.39
9.56
14.21
18.05
20.91
22.67
23.27
22.74
21.21
18.99
16.47
14.04
12.00
10.36
9.06
7.89
6.76
5.65
4.68
3.91
3.36
2.94
2.48
1.84
0.92
-0.26
-1.60
-2.95
-4.16
-5.09
-5.70
-6.04
-6.17
-6.21
-6.28
-6.49
-6.95
-7.75
-8.93
-10.39
-11.96
-13.41
-14.55
-15.31
-15.71
-15.76
-15.41
-14.50
-12.79
-10.08
-6.40
-2.06
2.43
6.52
9.77
11.99
13.24
13.75
13.80
13.66
13.51
13.44
13.44
13.41
13.20
12.66
11.71
10.33
8.61
6.69
4.70
2.78
1.00
-0.65
-2.21
-3.81
-5.55
-7.55
-9.80
-12.17
-14.45
-16.35
-17.63
-18.13
-17.85
-16.99
-15.84
-14.87
-14.51
-15.01
-16.42
-18.55
-21.06
-23.55
-25.58
-26.71
-26.41
-24.19
-19.74
-13.12
-4.86
4.09
12.60
19.71
24.90
28.07
29.50
29.61
28.78
27.28
25.36
23.27
21.29
19.73
18.74
18.35
18.34
18.39
18.21
17.64
16.72
15.63
14.55
13.54
12.50
11.18
9.31
6.66
3.22
-0.91
-5.46
-10.08
-14.42
-18.19
-21.29
-23.91
-26.51
-29.72
-34.03
-39.62
-46.17
-52.97
-59.08
-63.59
-65.77
-65.19
-61.68
-55.35
-46.63
-36.32
-25.43
-15.02
-5.98
1.17
6.32
9.64
11.40
11.83
11.08
9.28
6.69
3.69
0.80
-1.42
-2.53
-2.34
-0.95
1.21
3.57
5.52
6.66
6.82
6.12
4.75
2.86
0.46
-2.50
-6.03
-10.02
-14.19
-18.20
-21.78
-24.86
-27.59
-30.34
-33.56
-37.65
-42.88
-49.23
-56.30
-63.26
-68.92
-71.89
-70.93
-65.31
-55.05
-41.04
-24.78
-8.05
7.47
20.56
30.47
36.95
40.05
40.12
37.77
33.74
28.87
23.85
19.14
14.87
11.00
7.43
4.18
1.36
-0.93
-2.75
-4.40
-6.34
-9.07
-12.98
-18.26
-24.90
-32.72
-41.54
-51.17
-61.50
-72.36
-83.45
-94.21
-103.97
-112.11
-118.28
-122.54
-125.34
-127.27
-128.94
-130.76
-133.03
-135.95
-139.56
-143.45
-146.48
-146.71
-141.78
-129.66
-109.37
-81.35
-47.12
-8.45
33.33
77.55
123.60
170.18
214.73
253.73
283.81
303.06
311.73
312.03
307.10
299.77
291.70
283.26
274.06
263.64
251.84
238.87
224.97
210.18
194.27
176.89
157.98
137.88
117.47
97.80
79.78
63.76
49.50
36.24
23.14
9.64
-4.35
-18.46
-32.14
-45.04
-57.23
-69.13
-81.30
-93.99
-106.84
-118.77
-128.21
-133.59
-133.74
-128.27
-117.60
-102.74
-84.99
-65.68
-45.97
-26.82
-9.02
6.84
20.27
31.05
39.16
44.78
48.29
50.17
50.92
50.95
50.58
50.00
49.27
48.34
47.07
45.23
42.60
38.97
34.26
28.54
21.90
14.45
6.18
-2.95
-13.03
-23.94
-35.36
-46.80
-57.68
-67.59
-76.34
-84.03
-90.93
-97.38
-103.68
-109.98
-116.19
-121.88
-126.18
-127.83
-125.37
-117.46
-103.37
-83.22
-58.17
-30.17
-1.56
25.34
48.66
67.19
80.41
88.42
91.83
91.55
88.66
84.21
79.12
74.10
69.61
65.87
62.83
60.33
58.03
55.52
52.40
48.29
42.84
35.77
26.90
16.28
4.17
-8.94
-22.46
-35.88
-48.95
-61.70
-74.44
-87.61
-101.64
-116.80
-133.10
-150.14
-166.99
-182.29
-194.45
-202.00
-203.96
-200.03
-190.48
-175.99
-157.37
-135.55
-111.73
-87.39
-64.26
-43.96
-27.53
-15.11
-6.00
0.94
6.84
12.52
18.40
24.70
31.59
39.24
47.60
56.27
64.41
71.00
75.18
76.71
76.09
74.42
73.03
72.96
74.56
77.25
79.64
79.76
75.56
65.39
48.66
26.25
0.77
-23.75
-42.57
-51.38
-47.41
-30.15
-1.42
35.16
75.18
114.36
149.35
178.02
199.36
213.29
220.30
221.19
216.91
208.42
196.56
181.99
165.16
146.33
125.67
103.50
80.34
56.93
34.05
12.35
-7.93
-27.03
-45.56
-64.27
-83.81
-104.43
-125.90
-147.57
-168.43
-187.40
-203.64
-216.83
-227.36
-236.28
-244.88
-253.98
-263.25
-270.85
-273.78
-268.83
-253.75
-227.99
-192.74
-150.29
-103.19
-53.96
-5.10
40.53
79.78
109.86
129.25
138.50
140.14
137.72
134.51
132.46
132.00
132.61
133.60
134.69
136.06
137.94
140.20
142.19
142.88
141.35
137.15
130.58
122.53
114.12
106.11
98.66
91.23
82.86
72.54
59.42
42.93
22.77
-0.89
-27.11
-53.85
-77.89
-95.39
-102.88
-98.51
-82.82
-58.76
-30.89
-4.09
17.63
31.84
37.81
36.07
27.93
14.98
-1.09
-18.56
-35.76
-51.26
-64.06
-73.72
-80.22
-83.64
-83.88
-80.52
-73.15
-61.85
-47.72
-32.86
-19.89
-11.13
-7.79
-9.73
-15.66
-23.85
-32.81
-41.72
-50.62
-60.19
-71.46
-85.36
-102.06
-120.40
-137.71
-150.12
-153.61
-145.14
-123.73
-90.72
-49.32
-3.75
41.83
83.92
119.97
148.32
168.12
179.24
182.35
178.77
170.36
159.12
146.86
134.90
123.89
113.86
104.39
94.95
85.13
74.83
64.17
53.34
42.36
31.07
19.15
6.35
-7.31
-21.53
-35.77
-49.51
-62.45
-74.75
-87.18
-101.19
-118.63
-141.07
-168.84
-200.11
-230.67
-254.84
-267.11
-264.05
-245.38
-213.87
-174.12
-131.13
-89.11
-51.11
-19.24
5.11
21.27
29.63
31.85
30.74
29.57
31.23
37.51
48.96
65.01
84.33
105.27
125.92
144.35
158.59
166.91
168.14
162.06
149.67
133.01
114.53
96.26
79.13
62.83
46.36
29.00
11.04
-5.97
-19.78
-28.30
-30.42
-26.30
-16.98
-3.68
12.93
32.98
57.26
86.75
121.86
161.80
204.10
244.47
277.36
297.10
299.50
283.10
249.55
202.81
147.64
88.25
27.67
-32.00
-88.90
-140.94
-185.94
-222.48
-250.66
-272.42
-291.07
-310.13
-331.90
-356.42
-381.26
-402.10
-414.27
-414.40
-401.70
-378.30
-348.42
-316.75
-286.90
-260.47
-237.15
-215.52
-194.16
-172.36
-150.34
-128.98
-109.38
-92.33
-77.99
-65.60
-53.61
-40.07
-23.38
-2.93
20.57
45.24
69.09
90.89
110.97
131.12
153.89
181.55
215.47
256.07
302.71
353.21
403.04
445.21
471.68
476.29
457.95
422.10
379.22
340.49
312.80
295.67
281.94
261.92
228.57
181.10
125.13
69.91
24.27
-6.11
-19.24
-15.39
4.66
40.34
90.80
153.25
221.89
288.33
343.83
382.31
402.46
407.89
405.31
401.49
400.58
402.89
405.36
403.37
392.84
371.99
342.09
307.15
272.53
243.04
221.27
206.75
196.44
186.32
173.21
155.98
135.67
114.41
94.06
75.26
57.48
39.70
21.37
2.72
-15.47
-32.51
-48.26
-63.06
-77.24
-90.68
-102.66
-112.15
-118.41
-121.41
-121.98
-121.45
-121.23
-122.31
-125.11
-129.42
-134.67
-140.08
-144.92
-148.59
-150.80
-151.63
-151.42
-150.64
-149.68
-148.71
-147.62
-146.07
-143.70
-140.30
-135.93
-131.01
-126.22
-122.35
-120.13
-120.00
-122.06
-126.05
-131.49
-137.89
-144.83
-152.04
-159.32
-166.43
-173.03
-178.73
-183.17
-186.20
-187.78
-188.04
-187.22
-185.56
-183.27
-180.55
-177.51
-174.21
-170.74
-167.27
-164.17
-161.92
-160.97
-161.61
-163.77
-167.01
-170.61
-173.77
-175.75
-176.04
-174.58
-171.84
-168.91
-167.22
-167.97
-171.37
-176.10
-179.32
-177.37
-166.96
-146.17
-115.00
-75.07
-29.06
19.80
68.05
112.07
148.45
174.59
189.51
194.16
190.83
181.95
168.78
151.07
127.97
99.45
67.46
35.87
9.11
-9.58
-19.27
-21.30
-18.19
-12.30
-5.14
2.57
10.17
16.52
20.04
19.32
13.99
5.28
-4.02
-10.26
-9.90
-0.69
17.63
43.17
72.38
101.17
126.15
145.56
159.53
169.65
177.88
185.56
