1675346408.00
64.000000
-0.00
-0.00
-0.00
-0.00
-0.00
-0.00
-0.00
-0.00
-0.00
-0.00
0.00
0.01
0.01
-0.00
-0.03
-0.05
-0.05
0.00
0.13
0.36
0.66
1.01
1.37
1.72
2.06
2.40
2.79
3.24
3.80
4.42
5.06
5.66
6.20
6.68
7.15
7.68
8.31
9.14
10.09
11.04
11.88
12.56
13.14
13.76
14.65
15.96
17.91
20.32
22.90
25.38
27.58
29.57
31.68
34.32
37.81
42.54
48.15
54.10
59.83
64.97
69.58
74.14
79.34
85.71
93.76
103.00
112.62
121.73
129.77
136.75
143.30
150.75
157.77
166.64
177.95
191.79
206.97
220.57
228.25
225.36
208.53
176.87
132.76
80.05
23.07
-34.94
-92.44
-149.16
-205.23
-260.37
-313.74
-363.87
-409.83
-450.91
-486.50
-515.74
-537.23
-549.22
-549.96
-538.37
-514.21
-478.67
-433.88
-382.45
-327.02
-269.84
-212.63
-156.66
-102.95
-52.38
-5.91
35.57
71.43
101.37
125.54
144.42
158.71
169.10
176.22
180.48
182.21
181.65
179.08
174.84
169.30
162.83
155.75
148.31
140.67
132.96
125.25
117.59
110.02
102.54
95.16
87.89
80.77
73.89
67.36
61.27
55.65
50.44
45.49
40.64
35.77
30.93
26.27
22.05
18.49
15.63
13.32
11.19
8.86
6.11
2.99
-0.14
-2.80
-4.56
-5.33
-5.43
-5.46
-6.12
-7.77
-10.33
-13.22
-15.65
-17.01
-17.16
-16.46
-15.62
-15.37
-16.20
-18.34
-21.80
-26.31
-30.99
-34.19
-33.70
-27.63
-15.53
0.92
18.25
32.52
40.94
43.05
40.54
36.10
31.96
28.99
26.81
24.62
22.05
19.45
17.58
16.92
17.24
17.71
17.36
15.58
12.45
8.74
5.48
3.55
3.29
4.46
6.39
8.30
9.58
9.99
9.64
8.85
8.01
7.38
7.03
6.80
6.45
5.76
4.66
3.34
2.18
1.58
1.79
2.81
4.42
6.26
8.01
9.48
10.67
11.71
12.77
13.97
15.26
16.49
17.38
17.66
17.20
15.96
14.02
11.47
8.50
5.12
1.50
-2.16
-5.58
-8.59
-11.09
-13.16
-14.91
-16.35
-17.43
-17.96
-17.84
-17.11
-15.96
-14.61
-13.33
-12.31
-11.75
-11.78
-12.32
-13.11
-13.71
-13.70
-12.89
-11.42
-9.73
-8.30
-7.47
-7.24
-7.40
-7.69
-7.95
-8.16
-8.33
-8.41
-8.22
-7.50
-6.03
-3.77
-0.93
2.10
4.73
6.45
6.98
6.31
4.75
2.82
0.99
-0.47
-1.55
-2.41
-3.24
-4.12
-4.98
-5.63
-5.81
-5.36
-4.26
-2.62
-0.63
1.53
3.77
6.13
8.40
10.36
11.70
12.04
11.15
9.08
6.26
3.30
0.79
-1.02
-2.20
-3.06
-3.89
-4.75
-5.49
-5.90
-5.99
-6.00
-6.29
-7.11
-8.46
-10.06
-11.59
-12.86
-13.87
-14.82
-15.86
-17.03
-18.19
-19.07
-19.42
-19.15
-18.39
-17.46
-16.79
-16.77
-17.59
-19.16
-21.15
-23.08
-24.54
-25.27
-25.22
-24.34
-22.55
-19.61
-15.15
-8.93
-0.97
8.23
17.77
26.54
33.52
38.12
40.35
40.87
40.83
41.58
44.31
49.59
56.98
64.97
71.18
73.13
69.17
59.20
44.88
29.13
15.07
4.95
-0.43
-1.75
-0.58
1.42
3.03
3.80
3.84
3.58
3.47
3.78
4.67
6.15
8.19
10.67
13.49
16.50
19.50
22.20
24.18
25.03
24.43
22.36
18.99
14.70
9.92
5.06
0.34
-4.27
-9.00
-14.15
-19.98
-26.64
-33.82
-40.65
-45.76
-47.85
-46.35
-41.74
-35.43
-29.37
-25.52
-25.03
-27.90
-33.05
-39.15
-45.30
-50.96
-55.65
-58.79
-59.95
-58.67
-54.63
-47.64
-38.28
-28.09
-18.75
-11.35
-6.39
-4.35
-5.77
-11.10
-19.90
-31.06
-42.78
-52.19
-55.79
-49.45
-32.61
-10.34
8.84
19.37
22.37
21.69
20.65
21.12
23.44
25.94
27.84
29.95
35.52
47.82
67.93
94.29
123.47
151.50
174.78
191.46
195.63
185.60
164.30
137.76
111.75
89.22
70.20
53.28
37.40
22.43
10.00
1.57
-2.70
-3.81
-3.19
-1.80
-0.06
2.14
4.87
8.90
14.68
21.79
28.75
33.21
32.32
22.74
2.29
-29.96
-72.59
-121.82
-171.56
-213.98
-241.06
-247.07
-231.09
-198.09
-157.92
-121.67
-97.78
-89.13
-92.38
-100.00
-103.68
-97.82
-81.40
-57.85
-32.99
-12.65
-0.66
2.03
-3.01
-12.88
-24.64
-36.03
-45.63
-52.21
-54.07
-49.60
-38.33
-21.98
-4.54
9.16
15.76
15.13
10.49
6.36
5.68
7.97
9.81
7.47
-0.06
-9.57
-14.88
-10.06
7.19
34.27
65.10
93.18
114.40
127.89
134.96
137.16
134.79
127.01
112.89
92.88
69.09
44.71
22.64
4.39
-10.25
-22.56
-33.81
-44.36
-53.41
-59.51
-61.38
-58.65
-52.18
-43.70
-35.17
-28.01
-22.74
-18.99
-16.03
-13.27
-10.71
-8.91
-8.64
-10.38
-14.00
-18.73
-23.46
-27.04
-28.66
-27.90
-24.74
-19.38
-12.21
-3.67
5.68
15.20
24.18
32.00
38.24
42.71
45.50
46.88
47.17
46.67
45.53
43.78
41.39
38.35
34.75
30.83
26.98
23.60
20.99
19.24
18.20
17.59
17.13
16.63
16.05
15.41
14.76
14.07
13.26
12.30
11.27
10.33
9.65
9.35
9.42
9.70
10.01
10.19
10.13
9.77
9.11
8.16
6.97
5.60
4.20
2.93
1.95
1.41
1.35
1.74
2.43
3.24
4.06
4.85
5.65
6.48
7.25
7.75
7.69
6.82
5.04
2.42
-0.85
-4.53
-8.38
-12.19
-15.77
-18.95
-21.66
-23.92
-25.84
-27.51
-28.93
-29.94
-30.28
-29.67
-27.97
-25.16
-21.46
-17.14
-12.55
-7.98
-3.61
0.50
4.39
8.15
11.80
15.30
18.50
21.23
23.40
25.08
26.40
27.61
28.84
30.15
31.49
32.72
33.69
34.32
34.58
34.51
34.26
34.01
34.00
34.51
35.77
37.95
41.05
44.98
49.49
54.29
59.08
63.60
67.62
70.96
73.50
75.23
76.30
76.98
77.64
78.58
79.92
81.63
83.46
85.18
86.56
87.54
88.16
88.55
88.86
89.19
89.56
89.80
89.55
88.31
85.50
80.74
73.95
65.41
55.67
45.40
35.16
25.30
15.90
6.90
-1.69
-9.60
-16.33
-21.20
-23.66
-23.44
-20.81
-16.57
-11.86
-8.03
-6.28
-7.43
-11.75
-18.86
-27.96
-38.00
-48.09
-57.71
-66.77
-75.43
-83.87
-92.13
-99.98
-106.99
-112.73
-116.83
-119.17
-120.00
-119.93
-119.80
-120.41
-122.12
-124.61
-126.93
-127.93
-126.93
-124.18
-120.91
-118.85
-119.38
-122.92
-128.75
-135.42
-141.44
-145.65
-147.11
-144.80
-137.42
-123.77
-103.50
-77.68
-48.85
-20.32
4.81
24.43
37.38
43.11
41.21
31.54
14.99
-5.80
-26.41
-41.69
-47.62
-43.10
-30.57
-15.04
-2.02
4.76
4.69
0.21
-4.64
-6.09
-2.05
7.39
20.61
35.52
50.49
64.78
78.33
91.18
103.00
112.86
119.58
122.44
121.26
116.59
109.68
102.07
95.01
89.10
83.97
78.67
72.18
63.48
51.93
37.79
22.32
7.40
-5.10
-14.53
-21.52
-27.30
-33.81
-42.96
-55.47
-70.86
-87.68
-103.90
-118.12
-128.67
-132.45
-127.84
-115.68
-98.31
-79.15
-61.64
-48.16
-41.08
-40.43
-41.48
-40.48
-36.12
-27.90
-16.20
-1.93
13.74
26.78
34.14
38.66
41.45
40.95
36.39
27.91
16.38
2.87
-15.61
-41.56
-70.26
-98.95
-127.51
-154.22
-176.49
-191.93
-176.56
-119.68
-58.38
-6.85
42.16
89.19
132.46
167.95
190.52
196.07
179.92
142.55
95.19
47.58
4.50
-31.38
-59.55
-80.66
-95.29
-106.13
-114.40
-115.42
-106.89
-89.89
-65.30
-33.99
2.94
43.84
84.71
121.61
153.90
179.79
196.61
203.73
202.95
197.79
191.81
185.84
178.34
167.93
152.96
134.69
118.87
112.87
121.19
142.02
166.79
183.91
184.20
162.38
120.11
64.40
3.78
-55.12
-108.73
-155.80
-195.69
-227.51
-252.13
-269.62
-280.10
-285.41
-290.00
-299.28
-316.65
-341.14
-367.13
-389.17
-400.68
-396.44
-374.98
-339.38
-295.42
-248.80
-203.24
-142.92
-66.25
15.93
88.42
142.00
175.76
193.49
200.21
200.50
197.73
191.08
180.33
166.94
153.19
140.84
130.89
124.01
120.75
121.16
122.61
122.01
117.56
108.59
95.28
78.78
61.24
45.19
32.51
22.43
13.76
6.14
-0.20
-4.89
-7.86
-9.36
-9.94
-10.12
-10.78
-13.08
-16.74
-21.07
-25.58
-30.19
-34.86
-39.25
-42.57
-44.07
-43.00
-38.70
-31.18
-21.21
-10.15
0.37
8.93
14.58
17.06
16.68
14.37
11.08
7.63
4.48
1.81
-0.41
-2.31
-4.03
-5.68
-7.10
-8.05
-8.20
-7.28
-5.32
-2.77
-0.49
0.50
-0.55
-3.75
-8.53
-13.79
-18.36
-21.30
-22.19
-21.03
-18.09
-13.80
-8.73
-3.66
0.48
2.87
3.27
2.08
0.18
-1.44
-2.00
-1.22
0.76
3.61
7.17
11.70
17.58
24.80
32.68
39.91
45.02
47.03
45.87
42.47
38.63
35.86
34.41
33.17
30.33
24.57
15.82
5.40
-4.59
-11.15
-12.67
-9.76
-4.93
-0.98
0.51
-0.20
-1.42
-0.90
5.51
20.28
42.84
69.50
95.49
116.91
131.52
138.60
138.66
136.84
138.20
145.52
158.52
175.30
194.10
213.44
231.93
248.38
267.20
292.79
326.79
366.82
408.18
446.25
477.22
498.19
477.76
399.16
269.49
118.53
-21.22
-131.55
-209.52
-260.74
-292.94
-312.56
-319.05
-311.23
-290.80
-263.40
-236.22
-214.54
-200.85
-194.95
-194.97
-194.70
-188.81
-176.06
-157.94
-137.59
-117.29
-98.51
-82.23
-69.74
-60.67
-55.13
-53.83
-57.30
-64.96
-74.45
-83.74
-91.62
-98.37
-103.96
-108.43
-111.85
-114.62
-118.09
-119.83
-120.33
-120.81
-122.26
-124.23
-125.50
-125.03
-122.85
-120.34
-119.39
-121.85
-127.43
-133.48
-135.96
-131.55
-119.55
-102.48
-84.52
-68.69
-54.75
-37.93
-10.91
32.35
93.19
166.91
244.37
315.55
372.98
412.87
434.72
439.42
427.80
400.67
359.73
308.30
251.38
194.35
140.96
92.34
47.37
4.37
-37.02
-74.93
-106.57
-129.17
-141.47
-144.56
-141.45
-135.75
-130.66
-128.73
-132.32
-144.47
-166.50
-196.09
-226.91
-250.40
-258.62
-247.07
-215.60
-167.63
-109.24
-45.19
22.06
90.16
153.97
205.03
233.88
234.38
206.36
154.22
87.38
17.89
-43.51
-90.29
-120.21
-133.68
-131.66
-104.42
-52.46
10.34
65.23
100.30
112.65
107.50
90.37
66.72
41.18
17.34
-1.55
-12.21
-12.62
-3.74
10.74
25.66
36.82
42.01
39.91
31.19
18.47
4.78
-7.96
-19.05
-28.36
-35.43
-39.72
-41.96
-43.35
-44.72
-46.55
-49.21
-52.96
-57.83
-63.30
-68.50
-72.96
-76.33
-78.24
-78.58
-77.69
-76.09
-74.16
-71.76
-68.35
-63.43
-56.67
-47.74
-36.49
-23.06
-8.06
7.36
21.76
33.81
42.81
48.90
53.03
56.51
60.38
65.01
70.15
75.18
79.56
83.10
85.89
88.12
89.92
91.18
91.57
90.72
88.40
84.67
80.02
75.32
71.59
69.69
70.05
72.32
75.25
76.79
74.63
66.98
53.42
35.38
15.92
-1.23
-12.85
-17.31
-14.81
-6.96
3.93
15.44
25.29
31.34
31.68
25.36
13.02
-2.67
-17.74
-28.35
-32.61
-31.35
-27.60
-24.94
-25.80
-30.72
-38.93
-49.54
-62.44
-78.23
-97.20
-118.40
-139.48
-157.46
-170.18
-177.02
-178.81
-176.83
-171.77
-163.45
-151.33
-135.51
-117.30
-99.18
-83.87
-73.33
-68.01
-66.79
-67.53
-67.92
-66.31
-62.11
-55.71
-48.07
-40.14
-32.32
-24.18
-14.48
-1.56
16.05
38.88
65.93
94.53
120.75
140.55
150.98
151.18
142.53
128.09
111.46
95.64
82.35
72.04
64.17
57.84
52.10
46.21
39.72
32.52
24.79
17.04
9.94
4.12
-0.03
-2.32
-2.78
-1.44
1.62
6.37
12.64
20.06
27.97
35.39
41.16
44.10
43.33
38.56
30.33
19.94
9.21
-0.05
-6.61
-10.14
-11.18
-10.86
-10.33
-10.34
-11.01
-11.82
-11.87
-10.22
-6.24
0.25
8.99
19.53
31.58
45.32
61.50
80.94
103.77
128.67
152.64
171.54
181.42
179.83
166.57
143.34
112.86
77.90
40.84
3.86
-30.67
-60.14
-82.14
-95.07
-98.69
-94.14
-83.52
-69.14
-53.07
-36.80
-21.31
-7.10
5.70
17.12
27.12
35.31
40.84
42.44
38.85
29.16
13.19
-8.35
-33.75
-60.48
-85.36
-104.90
-115.80
-115.56
-103.56
-82.02
-56.40
-34.42
-23.64
-28.32
-47.28
-73.91
-98.75
-113.48
-114.12
-102.04
-82.36
-60.84
-41.23
-24.43
-9.51
4.59
17.85
29.29
38.02
44.25
49.56
56.02
65.07
76.59
88.93
99.60
106.46
108.55
106.28
101.07
94.58
88.02
81.91
76.23
70.86
65.89
61.60
58.02
54.35
48.65
38.30
21.21
-2.84
-31.31
-59.39
-81.54
-93.69
-94.75
-86.70
-73.34
-58.45
-44.50
-32.50
-22.92
-16.52
-14.54
-17.84
-25.75
-35.51
-42.90
-43.86
-36.26
-20.76
-0.45
20.59
38.90
52.63
61.62
66.56
67.97
65.65
58.77
46.65
29.63
9.50
-10.92
-28.73
-42.04
-50.70
-56.07
-60.08
-64.14
-68.35
-71.45
-71.66
-67.71
-59.82
-49.89
-40.93
-35.86
-36.25
-41.63
-49.59
-56.76
-60.15
-58.28
-51.39
-41.06
-29.39
-18.46
-10.23
-6.61
-9.26
-18.92
-34.62
-53.24
-70.20
-80.82
-82.02
-73.34
-57.04
-37.27
-18.74
-5.52
-0.15
-3.22
-13.27
-27.21
-41.11
-51.44
-56.17
-55.42
-51.38
-47.31
-46.09
-48.82
-53.81
-56.80
-52.30
-35.79
-5.88
34.43
78.24
116.75
142.13
149.97
140.19
116.19
82.97
45.17
6.15
-31.87
-67.05
-97.51
-121.55
-138.64
-150.24
-159.83
-171.92
-190.12
-215.47
-245.75
-276.18
-301.39
-317.39
-322.73
-318.19
-305.59
-286.36
-260.78
-228.33
-188.79
-143.07
-93.45
-42.90
5.86
51.11
92.20
128.88
160.58
186.13
204.07
213.31
213.80
206.77
194.55
180.27
167.46
159.76
160.60
172.53
196.11
228.88
265.19
297.23
317.20
319.85
304.17
273.49
233.93
191.98
152.76
119.33
93.18
75.11
65.52
64.04
68.60
75.22
78.86
75.17
62.23
41.16
15.57
-10.28
-32.93
-50.14
-60.16
-60.42
-47.55
-18.81
25.36
79.52
133.67
175.98
196.80
191.77
162.61
115.53
58.86
1.13
-49.41
-84.90
-98.82
-88.06
-55.15
-8.76
38.49
74.27
90.80
86.92
67.11
38.33
6.69
-24.41
-54.13
-82.64
-109.56
-133.03
-149.73
-155.53
-146.79
-121.81
-82.40
-34.67
11.62
45.46
58.07
46.06
12.85
-32.48
-78.35
-114.60
-135.20
-138.99
-128.46
-107.82
-81.34
-52.66
-24.84
-0.52
18.18
30.15
35.76
36.81
35.75
34.69
34.50
34.72
34.21
32.07
28.08
22.61
15.96
7.68
-3.59
-19.36
-40.15
-64.55
-89.12
-109.37
-121.53
-124.17
-118.78
-109.09
-99.31
-92.36
-88.88
-87.54
-86.25
-83.51
-79.08
-73.64
-67.84
-61.47
-53.38
-42.16
-27.35
-10.21
6.40
19.05
24.98
22.96
13.50
-1.66
-20.07
-38.86
-54.89
-64.99
-66.69
-59.34
-44.81
-27.23
-11.58
-1.72
1.23
-0.97
-4.75
-6.66
-4.85
0.46
7.67
14.95
21.04
25.49
28.23
29.20
28.17
25.14
20.65
15.69
11.28
7.88
5.15
2.26
-1.34
-5.24
-7.90
-7.23
-1.67
8.80
22.18
34.97
43.37
44.71
38.40
26.04
10.56
-5.06
-18.98
-30.89
-41.69
-52.59
-64.31
-76.55
-88.06
-96.82
-100.48
-96.71
-83.80
-61.33
-30.80
4.35
39.38
69.59
91.55
103.93
107.44
104.18
96.96
88.79
82.49
80.12
82.29
87.60
92.77
93.64
86.72
70.63
46.65
18.11
-10.82
-36.50
-56.61
-70.29
-77.79
-80.01
-78.06
-73.04
-66.17
-58.93
-53.13
-50.50
-52.05
-57.24
-63.87
-68.79
-69.29
-64.47
-55.53
-45.04
-35.28
-27.00
-19.17
-10.00
1.62
15.20
28.77
40.10
47.88
52.37
55.02
57.37
60.17
62.97
64.48
63.38
59.07
51.75
42.05
30.42
16.86
1.28
-15.79
-32.65
-46.51
-54.46
-54.71
-47.42
-34.65
-19.37
-4.31
9.00
20.27
29.90
38.26
45.19
49.98
51.87
50.42
45.76
38.57
29.91
20.98
12.95
6.77
2.97
1.57
1.99
3.29
4.40
4.44
2.83
-0.58
-5.47
-11.10
-16.59
-21.06
-24.16
-26.31
-28.87
-33.61
-41.68
-52.59
-63.83
-71.46
-71.79
-63.16
-46.87
-26.76
-7.64
6.64
14.31
15.69
12.07
4.60
-6.20
-19.69
-33.94
-45.11
-48.09
-38.68
-15.94
16.79
52.70
83.90
104.29
111.61
107.82
97.96
88.14
83.50
86.72
97.51
112.90
128.31
139.09
142.05
136.36
123.36
105.68
85.95
66.18
47.55
30.97
17.52
8.19
3.28
1.72
1.26
-0.80
-6.26
-15.34
-26.48
-36.78
-42.94
-42.41
-34.41
-20.57
-4.73
8.49
14.90
12.24
1.33
-14.18
-29.48
-40.81
-46.95
-49.23
-49.22
-48.28
-46.92
-44.48
-39.65
-31.94
-22.68
-14.77
-11.47
-12.94
-18.27
-26.32
-35.45
-43.09
-46.54
-44.19
-36.44
-25.74
-13.02
-1.20
5.12
2.82
-6.42
-16.11
-17.63
-3.70
28.97
82.50
152.27
227.17
294.14
343.42
370.19
373.61
355.33
294.84
192.65
73.18
-30.84
-100.14
-133.42
-140.15
-132.75
-121.74
-113.08
-104.26
-91.13
-74.13
-56.94
-42.99
-34.27
-31.24
-33.15
-38.22
-40.74
-36.21
-23.40
-5.30
15.08
34.17
47.49
50.37
39.55
16.30
-16.15
-54.22
-93.87
-129.98
-157.02
-170.16
-166.49
-146.18
-111.91
-69.68
-27.65
6.85
30.12
42.54
47.59
49.95
53.56
60.85
72.09
86.11
101.49
117.47
133.39
147.88
158.24
160.95
153.20
134.53
107.65
77.49
49.09
25.29
5.80
-12.02
-31.23
-53.50
-78.41
-103.99
-128.08
-149.28
-167.19
-181.86
-193.24
-200.97
-204.64
-204.22
-200.19
-193.26
-184.12
-173.16
-160.63
-146.87
-132.30
-117.17
-101.24
-83.84
-64.28
-42.74
-20.83
-1.50
12.22
18.74
19.07
16.74
16.31
21.32
32.87
49.61
69.01
89.00
108.87
128.86
149.06
168.69
186.38
201.37
214.53
228.11
244.10
262.19
279.01
289.39
288.96
276.58
255.05
229.77
206.17
187.52
174.08
163.75
153.44
140.32
122.63
99.84
72.45
41.54
8.28
-26.52
-62.44
-99.04
-135.15
-168.79
-197.71
-220.78
-239.12
-255.91
-274.72
-296.99
-320.32
-338.95
-346.20
-337.78
-313.96
-279.37
-240.60
-203.27
-169.95
-139.93
-110.80
-80.41
-48.09
-14.75
17.93
48.51
76.22
100.74
121.84
139.06
151.82
159.75
162.97
161.99
157.60
150.63
141.92
132.51
123.70
116.83
112.85
111.71
112.20
112.15
109.05
100.78
86.27
65.65
40.22
12.07
-16.25
-42.05
-62.85
-76.68
-82.41
-79.95
-70.18
-54.72
-35.60
-14.99
5.11
22.98
37.39
47.74
54.07
56.89
56.85
54.36
49.29
40.94
28.42
11.21
-10.29
-34.46
-58.71
-80.20
-96.61
-106.76
-110.65
-109.14
-103.37
-94.29
-82.62
-69.08
-54.76
-41.25
-30.35
-23.48
-21.07
-22.31
-25.47
-28.55
-29.90
-28.73
-24.95
-18.87
-10.87
-1.27
9.56
20.96
31.91
41.23
47.86
51.22
51.27
48.40
43.14
35.97
27.27
17.33
6.52
-4.70
-15.77
-26.02
-34.86
-41.76
-46.45
-48.91
-49.43
-48.56
-47.03
-45.57
-44.76
-44.98
-46.33
-48.69
-51.78
-55.14
-58.26
-60.69
-62.18
-62.75
-62.74
-62.62
-62.85
-63.74
-65.29
-67.21
-68.89
-69.52
-68.20
-64.24
-57.46
-48.39
-38.16
-28.24
-19.87
-13.64
-9.39
-6.35
-3.60
-0.45
3.37
7.84
12.72
17.75
22.73
27.49
31.88
35.73
38.92
41.39
43.12
44.15
44.53
44.28
43.38
41.73
39.26
35.90
31.71
26.89
21.67
16.32
11.10
6.26
1.94
-1.75
-4.93
-7.87
-10.95
-14.46
-18.43
-22.57
-26.45
-29.71
-32.33
-34.62
-37.11
-40.19
-43.97
-48.18
-52.37
-55.99
-58.63
-60.00
-59.95
-58.55
-56.09
-53.12
-50.30
-48.18
-46.90
-46.04
-44.73
-41.94
-36.83
-29.07
-18.88
-6.92
5.95
18.85
31.00
41.83
50.90
57.99
63.16
66.66
68.91
70.34
71.27
71.85
72.16
72.25
72.27
72.46
73.05
74.13
75.51
76.74
77.18
76.22
73.42
68.67
62.12
54.13
45.12
35.55
25.86
16.40
7.49
-0.61
-7.69
-13.52
-17.93
-20.71
-21.67
-20.66
-17.66
-12.84
-6.69
0.04
6.59
12.64
18.58
25.64
35.41
49.11
66.78
86.94
106.86
123.50
134.42
138.42
135.52
126.46
112.04
92.78
69.03
41.44
11.26
-19.49
-48.39
-73.04
-91.53
-102.67
-106.08
-102.13
-91.72
-76.23
-57.19
-36.13
-14.36
7.00
26.82
43.78
56.26
62.68
61.98
54.16
40.48
23.23
4.96
-12.24
-27.22
-39.76
-50.23
-59.07
-66.53
-72.59
-77.13
-80.22
-82.17
-83.50
-84.74
-86.20
-87.87
-89.34
-90.02
-89.38
-87.18
-83.63
-79.41
-75.41
-72.42
-70.91
-70.76
-71.39
-71.90
-71.15
-67.81
-60.51
-47.96
-29.38
-5.03
23.50
53.32
80.92
103.09
117.96
125.42
126.79
123.82
117.61
108.11
94.47
76.12
53.81
30.04
8.43
-7.44
-15.38
-15.09
-7.96
3.74
17.77
32.34
46.09
57.87
66.70
71.99
73.77
72.82
70.29
67.08
63.29
58.01
49.79
37.51
21.30
2.98
-14.38
-27.37
-33.57
-32.36
-25.05
-14.29
-2.92
7.02
14.83
21.10
27.00
33.12
38.55
40.71
36.39
23.57
3.25
-20.11
-39.72
-49.13
-45.07
-28.88
-5.87
16.68
32.07
35.94
27.28
8.56
-14.31
-32.53
-36.07
-16.64
28.79
95.51
171.41
240.48
287.94
304.80
289.93
248.92
191.06
125.99
61.63
3.40
-45.48
-83.64
-111.42
-130.63
-144.10
-154.92
-165.49
-176.81
-188.47
-199.08
-206.93
-210.59
-209.41
-203.70
-194.66
-183.98
-173.41
-164.20
-156.87
-151.15
-146.30
-141.42
-135.82
-129.21
-121.62
-113.33
-104.64
-95.78
-86.99
-78.66
-71.46
-66.32
-64.02
-64.52
-66.28
-66.24
-60.46
-45.68
-20.83
12.21
49.06
84.52
114.51
137.35
153.69
165.11
172.48
174.79
169.41
153.60
126.49
90.40
50.53
13.19
-16.68
-37.08
-49.33
-56.93
-63.93
-73.47
-86.92
-104.09
-123.61
-143.38
-160.56
-172.41
-177.70
-177.96
-177.38
-181.12
-192.72
-212.00
-235.25
-255.78
-266.45
-262.29
-242.05
-207.54
-162.19
-109.41
-51.70
8.25
69.05
130.67
193.92
258.91
324.07
385.44
436.46
469.14
474.46
448.57
395.78
327.41
257.24
196.11
147.97
109.10
71.23
24.60
-33.34
-95.90
-151.30
-189.73
-208.02
-209.83
-202.24
-177.36
-134.92
-82.82
-31.19
14.90
54.35
86.07
108.23
119.34
120.73
112.99
99.21
84.79
75.53
75.33
85.35
104.87
132.12
163.89
193.87
216.34
228.35
230.15
223.90
211.89
195.04
172.35
142.05
103.05
59.42
21.34
2.09
12.07
53.65
119.19
192.91
256.40
294.32
299.98
276.24
232.20
178.06
120.95
63.80
6.69
-50.29
-105.11
-153.18
-189.13
-209.55
-215.03
-209.93
-200.16
-190.34
-182.06
-174.13
-164.44
-152.30
-139.65
-130.34
-128.13
-134.52
-147.93
-164.37
-179.47
-190.28
-196.23
-198.83
-200.45
-203.01
-207.17
-212.26
-216.87
-219.60
-219.84
-218.02
-215.37
-213.19
-212.16
-211.95
-211.46
-209.51
-205.55
-199.91
-193.50
-187.12
-180.99
-174.65
-167.51
-159.42
-150.92
-143.10
-136.79
-132.05
-127.71
-121.41
-110.12
-90.85
-61.64
-22.05
26.52
81.27
138.82
196.17
251.29
302.74
349.04
387.79
415.78
429.63
427.13
408.20
374.95
331.33
282.64
235.40
197.14
175.40
175.51
197.86
236.13
278.13
309.52
319.28
303.97
268.64
223.74
179.55
141.37
107.80
72.79
29.88
-23.85
-86.14
-150.89
-211.01
-261.20
-299.33
-325.75
-341.53
-346.68
-339.83
-319.30
-285.21
-241.15
-194.27
-153.51
-126.48
-116.74
-122.73
-138.95
-158.78
-177.13
-191.64
-201.86
-207.55
-207.20
-198.13
-177.93
-146.14
-104.74
-57.53
-8.60
38.66
81.47
117.39
144.47
162.34
173.24
181.81
192.83
207.90
223.21
230.31
219.87
186.45
131.69
63.97
-5.19
-65.43
-110.58
-138.79
-150.41
-145.78
-124.54
-87.10
-36.81
18.65
68.34
101.18
109.93
93.75
58.72
15.37
-24.93
-53.31
-65.12
-59.66
-38.79
-5.58
36.39
82.95
129.40
170.94
203.63
225.29
235.93
237.55
233.48
227.35
222.10
219.23
218.41
217.81
214.98
208.00
196.47
181.66
165.72
150.50
136.48
122.65
107.25
88.86
66.95
41.74
13.49
-17.65
-51.33
-85.89
-117.77
-141.99
-153.60
-149.68
-130.55
-99.59
-61.88
-22.73
13.26
42.14
60.43
65.45
56.42
35.51
8.05
-18.65
-37.61
-44.39
-38.28
-21.98
-0.07
22.86
43.78
61.76
77.66
93.34
110.63
130.47
152.37
174.27
192.86
204.43
205.82
195.33
173.30
141.92
104.73
65.45
26.92
-9.77
-45.25
-81.13
-118.77
-158.14
-197.21
-232.40
-259.31
-273.92
-273.69
-258.57
-231.70
-199.45
-170.30
-152.35
-150.51
-164.21
-187.26
-209.91
-222.34
-217.76
-193.76
-151.58
-94.31
-25.76
49.31
124.12
189.51
235.34
253.47
240.66
199.72
138.10
64.83
-12.38
-88.38
-159.82
-223.52
-275.44
-311.15
-327.33
-323.24
-301.10
-265.13
-220.12
-170.41
-119.70
-71.55
-29.69
2.37
22.23
29.62
26.88
18.19
8.43
1.81
0.92
6.39
17.17
30.88
44.27
54.08
57.81
54.52
45.10
31.94
18.00
5.87
-3.00
-8.32
-10.55
-10.38
-8.45
-5.44
-2.35
-0.46
-1.07
-4.89
-11.63
-20.06
-28.55
-35.76
-41.09
-44.50
-46.00
-45.15
-41.00
-32.65
-19.97
-4.06
12.99
28.84
41.86
51.82
59.84
67.89
77.95
91.31
107.98
126.45
143.71
155.83
158.95
150.71
131.43
104.40
75.02
48.97
30.18
19.66
15.63
14.82
14.28
12.55
9.86
7.29
5.75
5.25
5.07
4.33
2.69
0.61
-0.93
-1.07
0.43
3.18
6.46
9.72
12.89
16.28
20.27
25.02
30.28
35.60
40.40
44.16
46.35
46.39
43.60
37.56
28.36
17.05
5.54
-3.72
-8.48
-7.46
-0.83
9.91
22.43
34.48
44.68
52.99
60.45
68.44
77.78
88.13
97.83
104.50
105.72
99.58
85.28
63.48
36.47
7.68
-19.22
-41.63
-59.20
-74.00
-89.56
-109.01
-133.14
-159.43
-182.44
-195.75
-194.33
-176.62
-145.38
-107.07
-69.97
-41.60
-26.42
-24.54
-32.04
-42.78
-51.02
-53.46
-49.84
-42.05
-32.39
-21.81
-9.19
7.89
31.83
63.69
102.70
146.44
191.41
233.38
267.59
289.00
292.86
275.52
235.33
173.11
92.44
-0.26
-95.80
-182.97
-250.54
-290.30
-299.87
-283.88
-252.46
-217.36
-187.66
-167.26
-155.30
-148.79
-145.41
-144.61
-146.94
-152.29
-158.82
-163.38
-162.98
-156.21
-143.44
-126.19
-105.96
-83.66
-59.83
-35.26
-11.57
8.73
22.93
29.18
27.38
19.72
10.43
4.99
8.89
26.11
57.61
100.72
149.57
196.91
236.42
264.70
281.87
290.56
293.95
293.83
289.76
279.75
261.63
234.31
198.35
155.84
110.12
65.75
28.48
4.44
-1.77
10.50
36.19
64.86
84.00
83.88
62.18
25.76
-11.82
-35.99
-37.69
-17.29
15.78
47.37
64.65
60.89
37.09
0.30
-40.18
-76.62
-105.01
-125.22
-139.61
-150.94
-160.76
-168.68
-172.56
-169.52
-157.30
-135.37
-105.17
-69.37
-30.62
9.34
49.65
89.05
124.56
150.84
161.36
151.05
119.35
71.62
18.05
-29.84
-63.55
-80.72
-85.38
-85.42
-88.82
-100.27
-119.63
-142.54
-162.25
-171.62
-164.87
-138.84
-94.24
-36.27
25.63
79.50
114.03
122.09
102.98
62.58
11.32
-38.99
-77.84
-97.72
-94.55
-67.72
-20.40
40.20
103.16
155.63
185.65
185.63
154.60
98.68
29.35
-39.35
-94.09
-124.86
-126.91
-101.89
-57.74
-6.91
37.06
63.84
69.71
58.26
38.28
19.66
9.35
9.38
17.39
28.85
39.33
45.77
46.36
39.83
25.25
2.57
-26.61
-58.63
-88.50
-111.34
-124.14
-126.87
-122.47
-115.83
-112.03
-114.61
-124.47
-139.59
-155.73
-167.57
-169.87
-158.56
-131.65
-90.29
-39.21
13.58
58.46
86.84
93.85
79.55
48.49
7.45
-36.73
-78.30
-112.46
-134.55
-139.71
-124.34
-88.34
-37.20
17.87
62.25
82.40
70.49
27.83
-34.88
-100.57
-151.36
-174.63
-167.10
-135.51
-93.32
-55.31
-32.24
-27.85
-39.22
-59.41
-80.87
-97.85
-107.09
-107.23
-97.90
-79.06
-51.22
-15.75
24.96
67.93
110.38
151.01
190.76
232.35
278.46
329.27
380.49
423.60
448.27
446.30
414.82
357.20
281.46
197.27
113.44
36.89
-27.18
-74.89
-104.12
-115.42
-112.63
-101.99
-90.12
-81.50
-77.27
-75.79
-74.51
-71.83
-67.89
-64.01
-61.47
-60.59
-60.77
-61.25
-61.85
-63.12
-65.87
-70.41
-76.10
-81.72
-86.39
-90.35
-95.12
-102.41
-112.75
-124.31
-132.95
-133.62
-122.20
-96.95
-58.52
-9.44
46.86
106.19
163.57
213.37
250.22
270.42
273.27
261.33
239.19
211.66
182.03
151.46
119.38
84.62
46.51
5.48
-36.70
-77.24
-112.83
-140.03
-155.63
-157.10
-143.04
-113.78
-72.12
-23.26
26.05
69.25
101.86
122.43
132.23
133.80
129.51
120.88
109.03
95.40
82.01
70.52
61.05
51.63
38.98
20.47
-4.01
-31.07
-54.80
-68.68
-68.04
-51.99
-24.13
8.49
37.59
56.63
63.04
58.83
49.25
40.04
34.94
34.33
35.93
36.54
33.92
27.66
18.77
8.78
-1.01
-9.78
-17.00
-22.40
-26.05
-28.50
-30.62
-33.10
-36.02
-38.73
-40.33
-40.25
-38.78
-37.18
-37.27
-40.76
-48.59
-60.63
-75.86
-92.79
-110.25
-127.83
-145.91
-165.18
-185.69
-206.03
-223.19
-233.37
-233.46
-222.51
-202.31
-176.82
-150.58
-126.88
-106.73
-89.09
-72.25
-55.40
-39.52
-26.95
-19.71
-17.79
-18.13
-15.24
-3.05
22.73
63.16
115.67
175.00
234.55
287.49
327.48
349.34
350.02
329.42
290.88
240.63
186.32
135.06
91.62
57.55
31.39
9.82
-10.73
-32.79
-57.03
-82.34
-106.49
-127.06
-142.22
-151.27
-154.71
-153.78
-150.10
-145.25
-140.56
-137.08
-135.40
-135.41
-136.31
-136.85
-135.71
-131.82
-124.56
-113.74
-99.50
-82.45
-63.59
-44.28
-25.55
-7.49
11.06
32.12
57.44
87.25
119.61
150.92
177.21
195.74
205.74
208.09
204.29
195.50
182.35
165.49
146.31
126.87
109.11
93.74
79.82
65.27
48.28
28.50
7.31
-12.97
-30.48
-44.72
-56.51
-67.08
-77.12
-86.48
-94.45
-100.48
-104.53
-106.82
-107.10
-104.29
-96.70
-83.15
-64.06
-41.99
-21.11
-5.67
1.68
0.89
-5.65
-14.48
-22.64
-28.83
-33.32
-37.08
-40.49
-42.71
-42.12
-37.37
-28.55
-17.53
-7.21
-0.22
2.35
1.29
-1.24
-3.08
-3.17
-1.99
-1.03
-1.66
-4.23
-7.75
-10.49
-10.99
-9.03
-5.74
-3.04
-2.45
-4.20
-6.91
-8.13
-5.34
3.04
17.24
36.20
57.98
80.14
100.01
114.82
122.08
120.14
108.95
90.40
68.09
46.39
29.03
18.05
13.42
13.46
15.90
18.88
21.42
23.43
25.22
27.10
29.20
31.61
34.56
38.42
43.38
48.96
53.73
55.56
52.47
43.58
29.68
13.08
-3.52
-18.23
-30.81
-42.44
-54.68
-68.20
-82.08
-94.21
-102.39
-105.64
-104.67
-101.37
-97.40
-93.17
-87.47
-78.21
-63.52
-42.37
-14.50
20.16
61.64
109.26
160.36
209.74
250.36
275.45
281.04
267.21
237.46
196.07
145.93
88.00
23.19
-44.66
-106.88
-150.96
-164.91
-142.72
-88.40
-15.99
54.63
104.40
121.32
103.61
59.04
0.85
-57.00
-103.64
-132.70
-141.99
-132.49
-107.60
-72.86
-35.47
-3.18
17.87
25.44
22.05
13.92
8.01
8.84
16.43
26.56
33.06
30.95
18.51
-2.27
-26.89
-50.18
-67.77
-76.87
-76.39
-66.89
-50.48
-30.58
-11.44
2.87
9.61
8.20
0.24
-11.18
-22.64
-31.56
-36.74
-38.36
-37.53
-35.82
-34.88
-36.17
-40.90
-49.45
-60.98
-73.23
-82.81
-86.52
-83.18
-75.07
-68.06
-69.37
-84.01
-111.57
-145.43
-175.17
-191.14
-188.78
-170.08
-141.60
-110.55
-81.54
-55.97
-34.13
-18.11
-12.96
-24.60
-55.74
-102.34
-153.33
-194.22
-212.85
-204.23
-171.86
-125.37
-75.63
-30.38
7.82
40.62
71.20
101.72
132.29
161.37
187.24
209.28
228.09
244.87
260.20
273.13
280.99
280.06
267.06
240.76
203.07
159.28
117.11
84.83
68.71
70.62
86.84
108.57
124.15
122.56
96.69
45.57
-25.46
-106.62
-186.66
-255.77
-307.33
-338.31
-348.88
-341.62
-320.79
-291.65
-259.46
-228.37
-200.42
-175.30
-151.03
-125.14
-96.10
-64.18
-31.46
-0.98
24.43
43.25
55.70
63.75
70.42
78.86
91.20
107.82
127.17
146.33
162.19
172.66
177.50
178.31
177.63
177.92
180.60
185.81
192.72
200.11
207.00
212.96
218.18
223.20
228.56
234.36
240.08
244.52
246.16
243.56
235.81
222.75
204.75
182.28
155.54
124.46
89.18
50.80
11.80
-24.09
-52.68
-70.65
-76.57
-71.42
-58.24
-41.05
-23.75
-9.03
2.00
9.63
14.96
19.36
24.03
29.75
36.74
44.46
51.23
54.09
49.18
32.95
3.84
-36.32
-82.01
-125.46
-159.09
-178.15
-182.12
-174.37
-160.40
-145.67
-133.94
-126.76
-123.99
-124.53
-126.97
-129.80
-131.44
-130.46
-125.99
-118.13
-108.09
-97.92
-89.83
-85.17
-83.80
-83.80
-81.97
-75.02
-60.79
-39.36
-13.37
12.62
33.52
45.22
45.81
35.96
18.52
-2.34
-22.27
-37.53
-45.60
-45.42
-37.51
-23.71
-6.76
10.34
25.17
36.33
43.67
47.64
48.53
45.85
38.18
23.73
1.44
-28.02
-61.76
-95.00
-122.33
-139.38
-144.20
-137.81
-123.47
-105.40
-87.20
-71.20
-58.42
-49.30
-44.14
-42.93
-44.77
-47.23
-46.47
-38.51
-20.99
5.53
37.71
70.84
100.68
124.58
141.32
149.99
149.17
137.18
113.33
79.33
39.73
0.70
-32.18
-55.91
-70.88
-80.01
-86.89
-94.14
-102.55
-111.20
-118.22
-121.44
-118.81
-108.73
-90.07
-62.11
-24.34
23.47
80.73
144.83
210.46
269.84
314.42
337.60
336.94
314.55
275.40
225.03
168.23
109.62
55.23
12.97
-9.24
-7.25
16.20
51.30
84.72
104.93
106.50
91.04
65.10
36.79
13.16
-0.73
-1.59
11.94
38.63
73.92
110.34
139.47
154.70
152.80
133.96
100.46
55.15
1.19
-57.17
-113.77
-160.85
-190.88
-199.16
-185.79
-155.94
-118.30
-82.34
-55.61
-41.74
-39.78
-44.73
-49.28
-46.46
-32.27
-7.50
22.27
48.72
64.20
64.87
51.92
30.49
6.74
-15.28
-35.17
-55.59
-80.00
-109.83
-142.77
-172.65
-191.46
-192.55
-173.91
-139.84
-100.22
-67.19
-50.54
-54.00
-74.15
-102.16
-127.51
-142.01
-142.09
-129.30
-109.12
-89.16
-76.98
-77.96
-93.27
-118.97
-147.14
-169.10
-179.79
-180.56
-178.76
-183.80
-201.90
-232.37
-267.96
-298.61
-316.59
-319.62
-310.69
-295.06
-276.70
-256.32
-232.09
-201.89
-165.44
-124.69
-82.86
-42.80
-5.85
28.05
59.45
88.35
113.69
133.54
145.89
149.39
144.24
132.44
117.67
104.45
96.96
97.67
106.55
121.14
137.61
152.31
163.17
170.21
175.08
179.89
186.04
193.40
200.34
204.57
204.29
199.21
190.71
181.24
173.08
167.39
163.70
160.49
156.04
149.34
140.39
129.95
118.98
108.09
97.53
87.41
77.99
69.94
64.16
61.52
62.43
66.55
72.92
80.17
86.97
92.32
95.80
97.41
97.40
96.03
93.43
89.59
84.26
77.08
67.69
55.98
42.45
28.44
15.90
6.84
2.62
3.32
7.68
13.82
20.01
25.54
30.98
37.71
46.90
58.46
70.80
81.29
87.64
88.83
85.56
79.78
73.64
68.38
63.78
58.63
51.57
42.19
30.92
18.57
5.82
-7.06
-20.24
-34.33
-49.98
-67.77
-87.21
-107.79
-129.03
-150.12
-169.71
-186.45
-200.02
-211.19
-221.95
-232.75
-243.79
-254.53
-262.93
-265.40
-257.80
-237.41
-203.05
-156.10
-97.05
-28.91
43.09
113.27
177.27
232.74
277.86
312.15
334.79
348.57
355.00
353.87
345.00
329.56
310.44
290.25
272.53
236.29
174.92
96.73
18.15
-47.77
-95.74
-119.45
-123.46
-111.58
-88.78
-58.41
-26.24
-3.98
-0.27
-17.77
-52.12
-95.35
-137.53
-171.52
-191.50
-196.69
-190.56
-177.79
-162.47
-147.23
-134.25
-124.04
-116.37
-108.29
-97.04
-81.23
-60.46
-35.63
-8.52
18.07
41.80
60.77
74.83
84.43
90.22
93.16
94.24
94.30
93.39
91.11
86.41
78.49
67.00
52.31
35.69
18.66
2.34
-13.11
-28.16
-43.42
-58.89
-73.52
-85.55
-93.12
-95.06
-91.15
-82.16
-69.45
-54.79
-40.12
-27.42
-18.37
-13.85
-13.50
-15.75
-18.36
-19.36
-17.93
-14.67
-11.21
-9.28
-9.75
-12.41
-16.37
-20.98
-26.65
-35.08
-48.58
-68.80
-95.62
-126.62
-157.66
-184.09
-202.04
-209.38
-205.93
-193.10
-173.29
-149.29
-123.88
-99.53
-78.16
-60.78
-47.43
-37.17
-28.43
-19.62
-9.73
1.13
11.61
19.59
23.04
20.97
14.11
4.65
-4.64
-11.70
-16.03
-18.78
-22.00
-27.46
-35.85
-46.58
-58.26
-69.32
-78.45
-84.70
-87.41
-86.24
-81.19
-72.68
-61.37
-47.87
-32.48
-15.20
3.95
24.38
44.82
63.54
79.14
91.16
100.38
108.37
116.62
125.78
135.31
143.88
150.28
153.97
155.23
154.68
152.50
147.83
138.88
123.74
101.66
74.04
44.26
16.81
-4.22
-16.36
-19.43
-15.18
-6.47
3.86
13.92
22.64
29.55
34.44
37.34
38.61
38.99
39.50
41.31
45.91
53.59
62.72
70.00
71.62
64.62
48.04
23.22
-6.44
-34.96
-57.08
-69.63
-71.87
-64.49
-48.87
-26.90
-1.23
24.77
49.67
71.22
86.54
93.46
92.54
87.68
84.42
87.62
99.48
121.87
152.44
185.15
212.83
230.75
238.68
239.73
238.45
219.06
175.51
113.62
47.50
-10.95
-56.77
-90.06
-113.81
-132.49
-150.84
-168.78
-184.79
-196.55
-202.15
-200.70
-192.00
-177.90
-161.82
-147.13
-133.03
-118.05
-101.97
-86.82
-77.79
-79.20
-93.21
-116.85
-144.96
-168.75
-180.46
-176.50
-158.25
-129.53
-96.47
-66.64
-48.02
-44.85
-54.44
-70.33
-86.57
-100.39
-111.92
-122.35
-131.52
-139.16
-143.92
-143.96
-138.54
-128.24
-114.19
-97.06
-76.43
-55.02
-34.64
-16.98
-3.54
4.70
7.85
7.41
5.75
5.08
6.39
9.71
14.24
18.88
22.67
25.05
26.00
25.85
25.13
24.41
24.77
27.40
33.26
42.73
55.27
69.66
84.24
97.43
108.01
115.50
119.77
120.80
118.56
113.16
105.12
95.48
85.57
76.58
69.27
63.74
59.64
56.63
54.58
53.65
53.98
55.52
57.84
60.25
61.99
62.34
60.87
57.55
52.81
47.52
42.76
39.32
37.36
36.15
34.38
30.69
24.32
15.46
5.13
-5.30
-14.64
-22.26
-28.10
-32.46
-35.77
-38.46
-40.92
-43.56
-46.71
-50.46
-54.51
-58.11
-60.19
-59.73
-56.13
-49.59
-41.16
-32.20
-24.16
-18.06
-14.18
-11.95
-10.25
-8.07
-4.91
-1.03
3.12
7.04
10.44
13.35
16.07
19.00
22.39
26.20
29.99
33.76
37.31
40.12
41.60
41.41
39.80
37.59
35.69
34.80
36.76
42.51
51.43
61.43
70.01
75.50
77.53
76.93
75.42
78.43
90.11
110.94
137.09
162.40
181.22
190.11
188.45
178.27
168.95
169.12
182.85
208.20
239.89
272.85
303.74
330.97
354.14
380.54
415.70
459.99
508.09
553.01
590.24
618.54
638.42
606.41
498.28
320.17
108.89
-92.59
-257.23
-376.96
-455.59
-502.14
-526.72
-531.23
-516.98
-487.58
-450.10
-412.29
-379.70
-355.40
-340.26
-333.88
-329.32
-320.06
-302.77
-278.44
-250.16
-220.57
-190.86
-162.91
-139.08
-118.22
-99.24
-82.25
-68.79
-60.39
-57.22
-58.13
-61.56
-66.15
-69.31
-69.34
-66.02
-60.62
-54.96
-50.36
-47.58
-46.76
-47.51
-48.45
-48.35
-46.53
-43.16
-38.93
-34.73
-31.38
-29.41
-29.05
-30.16
-32.34
-35.02
-37.49
-39.17
-39.69
-38.94
-36.99
-33.96
-29.84
-24.50
-18.61
-12.85
-8.13
-5.37
-5.22
-7.71
-12.09
-16.93
-20.60
-21.71
-19.48
-13.95
-5.81
3.92
14.23
24.26
33.36
40.97
46.54
49.68
50.17
48.10
43.90
38.22
31.82
25.34
19.16
13.51
8.44
3.90
-0.25
-4.01
-7.23
-9.55
-10.47
-9.56
-6.60
-1.80
4.10
10.05
15.05
18.43
19.97
19.89
18.57
16.59
14.42
12.34
10.51
8.89
7.36
5.59
3.14
-0.28
-4.22
-7.81
-10.06
-10.18
-7.83
-3.20
3.13
10.19
17.18
24.24
31.56
38.97
45.87
51.50
55.42
57.63
58.24
57.80
58.08
60.30
64.62
70.07
75.24
79.24
81.87
83.20
83.96
86.24
91.31
99.03
108.01
116.63
124.21
130.96
137.21
133.68
114.92
81.39
39.75
-1.85
-38.07
-66.74
-85.36
-96.22
-100.83
-98.80
-90.33
-76.92
-61.04
-46.19
-34.63
-27.38
-24.90
-26.50
-30.01
-33.53
-36.21
-38.33
-40.67
-43.59
-46.68
-49.07
-49.02
-44.24
-33.64
-18.40
-1.57
13.10
22.63
25.56
21.97
13.65
3.47
-5.83
-12.89
-17.07
-18.08
-15.73
-10.35
-3.16
4.01
9.14
10.52
6.45
-3.01
-15.78
-28.67
-38.94
-45.71
-49.94
-53.86
-59.91
-70.72
-86.71
-105.71
-123.91
-137.57
-144.55
-144.48
-138.47
-121.40
-93.49
-60.54
-30.85
-10.02
1.16
5.00
4.95
4.20
4.82
6.41
8.07
9.34
9.73
10.07
10.61
11.26
11.75
11.87
10.71
8.01
4.44
1.12
-1.00
-1.94
-2.22
-2.33
-2.74
-4.15
-6.69
-9.80
-12.66
-14.62
-15.75
-16.49
-17.38
-18.77
-20.90
-23.39
-25.33
-25.56
-23.14
-17.77
-9.79
-0.07
10.28
20.05
28.37
34.78
39.22
41.94
43.18
43.25
42.43
41.02
39.32
37.60
36.03
34.66
33.45
32.27
31.07
29.90
28.88
28.15
27.73
27.47
27.03
25.98
23.96
20.78
16.48
11.36
5.76
0.08
-5.40
-10.51
-15.19
-19.49
-23.56
-27.55
-31.50
-35.26
-38.38
-40.26
-40.28
-38.08
-33.72
-27.72
-20.81
-13.77
-7.19
-1.45
3.28
6.88
9.29
10.46
10.47
9.52
8.00
6.30
4.78
3.67
3.05
2.90
3.09
3.46
3.82
4.01
4.04
4.01
4.16
4.77
6.00
7.82
9.96
11.99
13.49
14.23
14.28
14.10
14.39
15.75
18.39
21.89
25.32
27.53
27.62
25.31
21.09
16.13
11.88
9.66
10.24
13.73
19.54
26.67
33.90
40.14
44.80
47.74
49.21
49.59
49.19
48.08
46.09
42.90
38.18
32.11
25.18
18.12
11.59
6.05
1.74
-1.31
-3.18
-4.05
-3.40
-0.63
4.61
11.98
20.47
28.72
35.33
39.20
39.76
38.08
35.99
35.26
36.81
40.43
45.09
49.38
51.88
51.55
49.38
47.30
47.58
51.88
61.09
75.58
95.39
120.00
140.07
146.57
133.57
101.70
56.97
6.88
-41.99
-84.65
-117.94
-140.86
-153.15
-155.86
-150.92
-140.93
-128.68
-116.62
-106.60
-99.83
-96.79
-95.99
-95.12
-92.03
-85.82
-77.16
-67.83
-59.98
-55.32
-54.55
-56.45
-58.67
-58.40
-53.10
-41.06
-21.91
2.78
29.12
51.48
64.48
64.82
52.73
32.07
8.79
-11.41
-25.11
-31.91
-33.72
-32.94
-31.33
-29.75
-28.59
-28.58
-30.52
-34.49
-39.12
-41.45
-38.18
-26.79
-7.48
16.66
40.57
59.22
69.38
70.51
64.00
53.31
41.51
30.55
21.29
14.00
8.50
4.72
2.55
1.80
2.29
3.69
5.37
6.51
6.32
4.35
0.98
-2.73
-5.41
-6.09
-4.80
-2.66
-1.12
-0.98
-1.67
-1.41
1.96
9.88
22.34
37.66
52.77
63.92
67.69
61.86
46.12
22.36
-5.44
-32.27
-53.56
-65.80
-69.01
-65.82
-59.86
-54.30
-51.08
-50.83
-53.82
-58.35
-62.44
-63.71
-59.81
-49.52
-33.80
-15.65
1.19
14.01
22.50
28.44
34.47
42.15
51.68
61.48
69.56
74.93
77.76
78.76
77.88
74.25
66.87
55.71
41.95
27.86
15.77
7.19
2.41
0.90
2.04
5.47
10.94
18.09
26.16
34.12
40.98
46.20
49.51
51.07
51.33
50.96
50.73
51.62
54.57
60.24
68.59
78.33
87.43
93.86
96.21
94.28
89.00
81.70
73.22
65.59
59.52
55.07
52.05
49.99
48.11
45.33
40.68
33.82
25.37
16.37
7.62
-1.21
-11.86
-26.74
-47.55
-74.00
-103.48
-131.80
-155.05
-170.60
-177.94
-178.12
-173.09
-164.89
-155.14
-144.93
-134.88
-125.56
-117.29
-110.31
-104.62
-100.23
-97.19
-95.54
-95.19
-95.77
-97.11
-99.48
-103.98
-112.17
-125.75
-145.87
-172.46
-203.78
-236.66
-267.50
-292.92
-310.33
-317.17
-311.71
-293.69
-264.72
-227.95
-187.61
-148.52
-114.99
-89.53
-70.21
-52.83
-33.27
-9.53
18.16
48.03
77.81
105.98
132.55
161.05
194.79
233.38
272.00
303.90
323.39
327.30
315.40
290.25
260.20
235.10
222.40
225.28
243.81
276.11
318.44
365.57
391.11
375.53
319.66
243.95
169.79
107.91
59.93
22.73
-7.95
-36.03
-60.64
-79.89
-93.51
-103.60
-112.29
-120.52
-128.19
-134.98
-141.07
-143.26
-138.89
-128.20
-114.57
-102.17
-93.65
-89.54
-88.74
-89.37
-87.87
-81.99
-72.14
-61.12
-51.99
-46.15
-43.11
-41.12
-39.48
-36.26
-30.52
-23.07
-16.22
-12.31
-11.92
-13.97
-16.26
-16.60
-13.08
-5.39
5.13
16.19
25.83
34.00
41.56
49.30
57.22
64.93
71.76
77.24
81.35
84.48
88.37
94.07
101.14
107.88
112.56
114.27
113.20
110.30
106.91
105.76
108.55
115.05
123.39
131.52
137.91
141.50
141.24
126.53
92.57
43.45
-9.83
-56.87
-92.22
-114.89
-126.61
-130.16
-128.58
-122.88
-113.80
-102.73
-91.78
-82.83
-76.80
-73.62
-72.12
-71.01
-68.15
-62.55
-54.97
-47.53
-42.36
-40.49
-42.37
-46.35
-50.86
-54.02
-54.81
-53.40
-51.00
-49.36
-50.35
-55.52
-64.52
-75.03
-82.16
-79.98
-64.00
-33.57
7.41
52.03
88.78
110.42
115.91
109.67
98.42
87.59
79.79
75.34
73.92
75.40
79.78
85.93
89.56
85.38
69.42
41.39
5.76
-29.86
-56.24
-67.47
-63.85
-50.35
-33.19
-17.05
-3.76
7.11
16.30
24.06
30.00
33.69
35.29
35.81
36.51
38.14
41.47
45.89
50.44
54.20
56.74
58.31
59.74
61.99
65.78
71.44
77.96
84.37
89.86
94.07
97.22
99.99
103.17
107.35
113.08
119.68
126.62
133.31
139.24
143.90
146.67
146.40
140.84
134.16
127.43
121.39
116.49
112.80
109.98
107.19
103.32
97.10
88.15
76.08
61.51
45.33
28.24
10.40
-8.81
-30.49
-56.39
-86.61
-120.32
-155.74
-191.30
-226.18
-260.52
-295.35
-332.12
-373.50
-419.58
-468.45
-517.36
-563.89
-605.32
-638.23
-658.72
-663.54
-653.53
-629.43
-592.38
-545.33
-492.86
-438.68
-384.33
-329.55
-273.65
-219.27
-165.89
-110.01
-48.36
19.85
94.38
174.83
260.50
366.31
478.60
567.57
612.31
612.31
579.65
530.74
480.78
440.14
412.47
392.76
375.56
360.80
350.14
343.38
339.17
335.25
328.81
317.21
296.75
267.81
233.28
200.18
170.20
141.91
112.59
79.82
42.43
-0.48
-46.51
-90.77
-128.51
-158.30
-181.43
-201.30
-222.13
-247.26
-278.14
-312.07
-343.11
-364.65
-374.24
-374.55
-372.49
-376.35
-392.62
-423.77
-466.83
-514.08
-553.66
-575.60
-574.57
-550.48
-506.95
-449.99
-386.53
-322.81
-263.17
-205.90
-149.84
-96.78
-50.12
-11.36
20.66
48.64
75.51
103.28
138.72
183.81
233.78
280.69
319.76
350.62
375.41
396.75
416.58
443.69
481.51
525.31
566.04
598.27
621.32
636.84
646.77
601.53
484.47
324.67
168.98
42.39
-52.06
-120.66
-170.99
-209.27
-239.71
-255.74
-256.46
-247.01
-236.26
-226.99
-218.05
-207.79
-195.58
-180.81
-155.77
-121.28
-82.20
-46.15
-13.40
18.55
50.82
82.14
110.63
138.31
164.95
187.74
202.37
213.12
225.68
242.81
264.14
289.13
320.13
358.62
404.17
417.77
377.45
287.93
173.84
59.58
-38.24
-108.89
-147.73
-157.30
-146.26
-122.14
-92.89
-66.69
-49.16
-40.01
-35.31
-29.93
-19.11
-4.71
17.12
45.31
72.72
89.97
91.00
74.08
42.07
1.02
-46.31
-85.52
-105.90
-108.18
-104.52
-100.98
-99.46
-100.60
-100.62
-97.55
-87.19
-67.73
-39.94
-6.53
28.99
61.09
83.96
93.81
89.63
75.35
55.82
35.49
17.80
5.23
-1.90
-4.54
-3.84
-1.36
1.85
3.73
1.94
-5.19
-18.15
-37.42
-63.60
-97.21
-138.21
-184.62
-232.55
-276.43
-310.22
-329.21
-331.99
-320.47
-298.71
-271.36
-242.23
-214.01
-188.43
-166.50
-148.34
-133.08
-118.53
-101.68
-79.92
-52.30
-20.45
11.77
39.41
58.05
65.19
60.98
48.20
31.70
17.45
11.30
17.49
37.16
67.49
102.07
132.54
151.30
154.03
141.00
116.73
87.88
60.75
39.34
24.67
15.45
9.56
5.30
2.13
0.58
1.62
5.81
13.04
22.31
31.98
40.13
44.89
44.73
38.64
26.33
8.40
-13.61
-37.49
-60.91
-82.06
-100.25
-116.02
-130.67
-145.53
-161.09
-176.62
-190.24
-199.61
-202.78
-198.92
-188.74
-174.22
-158.10
-142.94
-130.37
-120.78
-113.45
-107.17
-101.13
-95.35
-90.60
-87.93
-87.88
-90.00
-92.90
-94.70
-93.70
-88.93
-80.31
-68.45
-54.29
-38.67
-22.07
-4.50
14.35
34.72
56.45
78.72
100.19
119.53
135.84
149.05
159.72
168.52
175.65
180.46
181.61
177.64
167.72
152.24
132.84
111.99
92.35
76.20
65.00
59.28
58.63
61.91
67.38
73.04
76.94
77.57
74.22
67.00
56.88
45.32
34.11
24.95
19.19
17.51
19.90
25.30
31.72
37.11
40.22
41.20
41.34
42.31
45.40
51.19
59.22
68.27
76.98
84.49
90.55
95.28
98.83
101.26
103.30
105.60
108.29
111.04
113.40
115.05
115.75
115.27
113.47
112.35
113.47
116.92
121.64
126.91
132.95
140.42
149.58
160.00
174.57
194.34
216.54
235.51
246.28
246.73
237.42
220.92
201.03
188.23
189.89
205.76
228.65
250.23
265.01
270.90
268.30
259.32
255.43
265.53
290.89
326.04
364.57
402.31
435.76
460.74
420.84
290.56
93.22
-113.80
-283.38
-398.63
-463.93
-492.21
-496.98
-489.26
-468.63
-434.91
-393.21
-352.56
-319.65
-295.42
-277.74
-263.76
-251.66
-234.37
-207.94
-175.12
-142.30
-115.42
-96.31
-83.93
-74.98
-65.75
-49.73
-24.01
8.40
40.20
64.49
78.17
80.81
74.67
62.88
50.28
40.22
33.39
28.14
21.26
16.59
14.09
12.41
9.44
3.88
-5.07
-17.96
-35.06
-55.85
-78.43
-100.72
-119.55
-131.98
-136.81
-135.39
-131.43
-129.48
-133.01
-142.93
-158.66
-178.40
-200.98
-226.56
-255.78
-287.72
-318.17
-339.54
-343.07
-323.15
-279.78
-219.83
-155.21
-98.93
-60.92
-45.39
-50.77
-71.81
-102.61
-137.86
-172.99
-203.05
-222.01
-223.30
-201.66
-155.22
-86.65
-2.69
87.76
175.89
254.59
319.16
367.22
398.04
411.93
409.73
392.52
361.43
317.60
262.23
196.53
121.92
40.26
-45.47
-130.49
-207.99
-269.90
-308.92
-320.91
-306.49
-270.87
-221.68
-166.20
-109.27
-53.00
1.74
53.64
99.80
136.17
158.88
165.70
156.80
134.65
103.23
67.09
30.57
-2.64
-29.81
-49.43
-61.47
-67.36
-69.43
-69.89
-69.76
-68.23
-62.89
-51.01
-31.19
-4.51
25.60
54.64
79.07
97.67
111.58
123.17
134.33
145.33
154.75
160.51
161.10
156.36
147.30
135.31
121.31
105.51
87.91
69.15
50.93
35.63
25.20
19.92
17.95
15.99
10.72
0.29
-15.03
-33.28
-51.95
-69.04
-83.55
-95.29
-104.39
-111.02
-115.32
-117.64
-118.53
-118.67
-118.50
-117.85
-115.88
-111.38
-103.17
-90.72
-74.54
-56.19
-38.01
-22.29
-10.61
-3.37
0.15
1.18
0.74
-0.82
-3.76
-8.60
-15.42
-23.59
-31.85
-38.56
-42.01
-40.77
-33.98
-21.74
-5.47
12.27
28.59
41.52
50.99
58.95
68.15
80.39
95.37
110.73
123.39
131.16
133.50
131.03
124.17
112.07
92.78
64.86
29.23
-10.03
-46.61
-74.18
-88.89
-90.57
-82.68
-70.66
-59.61
-52.44
-49.48
-49.39
-50.75
-53.23
-57.36
-64.65
-76.74
-94.29
-116.40
-140.89
-165.14
-186.82
-203.99
-213.68
-213.36
-201.76
-178.99
-146.13
-104.96
-58.11
-9.13
37.77
80.30
116.33
143.95
162.42
173.20
179.57
184.92
191.05
197.90
206.50
216.61
226.48
233.99
238.52
241.57
245.94
254.31
251.99
231.04
194.32
152.42
113.98
82.06
56.10
33.76
11.83
-11.96
-35.56
-55.61
-69.47
-76.51
-77.94
-76.45
-75.50
-78.91
-87.93
-99.94
-111.70
-121.17
-127.89
-131.96
-133.31
-129.06
-120.06
-107.80
-92.68
-75.23
-56.56
-38.08
-20.87
-5.43
8.17
19.98
30.22
39.40
47.31
52.80
54.22
50.61
42.52
32.20
22.53
16.40
15.37
18.90
24.68
29.78
31.93
30.25
24.53
15.48
4.39
-7.65
-19.93
-31.86
-42.65
-51.38
-57.23
-59.80
-59.40
-56.97
-53.79
-51.01
-49.17
-48.18
-47.76
-47.68
-47.79
-47.88
-47.61
-46.56
-44.24
-40.19
-34.19
-26.51
-17.86
-8.86
0.38
10.36
21.61
33.39
44.47
54.13
61.82
66.76
68.18
65.83
60.26
52.64
44.40
36.88
31.39
28.53
27.91
28.10
26.76
21.16
9.32
-8.34
-30.26
-52.60
-71.05
-82.51
-86.02
-82.82
-75.39
-66.32
-57.28
-48.92
-40.84
-32.70
-24.75
-17.61
-11.98
-8.20
-6.02
-4.45
-3.78
-3.39
-2.63
-1.03
1.52
4.74
7.86
9.89
9.92
7.44
3.09
-1.85
-5.86
-7.59
-6.30
-1.99
4.76
13.03
21.90
30.88
39.61
47.65
54.51
59.66
62.71
63.56
62.35
59.43
55.46
51.01
46.35
41.40
35.84
29.36
21.87
13.51
4.56
-4.26
-12.33
-19.24
-24.79
-28.77
-30.93
-31.25
-30.14
-28.46
-26.38
-23.67
-20.00
-15.21
-9.37
-2.78
3.98
10.10
14.80
18.77
23.07
28.28
33.87
38.60
41.26
40.97
37.44
31.14
25.02
22.71
27.11
39.16
58.10
82.36
109.97
138.97
158.18
159.03
139.93
107.30
70.00
33.95
1.53
-27.10
-52.48
-75.04
-93.30
-105.53
-111.03
-110.68
-106.54
-100.26
-93.31
-87.23
-83.55
-82.19
-82.15
-82.05
-80.69
-76.94
-69.43
-57.65
-42.29
-24.52
-5.34
14.51
34.09
52.15
67.47
79.85
89.10
94.94
97.09
95.80
91.50
84.41
74.84
59.93
40.79
21.05
4.29
-8.20
-17.02
-22.90
-25.74
-24.39
-17.74
-5.84
8.15
19.03
22.32
17.15
6.48
-4.90
-13.40
-16.47
-12.62
-1.94
14.26
33.86
54.20
71.35
79.65
73.87
51.62
14.73
-32.16
-83.72
-136.23
-184.78
-219.80
-234.65
-228.88
-207.68
-177.71
-143.61
-107.18
-69.19
-31.15
3.64
30.44
45.98
50.54
48.03
43.81
42.26
45.11
51.64
59.49
65.93
69.34
69.87
69.61
69.31
69.06
68.22
65.91
61.57
55.39
47.99
40.58
34.70
31.17
29.79
29.19
27.15
22.06
14.02
4.15
-5.40
-12.03
-14.31
-12.68
-9.24
-5.54
-2.64
0.20
3.53
7.96
14.07
21.25
27.49
30.28
26.78
16.05
-0.21
-20.22
-40.68
-56.41
-62.21
-54.60
-27.72
15.07
56.35
85.85
97.61
88.62
61.28
21.53
-23.94
-69.84
-114.14
-147.12
-159.47
-150.89
-127.90
-96.51
-59.44
-17.97
25.32
65.20
94.89
112.38
116.01
107.23
91.09
73.67
59.62
51.08
47.26
49.23
55.95
63.55
67.42
63.79
50.60
28.47
1.09
-26.10
-48.07
-63.29
-74.75
-87.02
-103.12
-123.05
-144.14
-163.32
-179.51
-194.39
-211.19
-231.72
-253.74
-271.26
-277.34
-267.64
-242.22
-204.79
-160.23
-112.36
-63.63
-16.36
25.62
57.07
73.29
72.72
58.44
37.52
18.87
9.58
12.55
26.33
47.05
70.79
94.63
116.70
135.76
151.77
164.80
174.46
179.49
178.77
171.86
159.24
142.12
122.44
103.86
89.89
82.48
81.18
85.16
94.56
110.32
133.46
155.35
167.00
164.14
149.81
129.22
107.18
87.03
69.84
54.21
37.04
16.68
-6.49
-30.32
-53.29
-74.95
-94.86
-113.36
-131.26
-148.84
-164.17
-174.38
-171.57
-156.51
-133.71
-108.64
-85.80
-67.49
-53.85
-43.08
-33.20
-23.35
-14.91
-8.91
-5.52
-4.21
-3.99
-3.89
-2.95
-0.65
2.82
5.97
7.89
8.49
8.24
7.86
7.97
8.93
10.64
12.62
13.77
13.67
12.59
11.36
10.87
11.64
13.57
15.88
17.56
17.59
15.84
13.11
10.86
10.48
12.55
16.56
20.86
23.54
23.05
19.14
12.78
6.05
0.64
-2.74
-4.87
-7.66
-13.08
-22.34
-35.16
-50.81
-67.49
-82.59
-92.80
-94.55
-85.02
-63.59
-33.13
-0.21
26.88
41.32
40.82
28.79
12.73
0.13
-4.84
-3.07
0.72
1.31
-3.73
-12.81
-21.62
-25.80
-23.57
-16.53
-8.52
-2.98
-0.98
-0.83
0.20
3.83
9.52
14.79
17.01
15.32
11.30
8.14
8.91
14.58
23.58
32.76
39.15
41.04
39.42
36.34
33.82
32.99
34.33
36.94
40.19
43.45
46.36
48.78
50.58
51.99
53.83
57.35
63.35
71.27
78.42
80.19
71.77
50.41
17.19
-22.87
-62.51
-94.89
-115.34
-122.10
-115.58
-97.44
-70.13
-37.11
-2.88
27.44
49.34
60.55
61.67
55.49
45.46
34.19
22.81
11.60
1.13
-7.62
-13.24
-14.57
-11.35
-4.44
4.53
13.80
21.99
28.27
32.08
33.04
31.05
26.45
20.53
15.57
14.10
17.50
24.93
33.23
38.13
36.11
25.54
7.65
-13.93
-34.86
-52.07
-64.56
-72.92
-78.08
-80.42
-80.58
-78.86
-75.23
-69.98
-64.44
-60.86
-61.11
-65.49
-72.21
-79.30
-83.86
-82.39
-72.09
-52.91
-27.89
-1.73
20.96
36.98
42.98
37.34
20.74
-4.46
-35.95
-71.49
-107.50
-138.41
-145.82
-117.83
-59.61
8.30
64.55
96.77
103.23
90.81
70.67
53.18
41.43
33.84
28.10
23.21
18.97
15.86
15.14
18.32
26.19
36.91
49.54
63.27
77.74
91.34
101.15
104.16
98.07
81.83
54.92
18.92
-20.26
-51.86
-67.28
-65.31
-50.60
-29.23
-5.88
15.94
34.50
49.40
60.73
68.41
72.72
74.93
77.11
81.05
86.98
94.58
102.92
110.46
115.55
116.96
115.43
112.87
111.53
112.22
115.24
119.95
124.35
126.33
124.84
120.57
115.58
112.11
110.65
111.05
111.93
109.36
99.80
81.62
54.99
20.33
-14.66
-46.72
-74.19
-97.35
-120.89
-148.41
-180.45
-215.28
-250.04
-284.16
-317.20
-346.09
-366.16
-377.72
-381.13
-376.86
-367.37
-356.85
-353.48
-362.55
-383.11
-410.06
-443.65
-482.65
-523.05
-559.73
-587.04
-605.16
-614.21
-613.13
-562.32
-453.94
-315.98
-189.95
-114.02
-73.79
-53.26
-40.33
-25.55
-5.65
13.46
27.92
39.77
55.08
81.13
117.63
162.17
211.52
261.46
303.05
330.79
345.30
351.35
355.31
358.19
359.76
359.44
356.12
346.01
327.65
303.36
277.74
255.80
238.48
225.55
216.65
211.51
208.66
207.14
206.33
205.00
201.24
191.78
174.78
150.86
122.75
93.53
66.27
43.42
26.74
17.25
14.73
17.80
23.58
27.54
24.37
9.75
-17.69
-55.12
-95.91
-131.49
-154.21
-159.91
-149.07
-126.15
-97.41
-68.45
-42.48
-19.95
0.41
20.09
39.56
57.85
73.15
83.90
89.57
90.81
88.95
85.22
80.18
73.66
65.26
55.11
44.01
33.20
23.54
15.02
6.75
-2.47
-13.37
-25.85
-39.25
-52.83
-66.11
-78.72
-90.05
-99.00
-104.15
-104.31
-98.94
-88.27
-72.95
-53.61
-30.71
-4.81
23.08
51.20
77.35
99.37
115.55
124.85
126.79
121.35
109.17
91.78
71.70
52.21
36.55
26.99
24.27
27.48
34.57
43.09
50.93
56.70
59.66
59.53
56.34
50.35
42.18
32.87
23.89
16.90
13.25
13.52
17.06
22.09
26.21
27.27
24.28
17.81
9.72
2.25
-3.01
-5.81
-7.01
-7.85
-9.14
-10.93
-12.79
-14.46
-16.09
-17.73
-18.52
-16.06
-6.84
12.11
41.24
77.33
114.16
144.84
164.53
172.13
170.06
162.52
153.17
143.40
132.11
116.67
94.52
64.72
28.91
-8.82
-42.93
-68.24
-81.70
-83.53
-77.02
-67.01
-57.86
-51.77
-48.42
-46.09
-43.18
-39.29
-35.13
-31.69
-29.29
-27.24
-24.38
-19.92
-13.78
-6.81
-0.80
3.05
4.69
4.79
4.18
3.15
1.01
-3.43
-11.17
-22.48
-35.36
-45.81
-49.85
-45.70
-35.25
-23.71
-16.71
-18.27
-30.07
-49.52
-71.40
-91.34
-107.58
-120.89
-132.85
-142.03
-145.55
-143.45
-134.80
-117.98
-93.28
-62.41
-27.43
10.18
54.15
108.66
170.01
235.72
304.87
372.11
428.47
464.04
471.65
455.90
425.56
378.91
317.50
247.88
174.76
103.37
41.24
-2.27
-10.99
24.36
88.64
165.73
247.25
327.17
404.56
482.70
514.32
470.57
427.78
411.09
391.58
357.37
304.17
234.87
156.98
78.83
14.35
-28.21
-61.48
-94.95
-129.27
-164.50
-200.51
-237.87
-278.12
-316.08
-345.61
-370.66
-389.09
-393.15
-378.71
-347.61
-307.67
-270.14
-241.45
-224.46
-224.97
-242.55
-273.51
-314.95
-365.65
-425.23
-492.42
-560.93
-621.07
-664.75
-683.34
-672.51
-632.07
-566.17
-482.43
-390.73
-300.89
-222.02
-162.60
-109.50
-58.71
-10.90
31.68
68.56
100.78
129.12
153.56
174.15
191.46
203.46
209.39
209.38
204.26
195.46
184.97
175.21
168.33
165.45
164.30
162.82
159.68
154.59
148.00
140.81
133.96
128.07
123.17
117.37
109.18
97.88
83.61
67.06
49.13
30.73
14.01
-0.93
-14.75
-27.62
-39.16
-48.60
-55.27
-58.94
-60.08
-59.71
-59.31
-60.07
-62.34
-65.53
-68.38
-69.86
-69.44
-67.46
-64.89
-63.03
-62.79
-64.80
-69.43
-76.51
-84.67
-90.89
-90.95
-80.89
-59.25
-28.26
6.33
37.37
59.25
70.02
71.61
68.12
63.38
59.26
55.64
51.59
46.74
41.76
38.00
36.43
36.91
38.27
38.99
37.80
34.52
29.91
25.29
21.92
20.49
20.85
22.19
23.43
23.66
22.57
20.38
17.76
15.49
14.18
14.07
14.98
16.48
17.94
18.89
19.01
18.29
17.09
15.91
15.37
15.90
17.62
20.22
23.10
25.50
26.71
26.33
24.37
21.44
18.83
18.38
21.82
29.39
38.93
45.63
43.51
27.95
-1.85
-42.09
-85.66
-124.73
-153.21
-167.94
-168.35
-155.50
-131.40
-98.94
-62.15
-26.02
4.43
25.54
35.77
36.05
29.13
18.30
7.07
-1.37
-4.84
-2.46
4.87
14.81
24.56
31.58
33.63
28.52
14.36
-9.11
-39.04
-68.91
-90.12
-95.39
-82.24
-54.58
-20.67
10.74
34.59
50.83
62.30
70.92
74.21
66.91
43.19
2.03
-50.37
-101.82
-138.92
-152.88
-143.02
-116.39
-84.04
-55.86
-36.60
-25.32
-17.53
-8.80
2.80
16.26
29.12
39.53
47.37
54.32
62.51
73.17
85.67
97.82
107.21
112.37
113.73
113.36
114.19
118.66
127.90
141.16
156.30
171.05
184.21
196.39
209.65
226.41
247.72
272.22
295.70
312.49
317.65
308.79
286.98
256.07
221.36
186.62
156.01
132.60
117.88
111.34
110.10
109.24
102.84
85.91
56.15
15.03
-33.00
-81.98
-126.31
-162.27
-188.56
-205.99
-216.78
-223.63
-228.90
-234.38
-241.08
-249.62
-260.97
-276.82
-299.10
-328.34
-361.81
-393.17
-413.96
-416.62
-397.41
-358.11
-305.38
-248.45
-196.55
-157.27
-136.10
-136.19
-157.22
-194.34
-237.60
-273.45
-288.44
-274.19
-231.21
-169.63
-105.36
-53.60
-22.70
-10.95
-8.03
0.24
25.53
72.14
135.40
204.15
265.32
308.72
330.04
330.76
316.24
293.47
269.44
249.12
234.62
225.75
221.59
221.90
225.59
231.28
236.00
235.71
227.01
208.92
183.41
154.47
127.49
105.45
88.74
75.36
62.26
46.85
28.17
7.24
-13.33
-30.48
-43.28
-52.11
-58.44
-64.07
-70.31
-77.92
-87.51
-99.80
-115.46
-135.93
-160.34
-184.65
-202.77
-209.29
-202.74
-187.09
-170.42
-161.49
-168.47
-194.99
-239.93
-299.06
-366.43
-435.33
-498.38
-547.81
-565.14
-539.64
-472.52
-377.79
-276.52
-186.93
-118.53
-71.58
-40.97
-20.52
-7.48
-2.39
-3.72
-8.89
-14.34
-16.92
-14.93
-8.33
1.77
12.50
21.81
29.62
36.29
43.35
52.32
63.86
77.60
92.55
106.75
118.94
129.12
138.19
147.75
159.08
172.68
188.45
206.13
225.29
245.68
266.95
288.00
306.85
320.89
327.73
326.05
316.18
299.63
278.59
255.25
231.36
208.29
187.18
168.75
153.08
139.35
125.98
111.35
94.77
77.21
61.27
50.23
46.60
50.90
61.34
74.62
87.28
97.05
103.27
106.52
107.57
106.61
103.01
95.93
84.97
70.81
55.10
39.96
27.27
18.05
12.24
9.03
7.41
6.77
7.37
10.14
16.00
24.96
35.57
45.09
50.55
50.04
43.51
32.67
19.98
7.49
-3.83
-14.01
-23.43
-32.29
-40.45
-47.80
-54.45
-60.67
-66.52
-71.55
-75.02
-76.34
-75.62
-73.76
-71.98
-71.01
-70.71
-70.13
-68.09
-63.81
-57.22
-48.74
-38.93
-28.13
-16.43
-3.91
9.15
22.18
34.44
45.14
53.61
59.34
62.03
61.71
58.75
53.81
47.72
41.09
34.14
26.65
18.23
8.65
-1.86
-12.58
-22.48
-30.73
-37.00
-41.71
-45.85
-50.64
-57.06
-65.46
-75.52
-86.21
-96.22
-104.32
-109.80
-112.68
-113.63
-113.67
-113.71
-114.25
-115.36
-116.78
-118.20
-119.32
-119.96
-119.99
-119.34
-118.05
-116.35
-114.59
-113.04
-111.69
-110.13
-107.75
-104.13
-99.33
-94.09
-89.64
-87.31
-88.02
-91.86
-97.97
-104.77
-110.43
-113.57
-113.58
-110.78
-105.98
-99.93
-92.82
-84.21
-73.50
-60.67
-46.68
-33.32
-22.60
-15.88
-13.31
-13.73
-15.13
-15.05
-11.06
-1.09
16.13
40.54
70.28
101.86
130.93
153.74
168.36
175.17
176.35
174.59
172.02
170.00
169.53
171.62
177.33
186.87
198.79
209.95
216.56
215.95
208.06
195.43
181.52
168.35
154.89
137.06
109.53
68.49
14.02
-48.87
-110.87
-160.50
-186.90
-182.55
-145.38
-79.46
5.89
98.42
186.05
259.59
314.29
349.59
367.51
370.79
361.40
340.33
308.29
266.63
217.67
164.40
109.43
54.16
-1.54
-58.63
-117.73
-178.35
-238.96
-297.60
-352.90
-404.29
-451.42
-493.17
-527.29
-550.97
-562.18
-560.62
-547.74
-525.56
-495.43
-457.55
-411.63
-358.41
-300.65
-242.82
-189.51
-143.59
-104.98
-71.07
-38.35
-4.55
29.91
61.82
86.63
100.76
103.52
97.78
89.03
83.30
85.10
96.16
115.57
140.55
167.55
192.68
212.00
221.94
220.20
206.88
184.99
159.89
137.49
122.13
115.15
114.89
117.83
120.27
119.80
115.98
110.07
104.14
99.92
98.13
98.31
99.24
99.62
98.55
95.72
91.13
84.76
76.42
66.10
54.36
42.47
32.04
24.11
18.32
12.77
4.80
-7.56
-24.32
-43.18
-60.27
-71.55
-74.22
-67.45
-52.39
-31.72
-9.04
11.75
27.15
34.90
34.68
28.33
19.19
10.84
5.72
4.43
5.88
8.23
9.93
10.15
8.73
5.72
1.06
-5.40
-13.55
-22.75
-32.00
-40.25
-47.05
-52.62
-57.65
-62.72
-67.71
-71.55
-72.60
-69.32
-61.07
-48.45
-33.17
-17.37
-2.98
8.84
17.71
23.82
27.49
29.06
28.74
26.80
23.62
19.77
15.85
12.31
9.34
6.89
4.79
3.02
1.74
1.32
2.02
3.89
6.57
9.41
11.73
12.98
12.95
11.66
9.38
6.50
3.53
0.93
-0.96
-2.10
-2.74
-3.35
-4.42
-6.17
-8.54
-11.25
-13.94
-16.42
-18.63
-20.65
-22.62
-24.72
-27.23
-30.52
-34.91
-40.49
-46.82
-53.02
-57.92
-60.46
-60.03
-56.58
-50.33
-41.46
-29.89
-15.33
2.07
21.35
40.33
56.18
66.02
68.07
62.20
49.96
34.20
18.08
4.25
-5.71
-11.44
-13.61
-13.50
-12.59
-12.24
-13.36
-16.24
-20.26
-23.96
-25.36
-22.76
-15.73
-5.87
3.22
7.15
2.55
-11.36
-32.29
-55.91
-77.63
-94.10
-103.75
-106.43
-102.40
-92.11
-76.56
-57.95
-39.86
-26.37
-20.33
-21.91
-28.41
-35.57
-39.65
-39.05
-34.46
-27.86
-20.92
-14.06
-6.55
2.54
13.41
25.18
36.39
45.64
52.07
55.45
56.14
54.99
53.30
52.67
54.35
58.64
64.49
69.83
72.68
72.19
69.06
65.06
61.92
60.40
60.08
59.94
59.46
59.07
59.95
63.20
68.99
76.24
83.03
87.63
89.29
88.58
86.82
85.17
83.82
81.91
78.09
71.34
61.65
50.01
38.18
27.70
19.16
12.32
6.51
1.14
-3.92
-8.43
-12.19
-14.69
-15.86
-15.98
-15.42
-14.35
-12.51
-9.29
-4.06
3.39
13.63
26.66
42.02
58.92
76.35
93.19
108.27
120.63
129.80
137.69
147.38
162.54
185.98
218.18
256.71
297.01
334.35
357.50
359.75
339.02
298.01
242.53
178.85
111.68
43.98
-22.06
-83.95
-137.68
-179.97
-209.39
-226.81
-234.82
-236.56
-234.70
-231.06
-226.77
-221.52
-214.62
-205.23
-192.64
-176.85
-158.79
-140.27
-123.55
-110.59
-101.81
-96.48
-93.06
-89.92
-86.00
-81.07
-75.59
-70.46
-66.60
-64.48
-64.21
-65.38
-66.95
-67.41
-65.13
-58.99
-48.99
-36.54
-23.98
-13.87
-8.15
-7.54
-11.28
-17.50
-23.92
-28.57
-30.30
-29.12
-25.87
-21.77
-17.82
-14.41
-11.25
-7.68
-3.12
2.53
8.85
15.05
20.44
24.65
27.68
29.62
30.47
30.02
28.35
25.73
23.13
21.93
22.96
25.99
29.51
31.23
28.96
21.79
10.41
-3.06
-16.05
-26.55
-33.70
-37.69
-39.19
-38.95
-37.43
-34.92
-31.73
-28.19
-24.57
-20.94
-17.46
-14.40
-12.27
-11.38
-11.36
-11.11
-9.25
-4.92
1.75
9.28
15.51
18.18
16.44
11.17
4.51
-1.12
-4.09
-3.83
-0.81
4.01
9.08
13.29
16.27
18.06
19.03
19.55
20.02
20.57
20.90
18.94
12.22
-1.38
-22.72
-50.49
-81.78
-112.54
-138.95
-154.96
-159.36
-154.08
-142.38
-127.60
-112.23
-98.73
-88.14
-80.92
-73.44
-62.33
-44.17
-17.23
16.76
53.42
86.10
109.91
122.83
125.86
120.32
108.02
91.67
71.13
50.06
33.07
26.33
32.44
52.11
80.68
109.78
131.42
140.30
141.97
138.24
131.53
124.54
120.12
119.99
120.63
120.46
117.86
112.26
102.93
90.98
77.91
64.66
50.46
33.42
12.79
-11.13
-36.45
-61.28
-83.35
-101.75
-117.16
-131.09
-144.20
-153.80
-155.54
-145.63
-124.08
-95.58
-69.04
-54.48
-55.69
-71.78
-93.76
-109.63
-111.54
-99.31
-78.27
-55.31
-35.45
-20.66
-10.54
-3.04
3.36
9.16
14.43
19.45
24.87
31.36
38.62
45.41
50.16
51.36
48.70
44.90
44.89
54.49
77.69
113.35
155.14
193.11
216.78
219.02
198.32
159.21
110.62
62.13
19.85
-13.47
-37.92
-55.02
-66.41
-74.43
-80.75
-86.72
-87.02
-80.92
-69.68
-55.99
-43.27
-34.49
-32.85
-37.30
-41.71
-37.93
-21.94
4.84
35.55
60.85
72.69
63.88
34.13
-9.57
-57.12
-101.49
-139.49
-171.02
-196.78
-217.24
-237.21
-259.83
-284.85
-310.29
-335.33
-359.34
-380.06
-392.82
-364.78
-284.58
-171.81
-61.20
23.69
77.41
105.82
117.95
121.13
119.12
108.11
85.81
55.71
25.39
2.18
-9.55
-9.92
-1.66
10.42
16.37
7.35
-20.73
-66.15
-121.55
-175.61
-215.54
-231.01
-217.98
-181.69
-130.68
-71.89
-12.17
44.02
94.55
138.54
175.06
202.69
219.49
226.10
226.67
227.20
233.23
246.99
266.98
289.44
310.46
327.87
342.16
355.42
368.78
380.60
385.71
377.11
348.29
295.78
220.86
129.92
33.67
-54.62
-121.28
-155.29
-151.03
-111.22
-47.63
21.38
75.97
100.99
90.88
51.69
-1.42
-49.27
-76.51
-77.06
-54.96
-21.03
12.08
33.99
38.33
22.53
-11.97
-61.52
-120.10
-178.37
-224.22
-245.96
-237.16
-199.17
-140.58
-72.02
-4.36
53.61
96.91
125.05
141.12
149.90
157.07
155.91
143.89
122.80
96.64
68.76
41.99
19.54
4.22
-2.48
0.19
10.45
25.01
39.15
48.57
51.05
45.71
31.35
6.97
-28.04
-68.43
-107.76
-141.17
-165.32
-178.49
-173.57
-149.60
-113.95
-77.72
-46.55
-20.91
0.71
18.04
34.28
50.79
66.44
78.96
86.62
90.53
92.48
91.14
85.30
75.41
62.70
53.28
52.50
53.17
52.87
55.15
59.75
65.18
69.73
71.37
68.05
57.68
39.13
13.65
-18.21
-57.59
-105.22
-160.71
-222.89
-289.73
-358.42
-424.32
-479.49
-515.83
-527.78
-513.19
-474.29
-417.35
-350.35
-280.48
-212.00
-145.17
-79.12
-14.19
47.69
103.22
148.68
181.37
200.21
206.03
201.66
190.54
175.69
159.16
141.58
122.28
100.18
74.81
47.15
19.84
-3.83
-21.23
-31.16
-34.11
-31.99
-27.39
-23.08
-21.56
-24.68
-33.22
-46.71
-63.35
-80.50
-95.45
-106.00
-110.80
-109.13
-100.58
-84.83
-61.88
-32.36
2.47
41.03
81.84
123.66
165.25
204.93
240.41
269.24
289.60
301.07
304.55
301.45
292.55
277.31
254.31
222.44
182.03
135.38
86.16
38.28
-5.25
-42.65
-73.10
-96.23
-111.75
-119.50
-119.69
-113.27
-102.08
-88.68
-75.73
-65.26
-58.07
-53.57
-49.98
-45.21
-37.80
-27.70
-16.46
-6.35
0.84
4.61
5.95
6.77
9.00
13.89
21.46
30.32
38.59
44.87
48.77
50.95
52.86
56.33
63.12
74.14
88.06
102.05
112.48
115.59
108.10
87.91
55.02
11.97
-36.52
-85.79
-130.73
-166.34
-189.09
-198.01
-195.35
-185.45
-173.13
-162.17
-156.25
-156.63
-162.02
-169.92
-178.01
-185.18
-190.55
-192.73
-179.02
-142.83
-88.50
-29.45
20.97
56.13
75.58
83.30
84.94
85.55
86.13
85.46
83.71
79.73
73.82
66.74
59.64
53.22
47.57
41.01
32.06
20.63
7.94
-3.65
-13.84
-21.79
-27.06
-29.60
-30.48
-30.86
-31.35
-32.15
-32.39
-31.45
-28.89
-24.80
-19.17
-12.39
-4.87
3.33
12.12
22.85
36.24
51.92
68.24
83.49
96.34
105.95
112.57
116.63
120.86
126.97
134.78
142.03
146.74
148.31
147.24
145.39
144.18
147.12
155.86
169.26
183.50
195.67
205.50
214.66
225.87
221.76
192.64
141.22
78.59
13.51
-48.67
-102.54
-149.98
-192.22
-231.98
-269.94
-307.17
-337.30
-355.90
-358.95
-343.64
-309.81
-259.98
-199.54
-131.91
-59.53
14.88
86.25
144.21
175.01
173.27
146.81
108.66
70.54
38.69
14.23
-4.86
-20.23
-31.85
-37.83
-36.52
-28.98
-17.78
-5.66
4.81
13.31
20.62
26.93
32.98
39.57
46.91
54.94
63.94
74.14
85.59
98.04
109.10
117.58
124.55
132.40
140.53
147.06
147.86
137.82
112.59
67.39
2.20
-77.33
-162.28
-244.66
-319.42
-384.77
-440.35
-465.07
-445.94
-386.07
-303.35
-217.86
-142.97
-84.36
-42.36
-13.76
6.04
17.38
20.47
17.58
12.86
10.29
14.09
27.38
51.43
84.72
119.41
148.00
167.40
178.61
184.21
185.78
183.12
175.05
160.95
133.56
86.94
28.64
-25.13
-60.85
-76.68
-80.44
-84.12
-90.44
-97.10
-97.67
-84.79
-54.89
-8.14
47.56
96.25
123.65
125.81
108.76
83.78
61.03
45.08
35.21
27.57
19.28
10.85
5.06
4.06
7.66
13.94
17.54
13.85
1.51
-15.50
-29.09
-31.92
-20.83
1.34
27.44
49.44
62.80
68.01
69.64
73.26
78.82
84.53
86.76
81.88
68.25
47.40
22.79
-2.55
-28.51
-59.29
-97.75
-142.21
-185.50
-216.80
-225.44
-205.41
-158.27
-85.52
-3.76
64.69
105.84
120.02
115.66
100.86
80.45
56.88
32.48
9.22
-9.37
-20.29
-23.70
-23.03
-23.08
-27.27
-36.45
-49.52
-65.48
-82.13
-96.50
-107.29
-112.41
-111.30
-104.38
-92.99
-79.28
-66.44
-56.92
-52.06
-52.34
-57.46
-66.60
-78.01
-89.41
-98.62
-104.44
-106.32
-104.34
-99.48
-93.23
-87.38
-82.92
-79.96
-77.42
-73.18
-64.64
-49.71
-27.66
0.78
33.60
68.15
101.54
130.84
153.30
166.73
170.04
163.51
148.85
128.62
105.67
82.74
62.35
46.76
37.73
36.11
41.53
52.41
66.16
79.74
90.33
96.03
96.49
93.19
89.17
88.10
92.75
103.69
118.92
134.74
147.35
154.58
156.31
153.90
148.77
141.25
130.54
115.76
97.18
76.70
56.96
39.95
25.92
13.53
0.92
-12.93
-27.57
-41.60
-53.66
-63.65
-72.97
-83.69
-97.30
-113.45
-129.86
-142.99
-149.51
-147.23
-136.25
-118.92
-98.93
-79.93
-64.41
-53.50
-47.35
-45.91
-48.51
-54.66
-63.82
-74.77
-85.38
-93.14
-96.51
-95.82
-93.33
-90.33
-87.55
-84.93
-81.59
-76.11
-67.23
-54.90
-40.33
-25.65
-9.83
8.66
30.47
54.57
79.00
101.68
120.82
135.47
145.11
153.55
164.21
178.13
193.83
209.33
223.86
237.79
252.31
248.84
217.11
160.31
93.89
33.43
-13.26
-45.48
-66.40
-76.95
-82.88
-84.10
-79.50
-69.17
-55.12
-39.81
-24.61
-13.44
-7.55
-7.70
-10.60
-13.53
-15.78
-18.52
-22.99
-29.11
-35.55
-39.98
-43.74
-45.20
-43.47
-39.27
-34.58
-31.21
-29.95
-30.58
-32.03
-33.68
-33.96
-32.21
-28.85
-24.89
-21.18
-17.98
-15.19
-12.54
-10.25
-8.24
-6.38
-4.41
-1.84
1.75
6.41
11.48
15.99
19.18
20.23
19.18
16.54
13.18
9.90
7.31
5.74
5.37
6.34
8.50
11.90
16.44
21.70
26.80
30.56
31.81
29.82
24.68
16.98
8.35
0.81
-3.77
-4.40
-0.86
6.41
16.11
29.05
43.59
57.65
69.46
77.84
82.26
83.01
81.06
77.59
73.82
70.45
68.31
68.10
69.94
72.67
74.87
75.21
72.60
66.30
55.84
41.89
25.98
9.81
-6.68
-22.91
-37.19
-47.57
-52.81
-53.09
-49.36
-42.96
-35.52
-31.13
-30.68
-31.53
-30.39
-26.16
-20.61
-16.28
-14.81
-17.13
-28.50
-51.06
-83.60
-124.13
-171.63
-225.68
-283.24
-338.33
-385.07
-425.34
-458.18
-477.79
-477.25
-453.37
-410.34
-356.06
-299.24
-209.37
-89.62
30.45
123.92
186.37
226.85
250.87
258.25
253.80
242.60
223.35
197.67
170.47
144.93
123.62
100.45
70.24
32.66
-9.93
-59.91
-117.14
-176.45
-229.73
-245.12
-206.27
-122.61
-20.96
73.72
144.73
187.61
207.51
212.48
208.57
194.34
168.28
133.77
98.69
69.12
49.95
44.04
49.98
63.14
75.04
79.93
77.86
72.80
68.47
66.46
67.26
69.62
70.89
66.33
52.90
30.91
3.59
-21.54
-44.26
-61.33
-71.66
-75.72
-76.00
-75.10
-74.72
-75.42
-77.02
-79.46
-81.70
-83.47
-84.92
-86.69
-89.20
-92.33
-95.16
-96.11
-94.04
-87.78
-77.63
-64.58
-49.61
-33.27
-16.37
0.34
16.51
31.89
46.72
60.88
74.45
87.78
101.35
113.92
124.02
131.54
138.05
145.87
156.39
169.85
185.33
201.26
213.43
218.18
215.00
206.85
197.53
188.91
180.12
167.63
146.61
109.46
50.91
-28.18
-120.57
-217.04
-310.28
-396.01
-472.87
-520.25
-521.32
-476.95
-406.41
-330.74
-262.24
-205.56
-161.30
-128.79
-107.10
-98.40
-104.33
-123.30
-147.53
-167.95
-177.34
-171.41
-150.37
-118.97
-87.47
-66.14
-60.18
-67.09
-79.38
-93.01
-102.13
-101.73
-89.68
-68.43
-42.29
-14.81
13.21
41.74
70.35
98.89
128.91
161.46
195.87
230.63
263.51
293.73
318.64
333.55
333.88
320.95
297.43
265.75
228.32
186.80
147.11
114.28
90.91
77.68
80.55
101.45
136.62
178.86
218.89
256.57
294.50
335.27
379.78
435.54
503.05
574.75
639.28
683.67
708.02
716.33
712.08
642.34
487.81
273.13
50.80
-118.68
-248.48
-354.70
-448.40
-533.08
-607.02
-658.82
-684.53
-688.65
-664.63
-616.82
-552.49
-485.86
-428.60
-391.89
-357.47
-311.26
-249.00
-174.70
-97.63
-24.43
36.93
76.02
87.80
82.25
71.15
61.87
55.17
45.29
30.66
13.22
-2.16
-10.13
-5.48
9.00
24.34
30.82
19.46
-9.11
-45.43
-75.00
-84.79
-67.88
-28.33
22.81
72.08
107.46
125.23
128.89
124.65
116.92
107.08
93.68
75.35
52.30
26.04
-0.62
-26.27
-49.21
-67.77
-79.68
-82.48
-74.34
-55.70
-28.90
-2.85
13.10
14.35
3.47
-10.92
-18.70
-14.00
1.66
20.82
34.72
38.38
32.62
22.79
13.59
7.50
4.85
3.70
1.85
-1.37
-4.88
-6.77
-6.23
-4.29
-3.24
-5.74
-13.52
-26.52
-41.50
-53.57
-57.95
-52.16
-37.02
-15.96
6.19
24.73
36.72
41.53
40.50
36.14
31.17
27.71
27.23
29.85
34.44
39.15
42.27
43.03
42.30
42.42
46.50
57.44
76.67
103.61
135.81
169.63
200.81
225.41
240.43
242.43
230.16
204.67
168.94
126.83
82.08
37.33
-6.09
-47.98
-88.59
-127.61
-164.05
-196.23
-222.25
-240.58
-250.49
-252.14
-246.51
-235.14
-219.50
-200.76
-179.48
-155.68
-129.18
-100.37
-70.49
-42.17
-19.23
-5.60
-4.32
-16.46
-40.96
-75.17
-115.90
-159.39
-202.27
-241.78
-275.74
-302.20
-319.13
-324.74
-318.09
-299.73
-270.57
-232.93
-190.63
-148.57
-111.56
-83.00
-64.47
-56.01
-56.22
-60.06
-61.03
-53.35
-34.37
-4.99
31.39
70.45
108.22
142.41
175.67
212.40
255.82
305.89
360.29
416.83
474.52
532.90
572.68
574.75
530.14
447.49
345.72
242.12
147.45
66.68
1.06
-50.13
-85.37
-102.90
-102.45
-87.21
-63.63
-39.34
-21.23
-14.11
-19.44
-32.90
-47.86
-58.34
-62.20
-61.24
-58.88
-57.78
-58.70
-60.98
-61.12
-57.48
-50.91
-45.15
-44.86
-52.92
-68.99
-89.83
-109.81
-120.94
-116.84
-93.73
-53.51
-4.58
40.52
69.38
74.43
55.85
22.23
-15.40
-45.89
-63.57
-69.62
-70.50
-73.85
-84.47
-99.95
-113.87
-119.58
-109.36
-78.83
-29.40
31.78
94.01
146.73
174.83
185.17
178.80
159.19
128.94
88.78
38.45
-21.59
-88.35
-155.09
-211.25
-248.48
-260.49
-246.12
-208.91
-154.68
-88.90
-15.79
60.74
136.12
201.48
247.66
267.28
257.36
220.29
162.43
91.73
16.35
-55.47
-116.73
-160.42
-181.50
-178.62
-153.81
-111.09
-54.72
12.24
87.02
164.02
234.30
286.30
308.50
294.50
245.42
168.71
76.32
-18.47
-103.75
-169.89
-210.21
-222.12
-205.48
-162.61
-99.43
-24.13
53.95
125.50
182.27
218.15
228.71
213.75
177.06
124.35
62.91
1.18
-52.21
-91.46
-106.13
-97.92
-76.25
-45.77
-9.80
29.89
71.63
111.91
144.69
162.18
156.60
125.14
72.12
5.35
-65.65
-131.26
-182.27
-210.97
-213.21
-191.46
-153.99
-111.69
-77.86
-63.56
-73.15
-102.27
-140.67
-177.17
-204.69
-220.46
-222.07
-210.06
-187.09
-156.31
-119.59
-77.84
-32.20
15.42
63.48
114.93
171.55
231.59
290.55
343.68
387.04
417.38
432.54
409.38
342.56
249.43
155.78
76.73
14.70
-33.37
-70.97
-100.23
-122.64
-135.81
-139.51
-137.61
-135.75
-137.58
-143.50
-152.05
-163.70
-176.24
-185.27
-188.76
-188.20
-186.82
-186.66
-187.40
-187.57
-180.94
-168.91
-152.45
-133.46
-115.23
-101.30
-94.25
-95.37
-105.26
-121.71
-141.65
-159.16
-168.29
-165.84
-152.60
-133.28
-114.51
-102.40
-99.83
-106.33
-117.52
-128.03
-133.74
-131.64
-123.28
-109.79
-91.62
-68.24
-39.86
-7.37
27.13
60.47
90.39
115.05
131.82
140.47
143.71
144.44
145.29
147.71
151.72
158.94
169.89
180.01
187.09
192.95
199.64
209.48
224.58
246.31
278.87
323.01
367.69
402.27
420.45
416.86
389.00
338.44
270.72
199.80
139.33
90.20
54.43
37.68
42.06
67.07
110.34
133.25
111.51
95.66
101.87
110.11
113.09
107.53
93.80
74.84
54.53
41.50
40.95
43.70
42.34
35.63
22.60
3.40
-20.87
-48.83
-75.27
-96.64
-119.06
-145.71
-173.95
-200.73
-222.86
-237.74
-244.10
-239.39
-223.00
-200.76
-176.67
-150.83
-122.85
-92.30
-59.55
-26.53
4.74
31.60
49.78
58.04
58.84
55.59
51.23
47.29
43.75
40.22
36.56
32.63
29.06
26.50
24.39
21.24
15.42
5.79
-8.18
-25.80
-45.17
-63.93
-79.97
-91.58
-97.65
-98.19
-95.02
-91.67
-90.99
-92.71
-93.18
-86.80
-68.65
-37.10
4.44
47.44
80.43
94.05
84.95
55.78
12.85
-36.65
-86.95
-131.70
-161.72
-173.51
-171.60
-161.37
-144.15
-118.89
-85.69
-47.64
-10.09
21.07
41.47
50.54
52.01
51.01
51.04
52.87
55.20
56.28
54.77
51.22
46.02
41.37
39.36
40.50
43.71
47.11
49.06
48.56
45.35
40.00
34.13
29.18
25.34
21.68
16.89
10.14
1.57
-7.54
-15.63
-21.57
-24.58
-25.70
-27.69
-34.13
-48.03
-70.77
-101.12
-136.20
-171.62
-202.07
-222.44
-228.61
-218.05
-190.32
-147.13
-91.34
-27.94
37.48
100.37
157.69
207.68
249.23
280.96
300.91
307.82
299.99
277.09
241.55
198.33
153.63
113.03
79.70
48.06
18.14
-9.63
-36.22
-62.41
-86.79
-105.94
-116.70
-118.57
-114.03
-106.52
-100.17
-97.22
-97.38
-99.27
-102.43
-107.71
-116.06
-125.81
-131.26
-126.14
-106.63
-73.90
-34.43
1.93
28.28
40.96
41.04
33.42
23.18
13.86
7.15
3.56
3.23
6.36
13.02
22.84
34.40
44.83
51.05
51.04
44.62
33.40
20.25
8.86
2.54
2.57
7.64
14.74
20.96
23.98
22.42
15.98
6.05
-5.48
-17.92
-31.96
-48.34
-66.58
-85.05
-101.53
-113.59
-117.43
-109.02
-85.94
-48.59
0.25
56.00
112.66
163.86
195.36
195.84
168.19
128.34
92.03
66.37
50.76
40.72
31.20
18.62
2.72
-13.70
-29.22
-42.87
-53.23
-57.58
-52.81
-37.36
-12.52
18.98
48.70
67.24
69.04
54.49
29.16
0.99
-23.05
-38.56
-44.74
-40.68
-27.47
-8.51
11.14
26.71
34.88
34.15
25.08
9.60
-8.70
-28.16
-47.88
-68.90
-93.11
-121.11
-150.92
-176.64
-197.52
-205.06
-192.45
-157.88
-105.40
-42.58
25.02
87.49
135.78
160.17
156.00
128.27
91.12
59.88
43.77
43.53
52.48
60.75
60.39
48.66
27.83
4.30
-14.10
-20.45
-10.65
15.69
54.08
96.81
133.32
154.17
154.44
134.95
102.35
66.96
38.25
20.14
11.78
8.07
3.02
-7.56
-24.77
-46.45
-68.44
-82.30
-96.42
-114.41
-140.89
-173.67
-202.91
-215.70
-202.42
-159.92
-93.32
-13.94
72.24
145.74
189.86
202.95
193.51
168.17
129.73
79.46
22.70
-30.11
-70.42
-96.14
-105.65
-101.16
-90.57
-82.57
-83.55
-92.51
-102.75
-107.85
-101.84
-80.78
-36.46
28.41
105.45
183.52
255.91
318.41
365.01
389.03
372.19
307.89
208.48
106.98
13.36
-70.92
-145.41
-211.58
-272.46
-330.30
-383.96
-432.63
-476.11
-515.52
-547.19
-564.84
-562.54
-536.52
-486.37
-414.31
-327.03
-233.52
-142.87
-58.66
19.17
91.33
157.81
218.25
273.80
326.33
377.70
427.94
475.93
517.06
543.14
544.84
515.58
455.07
369.40
269.19
166.92
75.70
6.86
-31.80
-36.51
-7.67
50.67
131.02
222.80
313.40
390.37
443.12
464.76
453.43
412.38
349.35
274.29
196.01
119.82
47.28
-22.25
-89.18
-152.77
-212.56
-267.69
-317.56
-362.36
-402.17
-435.19
-456.56
-459.04
-436.42
-389.08
-321.04
-237.76
-145.18
-49.53
43.10
126.46
193.55
236.79
245.83
217.18
157.34
79.29
-4.19
-84.27
-157.06
-222.44
-282.60
-344.62
-409.86
-470.39
-513.20
-528.56
-513.16
-470.47
-408.31
-302.99
-160.52
-12.05
112.12
202.08
260.32
289.69
290.04
263.44
217.08
157.07
91.30
32.02
-9.88
-32.18
-40.37
-42.58
-43.57
-45.74
-41.48
-31.10
-25.31
-22.40
-19.69
-10.77
7.19
37.27
80.17
130.82
181.76
226.61
258.85
281.06
295.92
297.02
279.68
241.18
181.37
104.28
19.42
-60.57
-126.64
-177.21
-216.14
-246.59
-269.21
-281.53
-279.27
-258.53
-217.57
-159.32
-91.42
-21.95
44.54
106.23
161.65
206.86
234.65
238.26
215.30
169.40
111.53
55.93
13.44
-12.43
-22.73
-26.82
-38.65
-62.25
-93.67
-121.82
-135.56
-127.65
-96.79
-46.95
13.44
74.86
127.27
158.50
165.00
153.31
132.60
107.54
78.87
46.70
14.30
-11.02
-25.95
-29.82
-27.08
-25.98
-34.88
-58.22
-95.93
-144.21
-195.01
-238.65
-264.82
-265.76
-238.19
-183.55
-107.56
-19.32
70.28
150.63
211.78
246.15
248.74
219.00
163.54
96.50
35.89
-2.94
-13.61
-1.55
19.07
31.49
23.37
-8.05
-55.97
-108.01
-151.45
-177.03
-179.80
-158.99
-117.06
-58.15
13.24
91.87
170.57
239.59
287.42
305.02
288.07
238.93
166.96
87.51
16.93
-33.57
-62.09
-75.78
-83.95
-94.58
-111.66
-134.60
-158.03
-174.79
-179.47
-170.36
-149.15
-115.44
-68.48
-9.23
58.42
130.19
202.73
273.85
342.43
386.20
389.34
355.09
304.70
258.04
222.43
193.07
160.43
117.26
62.83
7.04
-37.27
-61.04
-68.20
-66.67
-64.60
-67.86
-79.36
-99.88
-126.31
-155.28
-179.34
-193.35
-192.61
-173.22
-134.68
-81.94
-24.86
26.57
64.63
85.30
86.32
68.11
34.65
-7.97
-53.25
-96.04
-132.60
-162.30
-190.03
-214.75
-237.36
-257.31
-271.76
-276.01
-265.58
-237.64
-192.71
-136.95
-76.44
-16.76
39.33
92.20
144.18
193.10
231.79
262.08
269.64
247.54
199.76
139.76
83.34
41.91
18.66
9.86
8.57
6.50
0.67
-6.61
-13.28
-19.21
-25.31
-32.42
-38.73
-36.36
-23.09
0.54
30.65
61.28
87.32
105.66
113.71
109.18
89.49
54.00
5.84
-46.55
-92.99
-124.87
-138.07
-134.94
-122.24
-108.84
-102.16
-104.24
-112.26
-121.07
-125.61
-117.10
-91.96
-46.52
11.34
66.06
104.81
123.56
125.29
115.16
96.95
72.57
44.85
19.31
3.70
3.65
17.97
37.38
49.88
45.23
18.78
-26.48
-80.34
-129.25
-161.10
-169.03
-152.59
-116.17
-66.96
-9.20
44.07
82.13
101.10
103.95
96.47
83.93
70.04
57.01
46.49
39.32
36.96
39.97
47.34
56.96
65.69
72.05
76.77
82.17
90.59
104.59
125.39
152.16
181.14
206.56
222.49
224.50
211.14
184.20
149.01
109.55
71.86
39.84
13.94
-8.27
-30.33
-54.82
-82.04
-109.76
-134.66
-153.92
-167.21
-176.06
-182.38
-186.96
-188.72
-185.32
-174.76
-156.89
-134.34
-112.40
-96.88
-92.16
-100.70
-123.40
-160.15
-209.60
-267.43
-326.41
-377.13
-409.89
-417.52
-398.16
-355.57
-297.10
-230.66
-161.28
-92.10
-25.17
38.11
97.08
151.85
204.54
258.74
317.22
380.35
441.81
489.74
511.28
498.32
450.40
376.21
290.29
199.23
115.07
48.52
3.97
-21.96
-36.32
-46.61
-58.22
-71.46
-84.28
-92.21
-91.72
-80.73
-58.92
-23.98
18.27
57.35
83.39
92.52
89.40
81.83
75.57
71.20
65.87
51.05
20.90
-24.89
-81.14
-138.81
-190.26
-232.18
-266.40
-292.58
-312.09
-324.30
-326.85
-317.83
-297.58
-269.74
-239.35
-209.81
-181.13
-151.81
-119.61
-83.55
-44.48
-4.15
36.32
77.62
122.29
173.27
230.78
291.46
347.99
391.25
412.43
406.25
373.25
320.29
258.20
197.25
143.66
97.99
57.70
19.50
-18.35
-55.71
-90.77
-121.47
-146.50
-165.18
-176.78
-178.30
-165.68
-135.56
-87.73
-24.95
47.77
124.90
202.03
266.60
307.04
317.49
301.35
267.70
226.08
182.58
140.49
101.55
66.71
37.74
16.05
4.40
-0.01
0.11
2.60
6.06
9.20
10.54
9.85
7.67
4.83
1.35
-2.78
-8.57
-16.13
-25.38
-36.15
-47.41
-57.83
-66.56
-73.98
-80.76
-87.65
-94.99
-102.95
-111.55
-120.34
-128.80
-136.88
-145.31
-154.47
-164.11
-173.09
-179.96
-183.24
-181.55
-173.84
-159.92
-140.63
-116.59
-87.92
-54.38
-16.13
25.89
69.77
112.75
150.96
179.44
194.14
192.68
174.47
140.06
90.91
30.61
-30.90
-79.71
-105.06
-103.73
-80.14
-43.45
-4.03
29.76
53.88
67.37
74.11
76.82
77.04
75.51
72.81
69.77
67.43
66.60
66.91
67.71
65.91
58.77
45.29
26.70
5.78
-14.26
-30.85
-42.90
-51.07
-57.87
-65.75
-76.01
-88.40
-101.38
-112.73
-120.20
-122.09
-117.62
-107.34
-92.45
-74.66
-56.08
-39.03
-25.61
-17.03
-13.29
-13.18
-14.98
-17.00
-18.10
-18.13
-17.69
-17.71
-18.78
-20.77
-22.85
-23.74
-22.17
-17.22
-8.78
2.45
15.02
27.15
37.30
44.72
49.92
54.59
61.05
71.25
85.77
103.21
120.42
133.33
138.20
132.67
116.40
90.97
59.39
25.33
-7.69
-36.95
-60.83
-78.86
-91.43
-99.29
-103.11
-103.31
-100.29
-94.74
-87.99
-81.79
-77.79
-76.96
-79.30
-83.95
-89.82
-96.08
-102.35
-108.42
-113.68
-116.84
-116.12
-110.01
-98.03
-81.10
-61.21
-40.63
-20.92
-2.62
14.52
31.01
46.94
61.89
75.09
85.92
94.40
101.33
108.12
116.41
127.68
142.78
161.41
181.74
200.57
214.13
219.22
214.33
200.01
178.79
154.24
129.68
107.19
87.33
69.46
52.45
34.74
14.34
-10.16
-38.83
-69.46
-97.63
-118.06
-126.53
-121.55
-105.43
-83.45
-60.96
-41.57
-26.67
-16.47
-11.43
-12.54
-20.20
-33.74
-51.13
-68.50
-81.74
-88.32
-88.32
-84.38
-80.32
-79.30
-79.37
-79.04
-77.02
-72.56
-65.22
-54.76
-41.57
-29.97
-20.24
-12.21
-6.22
-2.26
-0.16
0.06
-0.34
-1.33
-3.04
-4.85
-6.29
-7.36
-7.89
-7.77
-7.04
-5.91
-4.93
-4.44
-3.99
-3.18
-1.80
0.45
3.60
7.16
10.06
10.74
7.95
1.52
-8.02
-19.53
-31.42
-42.06
-50.00
-54.14
-53.93
-49.44
-41.35
-31.29
-21.41
-13.69
-9.27
-8.21
-9.69
-12.63
-16.12
-19.53
-22.50
-24.52
-24.88
-22.81
-17.77
-9.78
0.65
12.86
26.43
41.36
57.98
76.53
96.79
117.94
138.74
157.99
174.87
189.18
201.07
210.89
218.73
224.30
226.93
225.69
219.67
207.84
189.22
163.10
129.61
90.20
47.63
5.38
-33.38
-66.78
-94.74
-118.48
-139.61
-158.70
-174.85
-186.27
-191.49
-190.46
-184.60
-176.31
-167.79
-160.38
-153.62
-146.05
-136.37
-124.67
-112.35
-101.00
-91.85
-85.29
-81.65
-80.42
-80.44
-80.19
-77.97
-72.02
-60.40
-42.55
-20.18
2.02
20.29
33.74
44.97
58.17
76.65
101.50
130.84
161.25
188.63
212.10
233.19
253.30
271.07
276.20
258.79
215.22
159.99
104.57
56.76
18.30
-10.56
-31.20
-44.92
-51.24
-48.13
-33.57
-8.73
23.28
57.08
85.50
101.91
106.36
102.65
95.87
89.27
83.82
78.96
72.46
61.04
41.12
10.09
-32.94
-86.97
-149.78
-219.03
-291.34
-361.63
-422.84
-466.81
-486.48
-478.87
-446.56
-397.12
-340.44
-284.48
-232.59
-183.48
-133.67
-80.78
-25.68
27.96
75.64
114.20
142.80
162.38
174.21
178.81
175.92
165.42
148.88
129.86
113.44
104.42
105.63
116.80
134.94
155.67
175.13
191.46
204.46
215.28
225.16
234.45
242.22
246.63
245.89
239.22
227.50
211.96
194.06
174.77
154.33
132.35
108.19
81.47
52.18
20.64
-14.33
-54.80
-102.95
-159.76
-223.88
-291.41
-356.82
-414.43
-452.37
-461.54
-438.64
-388.37
-321.90
-252.01
-188.70
-137.23
-98.24
-68.38
-42.62
-15.07
18.76
59.55
102.73
139.52
160.51
160.41
141.12
110.24
77.85
51.83
35.20
26.36
21.60
18.17
15.65
15.28
17.64
22.06
27.12
31.99
36.92
42.82
49.98
57.15
62.02
62.32
57.35
48.41
38.07
28.75
21.66
16.84
13.83
12.56
13.32
16.31
20.97
25.92
29.50
30.71
29.80
27.94
26.76
27.39
30.04
34.01
38.02
40.83
41.48
39.76
35.79
29.91
22.24
12.93
2.12
-9.76
-21.56
-32.59
-42.12
-49.90
-56.14
-61.55
-66.72
-71.82
-76.40
-79.57
-80.78
-79.82
-77.66
-75.23
-73.77
-74.20
-77.06
-82.49
-90.00
-98.14
-104.00
-103.72
-93.77
-72.98
-43.54
-10.76
18.97
40.70
52.75
56.78
56.01
53.26
49.49
44.28
37.18
28.94
21.63
17.52
17.65
20.90
24.65
25.71
21.91
13.23
1.75
-9.14
-15.79
-15.58
-7.85
5.29
19.05
27.22
24.25
7.52
-21.37
-56.72
-90.29
-113.90
-121.82
-112.54
-89.00
-57.40
-25.28
0.69
16.31
20.67
15.74
5.43
-6.16
-15.73
-21.22
-21.62
-16.32
-5.24
11.02
29.95
48.98
65.25
76.63
82.32
83.16
81.08
78.11
75.67
74.05
72.76
70.74
67.10
61.65
54.98
48.27
42.68
38.91
36.85
35.91
35.12
33.60
31.02
27.59
24.09
21.36
20.28
20.58
21.79
23.12
23.88
23.78
22.99
22.18
22.09
23.18
25.32
28.00
30.34
31.56
31.61
30.46
28.83
27.61
27.61
29.29
32.70
37.29
41.86
44.62
43.39
36.55
23.73
6.25
-13.22
-31.67
-47.00
-58.64
-67.13
-73.49
-77.95
-79.84
-78.18
-72.54
-64.01
-55.10
-48.91
-47.60
-51.90
-60.43
-70.34
-78.05
-80.08
-73.67
-57.34
-31.67
0.40
33.43
61.22
78.62
83.47
77.50
65.38
52.68
42.62
37.12
34.54
31.85
26.40
17.12
4.67
-9.26
-22.58
-33.37
-40.18
-43.14
-42.62
-39.95
-37.13
-36.11
-38.26
-43.75
-51.72
-60.07
-67.31
-72.22
-74.23
-73.27
-69.56
-64.03
-58.03
-53.18
-50.15
-47.99
-43.58
-33.13
-14.38
12.79
44.66
75.56
100.04
115.72
123.78
127.00
126.40
119.38
101.02
67.82
22.52
-25.31
-61.85
-74.95
-60.00
-22.37
25.59
70.56
103.96
124.64
135.70
140.66
140.49
133.68
118.66
97.04
74.29
54.96
44.18
39.71
33.23
15.93
-15.80
-58.50
-103.02
-141.24
-167.97
-181.85
-186.17
-185.77
-184.07
-181.83
-178.81
-174.46
-163.37
-146.65
-126.81
-107.16
-90.47
-80.58
-77.26
-81.09
-91.84
-107.00
-121.20
-126.89
-117.99
-92.10
-50.92
0.71
55.45
102.59
131.57
138.45
127.76
108.03
86.73
68.20
56.96
50.87
47.91
47.34
50.40
59.10
75.23
96.76
122.61
152.39
185.64
222.53
255.00
275.02
275.60
253.11
208.72
148.75
83.07
22.30
-24.76
-54.00
-65.87
-65.12
-57.99
-49.50
-41.91
-35.62
-30.39
-26.54
-25.25
-27.16
-32.39
-40.30
-49.48
-58.35
-65.92
-71.43
-74.94
-77.17
-78.38
-78.34
-76.48
-71.74
-63.23
-50.78
-34.61
-16.03
3.16
21.46
37.91
51.84
63.18
71.52
73.32
65.70
48.16
23.74
-2.66
-27.13
-49.31
-68.94
-85.75
-99.82
-108.65
-111.31
-108.11
-100.23
-85.93
-66.10
-43.17
-20.53
-0.96
14.60
26.06
33.94
39.60
44.17
47.95
51.57
55.50
60.06
65.43
71.19
75.35
76.35
73.00
64.42
50.97
33.90
15.41
-1.76
-15.34
-24.04
-27.61
-26.92
-23.93
-20.21
-16.90
-14.01
-10.75
-6.17
0.32
9.27
20.81
33.85
46.67
56.29
60.36
57.97
50.22
39.78
30.34
25.28
25.80
31.75
40.88
51.38
62.00
72.37
79.78
79.95
69.52
47.20
15.81
-22.94
-65.93
-109.58
-151.18
-190.16
-228.37
-261.66
-288.98
-299.21
-286.92
-252.80
-203.97
-150.37
-100.55
-59.46
-28.06
-5.70
10.14
20.76
27.57
31.60
33.61
33.89
32.59
30.42
27.49
24.25
19.78
13.87
7.61
3.03
3.41
10.67
24.21
39.94
52.71
58.01
55.16
47.72
41.54
41.51
48.18
58.62
67.13
69.52
65.02
56.48
48.07
42.42
39.42
36.69
31.80
23.66
13.75
4.89
-0.28
-0.59
3.01
7.98
11.77
12.69
10.82
8.28
8.06
12.61
22.85
38.13
56.87
75.79
92.72
104.54
107.47
98.11
75.37
41.84
3.59
-31.88
-58.63
-74.45
-81.37
-83.51
-84.12
-83.72
-80.14
-70.67
-54.31
-32.91
-10.11
10.22
25.98
37.68
46.82
54.92
62.07
66.86
67.12
61.18
48.65
30.94
10.96
-8.08
-22.48
-30.09
-30.45
-24.85
-15.61
-5.51
2.86
7.49
6.91
0.54
-11.05
-25.73
-40.06
-50.13
-53.17
-49.05
-39.65
-28.88
-20.63
-17.09
-17.70
-19.76
-19.85
-15.82
-7.17
5.02
18.79
32.24
43.58
51.00
52.42
45.87
29.68
5.00
-24.51
-53.42
-76.02
-88.32
-89.36
-81.97
-69.32
-55.16
-42.25
-31.71
-23.16
-15.47
-7.71
0.30
7.88
14.28
18.76
21.38
23.02
25.08
28.75
34.33
41.08
46.87
50.58
51.81
51.31
50.48
50.44
51.27
52.15
52.49
51.27
48.67
45.37
41.97
38.53
34.65
29.61
23.16
15.88
8.84
3.26
-0.52
-3.26
-6.18
-10.01
-15.00
-20.36
-24.63
-26.54
-25.25
-20.86
-14.28
-6.47
2.30
11.27
19.86
27.87
35.55
43.21
51.05
58.98
66.63
73.70
77.96
77.06
69.55
54.82
35.19
14.79
-2.84
-18.78
-34.97
-55.16
-82.73
-116.55
-154.57
-193.77
-231.74
-267.47
-300.96
-321.22
-320.57
-296.09
-250.31
-189.29
-120.16
-50.62
11.17
58.37
87.59
97.69
91.02
72.22
46.49
19.04
-5.16
-21.25
-25.17
-14.13
10.34
43.31
78.05
108.29
130.10
142.31
145.89
143.43
137.55
129.49
120.08
110.17
100.74
92.89
87.64
81.97
74.74
64.95
51.08
32.54
10.91
-9.47
-22.46
-22.61
-8.10
18.23
48.73
74.24
88.06
88.39
78.19
62.91
47.66
35.40
26.95
21.13
16.32
10.73
2.70
-8.86
-23.77
-40.11
-55.09
-66.41
-74.04
-79.33
-84.17
-90.14
-97.60
-105.59
-112.56
-117.74
-121.55
-124.81
-126.13
-122.71
-112.73
-97.39
-80.48
-66.32
-57.62
-54.23
-53.20
-48.20
-32.43
-1.76
43.75
100.96
164.79
228.31
283.15
310.38
294.48
235.88
153.59
72.14
8.05
-34.14
-58.21
-71.09
-78.80
-82.89
-81.95
-75.02
-63.90
-51.91
-42.40
-37.26
-36.58
-39.30
-42.44
-42.57
-37.67
-28.00
-14.30
2.04
19.34
35.53
47.99
55.04
56.41
52.27
41.43
26.15
9.52
-7.41
-23.07
-35.80
-43.65
-45.12
-40.78
-33.15
-24.93
-18.06
-12.76
-7.51
-0.26
10.86
27.05
46.58
65.49
79.37
84.22
77.26
57.60
26.29
-14.80
-57.04
-89.27
-104.27
-101.79
-86.81
-65.99
-45.00
-27.41
-14.40
-5.15
1.21
5.18
7.17
7.67
7.37
7.00
7.21
8.39
10.61
12.74
13.36
11.26
6.82
2.00
-0.50
1.67
9.52
22.25
36.40
47.60
52.19
48.53
37.39
21.34
3.90
-11.60
-22.70
-28.47
-29.25
-26.20
-20.96
-14.44
-7.52
-1.04
4.38
8.70
12.43
16.33
21.00
26.36
31.47
34.52
33.80
28.53
19.54
9.23
0.67
-3.67
-2.92
2.01
8.84
15.14
18.71
18.09
13.62
6.69
-1.20
-9.10
-16.49
-22.96
-27.75
-30.29
-30.61
-29.24
-27.19
-25.45
-24.71
-25.04
-26.01
-26.45
-25.71
-24.39
-23.59
-24.78
-28.98
-36.54
-46.77
-58.76
-69.36
-76.37
-79.86
-80.67
-80.30
-79.83
-80.13
-81.56
-83.86
-84.38
-81.44
-76.23
-70.22
-64.85
-60.02
-55.04
-48.72
-40.00
-25.54
-4.13
21.42
48.35
74.42
99.41
123.55
147.52
162.36
166.13
170.79
180.10
195.72
211.30
223.66
230.28
229.57
210.69
173.11
124.05
72.86
27.51
-9.20
-37.09
-57.50
-71.77
-80.78
-82.21
-75.19
-62.28
-46.59
-31.53
-19.22
-11.24
-8.25
-10.20
-14.29
-18.57
-24.62
-32.18
-40.93
-50.02
-58.69
-66.39
-73.64
-79.27
-82.36
-82.47
-78.81
-70.91
-58.60
-42.69
-25.10
-8.46
5.75
16.55
23.84
28.75
32.47
35.60
37.87
38.21
35.25
28.52
18.59
6.90
-5.34
-17.96
-31.68
-46.68
-60.50
-69.48
-71.77
-69.08
-65.35
-64.46
-67.86
-73.61
-76.88
-73.47
-62.75
-48.25
-35.73
-28.60
-27.38
-29.50
-30.97
-27.94
-19.38
-7.42
4.01
11.27
12.52
7.82
-0.99
-14.84
-31.70
-48.27
-60.70
-65.60
-61.17
-47.87
-28.41
-6.63
14.11
32.56
48.68
62.92
75.37
85.37
92.01
94.87
94.72
93.35
93.06
94.77
97.64
99.53
98.26
92.83
83.87
73.34
63.57
56.56
52.93
51.96
52.08
51.66
49.66
45.84
40.52
34.19
27.22
19.77
12.09
4.87
-0.83
-4.08
-4.76
-3.89
-3.39
-5.12
-10.09
-18.05
-27.84
-38.07
-47.79
-56.61
-64.53
-71.50
-77.27
-81.58
-84.38
-86.01
-87.00
-87.73
-88.30
-88.74
-89.40
-91.17
-95.04
-101.24
-108.37
-113.29
-112.02
-101.36
-80.43
-51.15
-17.51
16.09
46.48
72.39
93.93
111.54
125.10
133.81
136.86
134.28
127.35
118.25
109.20
101.61
95.76
91.01
86.47
81.55
76.17
70.67
65.44
60.66
56.15
51.56
46.53
40.90
34.80
28.47
22.14
15.85
9.53
3.01
-3.95
-11.54
-19.84
-28.62
-37.31
-45.08
-51.03
-54.52
-55.38
-54.03
-51.35
-48.36
-45.76
-43.97
-43.21
-43.57
-44.92
-46.83
-48.65
-49.66
-49.32
-47.01
-42.49
-36.01
-28.14
-19.49
-10.55
-1.86
6.00
12.57
18.55
24.81
31.68
38.62
44.65
48.89
50.85
50.65
49.09
48.55
51.08
57.10
65.36
73.97
81.31
86.25
88.05
86.46
83.56
81.84
82.95
87.39
95.03
105.30
116.92
127.75
125.27
102.46
62.36
16.08
-26.31
-60.69
-87.53
-108.79
-125.87
-138.83
-145.25
-143.24
-133.30
-118.29
-101.71
-86.17
-73.12
-63.40
-57.43
-53.95
-51.33
-48.28
-44.08
-38.42
-31.98
-25.50
-20.24
-17.08
-15.01
-12.24
-7.50
-0.85
6.39
12.30
15.20
14.07
9.04
1.64
-6.16
-12.58
-16.09
-15.26
-8.88
3.61
21.16
41.35
60.81
75.78
82.08
76.71
59.28
32.47
1.42
-28.50
-52.81
-69.36
-78.68
-83.38
-86.41
-89.79
-93.93
-97.96
-101.10
-102.57
-101.81
-98.49
-92.62
-84.25
-73.76
-62.22
-48.38
-33.84
-21.05
-11.37
-4.11
2.55
10.32
19.72
30.21
40.86
50.55
59.00
66.40
74.01
81.41
87.35
90.50
90.05
85.99
78.32
66.90
50.95
29.30
0.26
-37.20
-82.43
-130.93
-173.77
-201.25
-206.41
-187.39
-147.21
-92.96
-33.17
24.38
74.11
112.30
135.85
142.35
132.25
111.30
89.12
75.94
78.62
98.43
131.16
169.11
203.99
222.62
217.58
191.29
154.39
117.59
86.21
60.95
42.96
29.80
20.80
17.11
19.24
25.79
33.63
38.90
39.37
34.38
24.18
10.39
-4.12
-16.78
-26.22
-32.49
-36.19
-37.52
-36.51
-33.64
-29.49
-24.43
-18.73
-12.41
-5.05
4.24
16.46
31.69
48.31
63.56
74.36
77.74
71.33
53.67
24.73
-13.46
-56.88
-100.16
-137.88
-166.57
-186.60
-202.35
-220.41
-245.90
-279.07
-313.96
-340.10
-346.32
-325.02
-274.85
-200.61
-111.16
-16.54
74.25
154.28
218.82
265.36
293.52
304.76
301.70
287.02
262.48
228.72
185.58
132.91
71.03
1.05
-75.25
-154.79
-232.36
-300.50
-350.71
-375.95
-373.55
-346.65
-302.87
-251.07
-197.91
-146.40
-96.97
-50.15
-8.68
22.86
40.87
45.65
42.05
37.41
37.82
45.64
59.05
73.86
85.98
93.36
96.01
94.67
89.81
81.58
70.78
59.28
48.84
40.09
32.52
25.16
17.27
9.22
2.87
1.09
6.60
20.39
41.30
66.79
93.80
118.75
137.75
144.79
135.33
111.75
83.35
60.19
47.68
45.55
48.97
51.13
48.24
40.22
29.83
20.52
14.75
13.76
17.83
26.95
39.98
55.75
73.54
92.54
110.73
124.84
131.77
129.74
116.40
90.55
53.18
7.44
-42.42
-92.03
-136.97
-171.78
-190.65
-193.14
-183.63
-169.90
-160.49
-162.21
-178.27
-207.44
-244.05
-267.44
-262.93
-228.81
-177.44
-124.86
-81.38
-50.30
-30.92
-22.78
-18.81
-15.51
-9.91
1.43
21.80
52.28
92.59
133.14
163.48
179.11
179.04
166.62
147.35
127.39
111.31
101.42
98.49
99.44
99.60
90.86
67.03
26.64
-26.26
-84.24
-138.40
-180.26
-203.44
-199.36
-167.27
-112.35
-44.06
26.79
89.14
130.64
145.89
140.05
124.26
106.89
92.27
81.49
77.24
77.85
81.77
87.69
93.93
98.60
99.54
96.41
87.76
75.06
59.57
42.41
24.54
6.56
-11.06
-28.11
-43.72
-56.66
-65.43
-69.72
-69.65
-65.45
-57.83
-48.03
-37.93
-29.27
-23.25
-20.04
-19.61
-21.30
-24.06
-26.83
-29.05
-31.13
-33.76
-37.44
-41.95
-46.80
-51.03
-53.66
-53.96
-51.91
-48.46
-44.85
-42.08
-40.38
-39.63
-39.39
-39.18
-38.44
-34.62
-26.44
-14.61
-1.60
10.16
19.16
24.93
27.80
28.72
28.92
29.08
29.37
29.48
29.20
28.67
28.72
30.61
35.45
43.18
52.02
59.21
62.11
59.54
52.08
41.86
31.65
23.95
20.15
20.20
23.46
28.41
33.67
37.89
39.81
38.40
33.29
24.84
14.27
3.56
-5.27
-10.73
-12.45
-11.22
-8.64
-6.38
-5.84
-7.60
-11.34
-15.64
-19.06
-21.00
-21.81
-22.50
-23.76
-25.92
-28.62
-31.11
-32.88
-34.06
-35.43
-37.81
-42.12
-46.77
-49.83
-49.26
-43.81
-33.92
-21.98
-11.83
-6.32
-7.49
-13.27
-19.10
-20.56
-16.02
-7.67
-0.09
2.70
-0.12
-5.86
-9.73
-8.15
-0.52
10.99
23.07
33.78
42.80
51.06
59.07
66.65
72.65
75.80
75.70
73.00
68.94
64.63
60.74
57.24
54.18
51.59
49.36
47.34
45.31
43.05
40.37
37.09
32.73
27.05
20.15
12.43
4.92
-1.04
-4.39
-5.14
-2.17
3.48
9.95
15.28
17.45
15.55
10.00
2.28
-5.69
-11.97
-15.43
-15.62
-13.14
-10.70
-10.75
-14.32
-20.63
-27.48
-32.05
-32.32
-27.75
-20.01
-14.55
-16.71
-29.59
-53.26
-85.28
-121.66
-158.16
-190.83
-216.79
-236.46
-249.88
-255.99
-253.54
-242.84
-226.29
-207.34
-188.41
-155.29
-102.24
-33.55
39.20
104.42
153.65
181.64
187.03
172.97
146.41
113.63
81.11
53.92
34.67
22.80
15.72
10.76
6.71
4.33
3.99
7.16
15.49
29.78
48.81
69.92
90.37
107.58
119.64
124.20
119.92
106.87
86.73
62.41
37.60
16.14
0.92
-7.11
-9.76
-10.15
-11.18
-14.14
-18.66
-23.20
-26.00
-25.94
-22.90
-17.81
-11.74
-6.33
-2.68
-1.71
-4.33
-11.32
-23.02
-38.71
-56.60
-74.31
-89.70
-101.52
-109.80
-115.14
-117.66
-116.24
-108.65
-92.79
-68.09
-36.24
-0.89
33.36
62.46
84.05
97.67
104.40
105.78
103.32
98.32
91.95
85.13
78.65
73.32
69.84
68.71
69.42
70.98
72.69
74.62
77.13
80.60
85.28
91.13
97.86
103.83
107.16
107.19
104.75
101.01
96.80
92.68
88.93
85.81
81.93
75.95
68.56
62.57
60.48
62.97
68.98
75.69
79.71
75.55
58.44
27.27
-14.96
-64.29
-117.87
-173.87
-231.95
-277.18
-294.97
-285.37
-261.66
-235.33
-210.81
-188.56
-167.89
-149.17
-132.86
-121.61
-118.07
-121.98
-128.74
-132.51
-131.46
-120.32
-97.26
-63.36
-23.89
14.64
47.82
75.75
100.29
123.42
146.98
171.13
195.27
217.46
236.15
244.69
240.57
223.02
193.06
154.04
110.29
66.41
25.58
-10.08
-39.46
-60.97
-73.97
-79.07
-78.29
-75.32
-74.21
-77.93
-86.51
-97.26
-105.38
-107.16
-101.89
-92.04
-82.24
-77.06
-78.86
-86.20
-95.80
-104.33
-110.55
-115.64
-122.75
-135.27
-155.33
-182.16
-209.19
-228.40
-233.62
-222.89
-199.17
-170.38
-146.34
-135.92
-143.17
-160.64
-177.42
-184.77
-178.14
-156.38
-122.43
-80.25
-35.60
6.13
49.06
96.68
147.79
198.79
247.96
294.53
340.68
386.76
431.39
482.11
541.87
604.49
659.20
698.61
719.24
724.85
719.31
647.14
494.32
299.32
118.48
-17.44
-95.58
-140.57
-168.53
-189.90
-211.58
-229.00
-237.32
-238.03
-235.75
-231.88
-225.35
-210.47
-182.51
-144.82
-100.62
-56.64
-21.37
-1.46
1.49
-10.01
-28.48
-47.93
-65.71
-76.89
-79.56
-76.94
-73.94
-73.36
-75.46
-76.97
-75.17
-69.01
-56.37
-37.31
-16.62
-1.50
1.52
-9.78
-31.95
-58.58
-82.96
-99.25
-105.29
-104.54
-97.55
-87.74
-77.81
-69.66
-65.23
-65.82
-70.63
-70.19
-55.85
-25.59
12.73
47.33
67.85
69.54
55.17
33.93
17.20
12.50
21.35
39.28
60.17
77.95
88.49
90.06
82.75
67.53
45.13
17.19
-14.33
-44.08
-67.33
-81.88
-88.61
-90.18
-89.18
-87.23
-84.56
-80.20
-71.58
-59.15
-46.60
-39.15
-40.81
-53.26
-76.39
-109.31
-150.31
-188.87
-215.31
-222.54
-207.42
-170.75
-117.23
-54.40
9.45
69.13
126.48
183.57
239.96
292.60
338.66
377.21
409.59
437.76
441.32
411.17
355.41
291.70
231.70
178.65
132.27
95.98
67.10
45.77
35.78
37.81
47.80
58.88
67.22
71.23
71.68
70.04
68.88
72.59
82.86
97.46
111.42
119.91
119.66
109.77
91.18
67.17
43.01
22.22
5.05
-10.80
-27.74
-46.94
-67.70
-88.47
-107.54
-123.83
-138.47
-154.42
-174.90
-201.35
-232.87
-266.41
-297.94
-322.73
-335.82
-332.98
-311.94
-273.66
-222.95
-167.83
-117.20
-77.77
-51.52
-35.47
-23.61
-10.19
7.64
29.09
51.01
70.28
85.65
98.18
110.31
123.94
138.79
151.90
158.44
153.85
136.18
107.31
72.35
37.42
7.07
-17.37
-37.65
-56.95
-77.98
-101.79
-127.87
-155.03
-182.06
-207.76
-230.51
-248.20
-259.28
-264.10
-265.82
-269.66
-280.64
-300.70
-326.96
-352.38
-368.83
-371.31
-360.68
-343.43
-328.41
-322.12
-325.31
-332.59
-335.22
-324.87
-297.89
-256.48
-207.36
-159.04
-118.79
-90.57
-74.03
-65.26
-58.07
-47.14
-29.95
-7.26
17.85
42.03
63.27
81.71
98.82
116.68
135.21
152.09
164.59
171.56
174.18
175.09
177.20
182.42
193.52
209.77
227.19
241.02
247.40
243.52
227.50
199.26
161.39
124.05
94.87
76.40
68.55
71.00
83.00
102.73
127.73
155.87
193.27
240.07
289.38
333.97
371.88
405.62
439.57
477.94
523.11
583.96
656.29
721.97
760.29
759.02
716.98
642.17
548.43
387.83
173.89
-33.54
-184.69
-272.65
-314.75
-329.82
-330.50
-324.20
-315.59
-298.08
-272.30
-247.05
-229.98
-221.06
-215.42
-208.47
-199.11
-189.62
-175.98
-159.20
-145.89
-140.10
-139.43
-138.36
-132.83
-122.71
-111.03
-97.11
-83.48
-74.99
-74.42
-80.35
-89.21
-97.83
-104.78
-110.04
-111.66
-109.63
-105.70
-101.35
-96.57
-91.07
-82.44
-69.01
-50.39
-26.73
-1.08
20.99
33.29
31.83
17.43
-4.35
-22.72
-27.61
-14.88
11.34
40.88
62.50
69.37
62.29
47.89
34.20
25.98
22.71
20.04
12.88
-1.43
-22.23
-45.80
-68.21
-86.40
-98.29
-102.34
-97.50
-82.90
-59.67
-30.80
0.56
30.18
54.54
71.90
82.62
88.53
92.86
98.27
106.63
119.84
136.61
153.47
166.53
173.44
167.67
148.40
117.14
71.33
17.15
-35.74
-78.65
-107.35
-122.06
-125.66
-121.07
-110.74
-98.20
-80.00
-55.38
-26.91
0.34
20.59
29.38
25.36
9.27
-13.95
-35.65
-50.14
-55.73
-53.30
-44.40
-30.12
-11.51
9.66
31.16
51.32
67.96
78.86
82.74
79.12
67.73
47.82
19.01
-17.10
-54.29
-86.02
-106.97
-114.63
-114.78
-110.27
-104.35
-99.33
-95.78
-93.08
-90.99
-89.51
-89.01
-85.71
-77.67
-63.51
-41.90
-12.28
25.80
66.07
99.76
121.28
130.38
129.82
122.27
109.31
94.08
75.71
54.89
34.19
16.40
2.86
-6.83
-13.83
-18.11
-19.85
-20.44
-21.40
-24.83
-32.90
-46.34
-63.02
-77.70
-84.30
-79.68
-65.04
-42.95
-16.04
14.11
47.21
83.64
123.37
164.83
204.16
230.17
235.63
222.06
198.26
172.16
145.39
114.73
76.57
30.47
-24.47
-83.67
-139.89
-186.49
-219.91
-239.94
-248.90
-243.15
-224.21
-196.76
-164.87
-131.11
-96.27
-60.29
-23.19
14.14
49.16
75.94
87.06
77.95
48.51
3.00
-51.93
-109.17
-162.30
-206.20
-232.40
-236.00
-220.79
-198.03
-178.02
-163.93
-152.50
-140.73
-123.80
-101.60
-77.56
-54.30
-31.11
-3.97
29.62
68.95
112.06
155.75
195.43
226.34
245.16
251.24
246.10
232.71
215.22
199.82
190.42
185.19
177.68
161.62
135.42
103.62
74.60
57.07
59.18
83.19
123.97
171.79
216.84
251.70
271.34
272.94
239.64
170.19
83.01
4.94
-47.89
-76.39
-90.69
-100.67
-110.63
-119.23
-120.17
-109.80
-90.62
-69.41
-52.27
-41.90
-37.89
-38.46
-42.16
-46.30
-49.79
-53.55
-59.25
-67.06
-75.15
-80.83
-82.15
-78.79
-70.81
-59.87
-49.04
-41.32
-37.91
-37.75
-38.42
-37.67
-34.51
-28.87
-22.10
-16.38
-13.46
-13.56
-15.24
-16.61
-16.52
-15.00
-13.26
-13.16
-16.44
-23.99
-35.68
-50.19
-65.15
-76.58
-81.02
-75.49
-58.95
-33.55
-4.19
23.05
43.32
54.98
60.05
62.71
66.83
73.38
79.57
80.61
71.88
52.19
24.84
-3.58
-25.98
-37.61
-38.37
-32.15
-24.19
-18.38
-15.61
-14.27
-12.05
-7.79
-2.15
2.85
5.22
4.20
0.43
-4.31
-7.93
-9.00
-7.23
-3.51
0.57
3.35
3.73
1.36
-3.27
-9.64
-17.70
-27.57
-38.73
-49.16
-55.32
-53.12
-40.78
-19.62
5.83
29.63
47.01
56.27
58.90
58.14
56.71
55.77
55.04
53.77
51.89
50.22
50.05
52.24
56.88
63.15
69.43
73.36
72.75
66.09
53.30
35.88
16.31
-2.93
-20.31
-35.51
-48.84
-60.48
-69.98
-76.47
-79.32
-78.90
-76.62
-74.25
-73.14
-73.54
-74.69
-75.47
-75.30
-73.66
-70.82
-67.25
-63.52
-59.83
-56.18
-52.27
-47.83
-42.70
-36.99
-31.47
-27.45
-26.83
-30.78
-38.36
-46.12
-48.66
-40.83
-20.26
10.84
46.82
80.64
107.04
123.81
131.01
129.21
118.11
97.35
67.25
32.93
1.13
-21.87
-33.54
-36.27
-35.10
-34.00
-32.48
-26.71
-12.65
8.97
31.80
47.29
49.35
37.82
18.10
-2.45
-18.51
-28.76
-34.70
-37.70
-36.97
-30.49
-17.19
1.03
19.51
33.27
39.88
40.35
37.83
35.49
34.83
35.77
37.62
40.18
43.74
48.66
55.11
62.83
71.50
80.19
87.33
90.74
88.05
78.09
61.99
43.27
26.87
17.47
17.28
24.84
35.36
42.41
41.06
29.94
11.34
-10.39
-31.17
-48.86
-63.57
-74.21
-80.68
-83.26
-82.87
-81.64
-82.84
-89.49
-102.63
-120.31
-137.97
-150.75
-155.48
-152.28
-144.55
-137.52
-135.86
-141.50
-152.23
-161.88
-163.10
-150.54
-124.14
-90.12
-58.28
-36.85
-27.88
-26.01
-21.74
-7.02
20.65
57.63
97.17
133.52
164.71
192.67
221.25
253.68
290.78
330.49
368.26
397.83
412.69
407.39
379.93
332.40
271.05
203.96
138.61
80.16
31.34
-6.23
-31.03
-41.55
-37.56
-21.30
2.44
27.87
50.42
68.38
82.88
96.50
111.28
127.28
142.66
154.62
160.72
159.65
151.15
135.66
114.12
88.34
60.89
34.92
13.64
-1.31
-10.29
-16.14
-23.43
-37.50
-62.98
-102.17
-153.23
-209.28
-259.18
-290.67
-295.18
-272.04
-230.15
-185.45
-155.48
-152.43
-178.43
-224.78
-275.32
-312.20
-321.65
-297.49
-242.07
-165.01
-80.11
-2.05
56.64
87.91
89.61
65.70
25.26
-20.21
-60.27
-88.58
-104.36
-111.22
-114.11
-116.12
-117.15
-115.33
-109.93
-103.66
-102.46
-112.55
-136.45
-170.20
-204.24
-227.19
-230.48
-211.66
-174.66
-127.69
-80.61
-42.44
-20.20
-18.52
-39.03
-79.66
-134.34
-193.91
-248.30
-289.33
-312.77
-318.82
-310.83
-293.16
-269.50
-242.32
-213.29
-184.00
-156.20
-131.34
-109.93
-91.37
-74.19
-56.99
-38.94
-20.06
-0.72
18.59
37.63
56.59
75.57
95.03
115.27
136.91
160.61
187.21
217.51
251.70
288.71
325.71
358.17
380.62
388.27
378.81
353.71
318.51
281.55
251.74
235.82
236.35
251.40
275.62
302.12
324.17
336.37
334.94
317.63
283.35
232.10
165.71
88.84
9.66
-61.58
-114.28
-140.93
-139.03
-112.22
-69.07
-19.33
29.57
74.68
117.23
160.65
208.03
260.27
315.13
366.65
408.20
434.74
443.96
436.08
413.32
379.39
338.66
294.90
248.20
198.12
145.70
93.69
44.98
1.31
-36.81
-69.66
-98.53
-129.38
-166.85
-211.19
-258.31
-302.83
-340.86
-370.26
-390.28
-402.57
-415.68
-436.26
-464.54
-494.70
-519.73
-536.22
-544.32
-545.30
-509.61
-424.79
-302.95
-172.91
-57.79
34.22
103.04
151.99
187.36
212.26
225.28
225.15
214.26
198.08
181.60
165.45
148.67
132.50
120.76
109.67
96.05
79.89
63.74
60.40
74.58
87.64
93.76
97.93
97.80
90.68
75.65
53.75
26.69
-5.48
-41.82
-77.56
-109.53
-138.99
-167.62
-196.74
-227.27
-260.45
-299.35
-346.28
-399.16
-454.13
-506.19
-547.77
-571.03
-570.91
-547.47
-506.69
-457.12
-405.34
-355.95
-311.34
-271.42
-235.26
-202.25
-172.21
-145.31
-121.08
-97.79
-74.30
-50.80
-28.20
-7.66
10.04
25.22
39.01
53.01
68.80
86.80
106.16
125.39
143.24
159.44
175.28
193.38
216.73
247.22
284.11
323.34
358.17
381.19
386.94
374.12
346.35
311.27
278.28
255.97
250.06
261.36
285.20
312.78
334.03
340.94
330.29
304.65
271.11
238.38
212.22
192.61
174.11
149.30
112.90
64.76
10.19
-42.22
-82.95
-106.20
-112.04
-105.39
-93.10
-81.54
-75.59
-78.47
-91.57
-110.80
-129.72
-141.48
-139.97
-120.63
-83.23
-34.64
11.48
39.11
42.70
24.03
-10.36
-51.18
-87.21
-108.42
-110.05
-93.38
-63.51
-15.90
51.96
134.07
217.03
287.81
339.70
372.20
389.79
400.03
424.88
480.71
567.63
671.13
773.14
860.56
925.16
962.92
892.11
681.25
377.68
74.70
-162.26
-321.23
-420.71
-486.59
-538.50
-585.55
-615.52
-613.57
-577.24
-518.12
-452.92
-392.90
-344.00
-306.78
-280.16
-256.84
-231.42
-202.96
-167.09
-130.74
-98.66
-76.39
-64.93
-64.01
-66.00
-63.56
-54.81
-43.13
-33.67
-27.00
-20.88
-11.75
2.52
25.13
56.75
93.51
128.45
154.14
168.48
173.60
173.69
171.39
167.91
162.79
154.06
139.55
116.44
85.68
51.39
19.67
-4.15
-17.22
-19.81
-15.30
-9.95
-14.35
-36.96
-80.51
-140.29
-206.33
-266.79
-311.33
-334.12
-335.51
-324.66
-311.97
-304.27
-302.84
-305.98
-312.02
-320.61
-332.54
-326.40
-289.68
-225.47
-149.82
-77.26
-14.30
37.58
78.29
107.89
126.94
133.77
129.36
117.81
105.50
97.59
95.59
97.90
101.45
103.28
98.21
84.07
62.05
37.17
16.31
6.28
12.40
36.97
77.46
124.16
164.47
186.65
184.44
158.54
115.22
63.17
9.74
-41.82
-93.40
-143.73
-188.98
-222.78
-239.10
-236.08
-218.31
-194.94
-176.47
-170.12
-175.64
-185.83
-189.87
-178.51
-148.14
-101.50
-43.96
17.34
74.62
120.70
149.85
158.90
148.20
122.28
90.05
65.88
62.39
84.13
124.99
170.75
204.49
213.55
194.70
155.66
114.94
90.43
90.62
112.65
147.33
184.97
219.84
250.66
257.76
231.79
181.06
122.74
67.57
18.53
-23.33
-55.27
-74.56
-80.92
-74.06
-57.47
-37.21
-21.24
-13.12
-11.54
-11.55
-7.87
2.78
23.85
55.09
91.42
124.76
148.57
154.88
141.80
112.82
75.49
40.78
17.71
9.76
14.64
27.29
42.58
57.67
71.43
83.22
92.48
97.23
94.39
81.79
60.15
33.34
7.28
-13.28
-26.98
-35.97
-44.86
-58.10
-76.91
-98.65
-117.71
-128.39
-128.32
-119.56
-107.32
-97.20
-92.76
-93.90
-97.88
-101.22
-101.61
-98.97
-94.60
-89.60
-83.88
-76.54
-66.69
-54.76
-42.71
-32.97
-27.97
-28.38
-33.28
-40.88
-50.14
-61.13
-74.51
-90.31
-106.73
-121.34
-130.51
-130.61
-119.46
-98.52
-72.64
-48.37
-31.29
-23.40
-24.92
-32.68
-41.73
-47.84
-50.42
-51.93
-55.41
-61.46
-67.40
-72.53
-76.26
-78.14
-78.23
-77.56
-77.77
-79.33
-81.43
-83.07
-89.20
-105.02
-132.35
-168.57
-209.13
-250.23
-289.22
-324.78
-327.37
-281.24
-194.34
-93.02
-0.71
72.56
125.52
160.70
181.83
193.38
194.91
186.43
170.57
153.23
141.29
139.55
149.96
170.45
194.49
209.01
202.48
171.27
121.49
65.07
12.85
-29.15
-61.52
-89.88
-123.14
-166.54
-218.51
-272.72
-316.20
-340.74
-343.70
-328.14
-300.78
-270.08
-242.04
-218.20
-196.61
-174.44
-151.44
-129.44
-111.05
-97.62
-88.49
-80.69
-70.44
-55.08
-34.36
-11.03
11.03
28.84
41.65
50.97
59.84
71.39
87.52
108.52
132.67
157.32
179.62
197.23
208.86
214.74
216.99
219.19
225.29
237.59
255.39
274.69
289.57
294.69
287.86
271.25
250.72
233.51
225.36
228.83
243.06
264.97
290.58
316.06
337.90
352.55
356.46
346.55
321.22
280.77
227.62
165.36
97.66
27.24
-44.30
-115.41
-183.62
-245.00
-295.00
-329.83
-347.83
-349.67
-337.33
-313.23
-279.12
-235.82
-183.77
-123.94
-58.74
7.42
68.35
117.85
150.75
165.14
163.94
155.01
148.45
152.83
171.48
201.63
237.42
271.36
297.84
315.54
327.61
338.83
352.48
367.81
380.19
384.69
375.81
349.57
305.69
248.34
184.26
120.66
63.30
16.16
-16.32
-33.15
-37.40
-34.79
-31.40
-32.46
-40.87
-57.04
-93.56
-147.86
-205.32
-250.01
-274.95
-281.72
-275.80
-262.28
-245.38
-228.30
-210.57
-192.42
-175.07
-159.98
-147.66
-139.11
-133.98
-132.25
-133.92
-137.00
-140.42
-144.67
-150.91
-155.59
-158.99
-161.45
-163.23
-164.10
-162.37
-157.36
-149.57
-140.43
-131.19
-123.28
-117.20
-113.44
-112.73
-114.99
-119.28
-122.99
-121.63
-110.13
-85.98
-50.42
-9.27
29.17
57.70
72.94
76.27
72.45
66.95
63.11
61.72
61.55
60.72
58.17
54.04
49.40
45.46
43.02
42.05
42.06
42.85
44.78
48.50
54.02
60.00
63.49
60.59
48.65
28.00
2.48
-22.00
-40.32
-50.82
-55.66
-59.29
-65.18
-73.18
-79.29
-77.95
-65.67
-42.88
-16.03
6.99
20.42
23.02
17.87
10.25
4.37
1.49
0.12
-2.34
-7.21
-13.71
-19.54
-22.36
-21.21
-16.93
-11.55
-7.46
-6.11
-7.34
-9.72
-11.25
-10.21
-5.96
0.82
8.47
14.97
18.69
19.10
16.82
13.44
10.90
10.70
13.36
18.13
23.23
26.62
26.89
23.88
19.02
14.74
13.51
16.66
23.61
31.95
38.53
40.77
37.74
30.84
23.14
17.93
17.67
23.22
33.76
47.37
60.66
68.42
64.66
44.42
6.66
-43.43
-94.30
-131.94
-145.29
-132.29
-100.96
-65.36
-38.49
-26.21
-25.48
-27.15
-22.32
-6.79
16.59
40.83
59.55
70.69
76.70
82.09
90.72
98.92
103.18
100.78
92.01
79.81
67.57
58.96
52.00
42.77
28.12
8.25
-14.31
-36.21
-56.41
-76.03
-98.75
-128.91
-167.40
-209.89
-246.83
-267.52
-264.39
-235.89
-187.04
-127.32
-67.57
-16.52
20.64
43.04
53.02
55.16
54.94
58.01
68.53
87.56
112.73
138.67
159.30
170.25
170.51
162.40
149.70
134.97
118.25
98.17
74.18
48.56
26.48
14.13
16.34
34.59
66.44
106.11
145.91
177.94
195.12
192.40
168.38
127.09
78.51
36.18
12.12
11.88
32.44
63.66
93.19
111.66
113.15
97.86
72.47
47.04
30.34
26.67
35.74
54.29
76.57
98.86
119.19
137.33
154.24
170.95
187.22
200.69
208.33
207.21
196.77
179.71
160.78
143.94
130.10
117.09
101.80
82.72
60.80
38.95
20.32
6.35
-3.77
-12.36
-21.94
-34.02
-48.37
-63.69
-78.19
-90.43
-99.90
-107.40
-114.75
-124.01
-136.29
-150.80
-165.08
-175.97
-181.48
-182.02
-180.41
-180.35
-184.47
-192.90
-203.48
-213.18
-219.78
-222.76
-222.72
-220.01
-213.73
-201.59
-181.11
-151.43
-114.44
-74.50
-37.08
-6.91
13.42
23.86
26.34
23.76
18.71
12.69
6.20
-0.87
-8.58
-16.66
-24.88
-32.93
-40.58
-47.90
-55.33
-63.47
-72.82
-83.46
-94.80
-106.48
-117.60
-127.21
-135.00
-141.88
-149.74
-160.55
-175.07
-192.07
-210.22
-226.59
-237.86
-241.89
-239.44
-234.06
-231.09
-235.73
-251.56
-282.50
-328.59
-385.59
-445.61
-499.24
-537.75
-556.08
-554.57
-539.02
-522.16
-514.45
-519.34
-531.42
-539.54
-531.47
-499.83
-444.31
-345.80
-202.60
-28.54
151.06
311.52
438.19
528.16
586.41
622.87
645.57
657.20
660.49
658.47
654.23
643.14
622.91
593.30
557.37
521.07
487.64
458.70
433.60
410.44
387.17
363.99
341.38
319.23
296.77
270.88
240.00
205.95
174.08
150.82
142.04
149.05
163.55
175.48
175.78
161.12
133.81
98.27
56.93
11.08
-39.79
-95.65
-153.84
-209.90
-258.26
-293.77
-312.99
-319.49
-314.72
-302.19
-286.72
-272.24
-260.79
-252.41
-245.74
-235.74
-221.79
-202.79
-177.41
-143.03
-96.69
-38.02
28.44
93.91
147.99
184.74
202.72
203.69
192.11
173.45
152.10
130.52
110.42
93.23
76.21
61.03
46.98
29.67
2.64
-37.39
-90.85
-150.92
-205.32
-241.66
-250.78
-232.54
-194.91
-149.74
-107.50
-73.71
-47.85
-25.87
-5.94
14.58
36.49
60.00
85.42
112.97
141.74
169.44
192.44
206.64
212.87
214.77
217.84
227.19
245.66
272.99
306.92
344.45
372.60
382.74
370.13
335.76
285.71
228.51
172.24
122.75
87.13
61.37
41.46
23.46
5.22
-13.17
-29.77
-41.91
-47.43
-44.85
-35.15
-18.85
1.08
20.17
33.26
36.01
26.55
6.26
-21.00
-50.95
-78.33
-100.98
-118.62
-132.05
-142.31
-150.45
-158.00
-167.09
-180.27
-198.31
-222.76
-254.15
-292.12
-335.27
-381.36
-427.53
-470.61
-507.81
-522.92
-504.61
-449.57
-365.27
-266.22
-166.89
-76.85
-0.19
62.54
112.58
149.52
173.35
185.06
187.27
183.91
178.95
175.32
174.41
176.42
179.12
180.23
178.30
173.21
166.21
158.96
152.75
147.71
143.51
138.47
131.16
121.01
108.47
95.05
82.82
73.81
69.21
69.56
74.40
82.89
96.03
112.26
129.69
145.67
159.98
172.13
181.64
188.02
191.11
191.21
188.83
184.36
178.50
172.14
165.57
158.74
151.24
142.06
129.39
115.97
102.56
89.55
77.17
65.25
53.57
42.03
30.64
19.66
9.43
-0.17
-9.02
-16.95
-24.01
-30.40
-36.31
-41.83
-46.86
-50.99
-54.12
-55.87
-55.78
-53.60
-49.29
-42.92
-34.61
-24.40
-12.20
1.70
16.92
32.74
47.96
61.13
70.59
75.75
76.65
74.24
69.92
65.14
60.77
56.69
51.89
44.75
34.70
22.02
8.28
-4.29
-13.78
-19.70
-23.63
-28.85
-39.87
-58.65
-85.43
-117.75
-151.24
-181.47
-205.90
-225.06
-242.63
-265.94
-298.28
-342.61
-397.62
-457.05
-510.76
-547.13
-556.38
-533.74
-485.17
-415.44
-338.67
-270.50
-224.01
-205.95
-214.84
-241.43
-272.05
-299.75
-310.28
-304.78
-291.52
-281.42
-282.22
-294.79
-312.92
-327.19
-337.55
-331.94
-312.60
-284.50
-252.13
-217.16
-179.22
-138.61
-49.11
16.27
58.87
73.72
64.04
41.89
23.92
24.06
46.79
84.94
115.88
134.42
134.46
120.93
105.95
101.23
111.16
130.68
148.85
149.35
135.18
110.14
83.23
63.11
53.68
52.59
53.35
49.42
33.98
13.38
-6.99
-21.25
-26.15
-22.17
-12.83
-2.49
5.88
10.20
14.75
22.69
36.79
57.95
84.66
112.96
137.04
150.69
148.40
129.34
96.18
55.39
15.33
-16.54
-35.90
-42.51
-39.28
-30.14
-18.00
-3.75
13.38
34.33
58.87
85.31
111.36
135.41
157.18
177.27
195.85
211.82
222.88
226.90
223.19
212.54
195.80
172.15
138.85
93.39
36.80
-24.29
-78.97
-116.78
-132.98
-130.97
-120.29
-110.98
-108.01
-108.99
-106.50
-92.73
-64.02
-22.41
25.65
71.97
108.78
130.01
132.00
114.28
80.45
37.84
-4.27
-37.64
-57.67
-64.16
-60.15
-49.40
-34.59
-16.93
2.60
22.28
39.37
51.42
57.96
61.38
66.22
77.56
98.95
131.20
172.14
217.25
260.59
295.94
317.85
322.93
310.70
283.90
247.89
209.06
173.05
143.31
120.73
104.26
91.95
81.87
72.48
62.46
50.53
35.44
16.26
-7.26
-34.43
-63.52
-92.07
-117.38
-137.44
-151.44
-160.24
-165.82
-170.23
-174.16
-175.94
-172.05
-159.33
-137.96
-112.99
-93.17
-86.70
-96.26
-116.24
-133.75
-133.49
-103.92
-41.78
47.19
151.07
256.17
350.78
426.81
479.51
506.74
508.35
486.25
444.41
388.09
322.59
251.71
176.90
97.81
13.65
-74.43
-161.92
-240.89
-301.91
-336.92
-342.14
-319.63
-276.62
-223.84
-172.75
-133.03
-110.54
-106.26
-116.21
-132.96
-148.55
-157.75
-160.22
-160.00
-162.45
-170.20
-180.75
-187.31
-182.65
-163.74
-134.00
-101.60
-74.84
-57.65
-48.35
-42.14
-35.23
-27.22
-20.23
-15.84
-12.67
-6.89
4.18
18.09
26.42
18.48
-11.98
-61.79
-118.52
-166.26
-193.68
-199.16
-190.13
-177.41
-168.22
-162.38
-153.61
-134.45
-101.55
-58.05
-11.70
29.05
58.67
75.77
81.73
78.58
67.97
51.58
32.30
14.98
5.61
9.33
27.89
58.30
93.57
125.47
147.95
159.63
163.73
165.55
168.92
173.73
175.88
170.17
154.07
130.07
105.04
86.77
79.76
83.00
90.90
96.65
96.06
89.54
80.88
74.50
72.51
73.34
72.88
67.14
54.60
37.37
20.49
9.37
7.06
13.02
23.67
34.53
42.99
49.15
55.17
63.95
76.56
91.76
107.15
121.01
133.26
145.77
160.53
178.01
198.32
220.20
241.95
262.03
279.21
291.39
297.36
295.95
286.21
271.29
254.75
239.05
224.61
210.12
192.00
169.91
145.13
119.72
101.14
95.71
107.00
135.64
180.34
236.13
301.25
372.32
442.17
507.19
561.74
599.64
617.05
615.05
596.61
573.58
557.96
514.84
422.41
274.65
84.96
-121.44
-296.07
-437.00
-549.49
-638.26
-706.83
-753.88
-775.18
-769.51
-739.78
-692.12
-637.94
-583.59
-534.40
-495.56
-465.69
-441.56
-420.11
-399.17
-377.61
-357.72
-337.95
-316.84
-294.72
-270.67
-245.75
-223.19
-206.64
-197.92
-197.58
-200.89
-201.88
-196.24
-180.67
-154.39
-118.96
-77.13
-31.91
13.10
55.77
94.05
125.54
148.56
162.48
168.07
167.48
163.50
158.04
152.03
145.06
136.10
124.73
111.68
98.29
85.59
73.62
61.73
49.48
37.55
27.61
21.51
19.96
21.98
25.33
27.65
27.54
25.20
22.31
21.31
24.36
32.27
43.79
55.49
62.70
61.21
48.98
27.27
0.11
-27.22
-50.45
-67.66
-79.15
-86.19
-89.58
-88.93
-83.13
-71.95
-56.85
-41.33
-29.86
-25.73
-29.25
-37.21
-44.12
-44.49
-35.73
-18.80
1.94
20.90
33.77
39.40
40.07
39.99
43.27
50.88
60.52
66.91
63.88
46.93
15.12
-28.31
-77.38
-125.22
-167.33
-196.69
-206.62
-193.17
-158.40
-111.08
-63.23
-28.61
-10.05
-5.05
-6.62
-5.94
4.49
28.95
64.79
103.11
132.11
142.29
128.77
93.13
41.14
-19.70
-82.10
-139.16
-183.81
-209.36
-210.72
-187.35
-143.18
-85.61
-23.56
34.16
79.54
106.23
110.50
93.15
59.61
19.53
-16.39
-40.34
-49.76
-46.72
-35.07
-17.83
3.58
26.89
46.65
53.53
36.98
-9.30
-82.54
-169.72
-251.00
-306.37
-322.83
-298.40
-242.21
-171.30
-105.29
-60.86
-47.36
-64.56
-102.78
-146.03
-176.78
-181.34
-154.25
-100.12
-32.43
30.84
73.26
85.45
67.80
30.00
-13.10
-46.90
-61.84
-55.69
-32.34
1.68
40.46
80.41
119.88
157.21
189.55
213.04
224.35
222.48
209.16
187.81
161.32
130.28
93.09
47.91
-4.25
-57.74
-102.96
-129.77
-132.02
-110.53
-72.76
-29.31
10.73
43.47
70.27
95.31
122.00
150.67
178.28
199.77
210.37
207.60
192.52
169.65
145.88
128.41
122.47
129.77
148.08
172.54
197.84
220.35
238.96
254.32
267.21
277.42
283.73
284.89
280.63
271.73
259.37
244.39
227.47
209.77
193.21
180.03
171.24
165.02
156.45
139.22
108.49
63.28
6.86
-55.00
-116.71
-174.76
-227.79
-275.45
-317.30
-352.46
-380.18
-400.20
-412.16
-414.72
-404.88
-378.67
-333.40
-270.27
-195.79
-120.78
-56.91
-12.31
11.26
18.44
17.47
16.11
18.10
22.52
25.38
22.60
12.54
-3.16
-20.74
-36.36
-47.78
-54.77
-58.16
-58.73
-56.73
-52.19
-45.92
-40.09
-38.08
-41.83
-51.44
-63.57
-72.77
-74.33
-66.41
-50.31
-29.22
-6.82
13.71
29.92
40.69
46.04
46.96
45.19
42.46
40.33
39.61
40.04
40.00
37.98
33.17
26.02
17.92
10.28
4.22
0.25
-2.16
-4.86
-9.16
-15.12
-21.34
-24.27
-22.57
-17.45
-9.58
-0.63
5.90
6.55
-1.27
-18.64
-44.64
-76.41
-109.06
-136.75
-147.47
-135.35
-102.97
-60.64
-20.96
7.15
21.13
24.22
22.12
19.27
16.22
11.75
4.87
-3.61
-11.41
-16.33
-17.40
-15.35
-12.27
-11.36
-14.50
-21.62
-30.68
-38.70
-43.27
-43.51
-40.13
-35.02
-30.82
-28.88
-28.88
-28.83
-25.85
-17.69
-3.70
14.87
35.44
54.86
70.94
82.95
91.84
99.63
107.88
116.69
124.37
128.21
125.52
115.05
97.49
75.59
53.92
37.35
30.11
34.71
51.15
76.74
106.70
132.50
143.01
131.17
97.20
49.73
1.84
-35.45
-57.84
-67.96
-72.09
-75.52
-79.31
-81.24
-78.56
-70.55
-59.51
-49.26
-43.17
-42.85
-48.25
-57.62
-69.09
-81.08
-92.10
-100.07
-102.28
-96.29
-80.39
-57.71
-33.94
-14.88
-3.82
-0.82
-3.47
-8.64
-13.99
-18.22
-21.27
-22.09
-19.01
-10.35
3.89
21.65
39.53
54.21
63.55
67.39
67.82
68.26
72.68
83.43
100.21
119.71
136.29
143.75
137.62
117.34
83.74
43.51
5.81
-20.97
-31.77
-26.15
-7.66
17.86
44.29
66.50
81.35
87.03
83.04
70.38
51.58
30.36
10.75
-3.98
-12.40
-14.85
-13.50
-11.12
-9.81
-10.08
-10.93
-10.71
-8.17
-3.33
2.62
7.54
9.28
6.65
-0.11
-9.41
-18.99
-26.65
-31.01
-31.75
-29.75
-26.58
-23.86
-22.48
-22.38
-22.61
-21.84
-19.11
-14.32
-8.40
-2.97
0.29
0.35
-2.88
-8.46
-14.97
-21.06
-26.00
-29.80
-33.04
-36.35
-39.88
-43.13
-45.32
-46.01
-45.70
-45.91
-48.59
-55.15
-65.71
-78.89
-92.40
-103.75
-110.91
-112.51
-107.80
-96.48
-78.87
-56.00
-29.68
-2.24
24.05
47.42
66.64
80.83
89.03
90.09
82.80
66.38
41.11
8.78
-27.19
-62.03
-90.39
-107.48
-110.30
-98.46
-74.28
-41.94
-6.17
29.10
61.26
88.94
111.30
127.40
136.19
136.88
129.60
115.66
97.38
77.50
58.37
41.53
27.62
16.55
7.73
0.30
-6.79
-14.48
-23.32
-33.01
-42.19
-48.78
-50.72
-46.99
-38.26
-26.98
-16.68
-10.87
-11.95
-20.41
-34.62
-51.14
-65.50
-73.35
-71.75
-60.19
-40.76
-17.23
6.49
27.83
45.85
60.53
71.39
76.85
74.70
63.66
44.93
22.43
1.55
-13.18
-19.92
-20.12
-17.34
-15.33
-16.34
-20.55
-26.61
-32.76
-37.87
-41.90
-45.69
-50.42
-56.86
-64.91
-73.46
-80.69
-84.72
-84.30
-79.41
-71.27
-61.94
-53.39
-46.72
-41.79
-37.63
-33.23
-28.19
-22.93
-18.03
-13.49
-8.42
-1.40
8.59
21.28
35.03
47.16
54.75
55.35
47.45
30.97
7.59
-19.26
-44.95
-64.96
-76.35
-78.83
-74.62
-67.28
-60.05
-54.68
-51.28
-49.02
-47.08
-45.00
-42.62
-39.75
-36.11
-31.70
-27.12
-23.43
-21.69
-22.13
-23.78
-24.69
-22.70
-16.35
-5.31
9.77
27.86
48.06
69.81
92.45
114.86
135.19
151.25
161.19
164.40
161.90
156.18
150.42
147.38
148.38
152.88
158.64
162.69
162.51
156.94
146.72
134.12
122.13
113.47
109.68
110.63
114.48
118.19
118.46
112.71
100.01
81.43
59.64
38.10
19.91
6.96
-0.49
-3.53
-4.17
-4.55
-6.41
-10.51
-16.41
-22.60
-26.95
-27.60
-23.67
-15.68
-5.27
5.51
14.99
22.20
26.56
27.10
22.04
9.03
-13.90
-47.01
-88.11
-132.79
-175.59
-211.52
-237.27
-251.51
-254.48
-247.47
-232.62
-213.08
-193.38
-179.03
-175.47
-186.57
-213.30
-252.99
-299.77
-345.60
-382.03
-401.85
-400.62
-377.26
-334.02
-275.57
-207.81
-136.77
-67.85
-5.58
46.53
86.33
113.46
129.64
138.21
143.03
147.02
151.36
155.63
158.76
160.20
160.32
160.05
160.03
160.00
158.95
155.88
150.55
143.71
136.75
130.90
126.63
123.66
121.28
118.82
115.99
112.72
109.01
104.69
99.58
93.63
87.11
80.49
74.14
68.10
61.92
54.91
46.49
36.54
25.53
14.43
4.38
-3.67
-9.26
-12.43
-13.72
-13.97
-14.09
-14.84
-16.63
-19.47
-22.96
-26.55
-29.80
-32.67
-35.67
-39.67
-45.49
-53.33
-62.36
-70.69
-75.88
-75.78
-69.26
-56.65
-39.54
-20.20
-0.85
16.80
31.83
43.93
53.24
60.17
65.21
68.91
71.80
74.24
76.48
78.67
80.92
83.33
85.99
88.93
92.26
96.31
101.79
109.73
121.20
136.72
155.86
176.99
197.54
214.72
226.26
230.90
228.53
219.72
205.13
185.18
160.03
129.86
95.34
57.70
18.26
-22.19
-63.85
-107.47
-153.37
-200.35
-245.48
-284.95
-315.45
-335.40
-344.99
-345.02
-335.77
-316.58
-286.95
-248.34
-205.01
-162.98
-127.36
-99.72
-77.35
-55.14
-28.77
2.61
36.02
66.49
89.75
104.29
111.57
114.96
117.98
123.20
131.75
143.45
157.06
170.62
181.78
188.61
190.49
188.26
183.99
179.78
176.46
172.89
166.51
154.44
134.68
106.85
72.36
34.08
-4.20
-38.69
-66.39
-85.35
-94.96
-95.68
-88.76
-75.82
-58.49
-38.14
-16.20
5.27
24.33
39.64
51.04
59.60
67.38
76.99
91.25
112.20
139.17
169.85
200.59
227.08
244.93
250.24
240.28
214.91
175.91
124.74
65.66
5.54
-47.53
-87.17
-111.71
-124.94
-133.23
-144.66
-169.48
-212.99
-274.61
-348.65
-427.17
-503.54
-573.65
-633.92
-684.44
-732.51
-784.81
-845.37
-913.75
-985.75
-1056.22
-1120.67
-1173.63
-1172.07
-1086.65
-909.83
-664.57
-393.97
-139.74
71.83
218.52
314.07
373.92
404.95
412.61
403.24
385.25
369.79
363.61
368.52
384.60
407.20
427.41
439.06
439.87
431.63
418.18
402.23
384.11
363.77
337.96
301.69
253.56
197.15
140.78
94.69
66.64
59.00
68.57
85.08
94.28
84.05
48.77
-8.00
-74.36
-134.26
-173.04
-182.07
-162.21
-122.08
-73.10
-24.71
18.35
55.55
87.75
115.17
136.97
152.17
161.11
165.33
165.39
159.03
141.10
106.58
55.01
-6.62
-65.30
-107.64
-126.94
-127.24
-121.70
-126.06
-150.36
-193.77
-245.44
-290.07
-315.02
-314.97
-292.64
-256.26
-215.86
-180.15
-154.69
-141.29
-137.98
-139.72
-140.14
-133.28
-115.40
-85.53
-44.92
4.09
58.84
116.57
173.90
226.66
270.75
303.48
324.74
337.44
346.50
356.81
371.43
390.12
409.32
423.70
428.44
421.57
405.04
383.80
363.68
348.87
340.52
337.13
336.30
336.55
337.89
341.00
345.50
348.92
347.28
336.93
316.52
288.24
256.85
227.76
204.73
188.24
175.68
162.68
145.10
120.69
89.78
54.65
18.31
-16.85
-49.63
-79.74
-107.24
-131.74
-152.40
-168.61
-180.96
-191.46
-202.95
-217.47
-234.67
-250.90
-260.21
-256.44
-235.75
-198.46
-148.90
-93.60
-38.43
13.75
63.63
113.87
166.42
220.42
271.75
314.46
343.39
356.18
353.85
339.65
317.17
288.77
255.32
216.89
173.70
126.68
77.36
27.29
-22.49
-71.39
-118.84
-163.85
-204.93
-240.41
-268.97
-290.04
-303.89
-311.37
-313.56
-311.66
-306.98
-301.09
-295.81
-292.71
-292.56
-294.65
-296.56
-294.61
-285.13
-265.70
-235.96
-197.58
-153.51
-107.35
-63.07
-25.03
2.24
14.69
10.02
-11.09
-45.00
-85.79
-126.96
-162.71
-188.46
-200.99
-198.49
-181.13
-151.77
-116.21
-82.19
-57.31
-46.71
-51.75
-70.19
-97.43
-127.92
-156.39
-178.56
-191.65
-194.85
-189.50
-178.49
-164.99
-150.88
-136.01
-118.73
-97.53
-72.60
-46.39
-22.57
-4.10
8.36
16.76
24.37
33.94
46.41
60.80
75.20
87.86
97.85
104.94
109.04
109.94
107.41
101.70
93.76
85.12
77.22
70.81
65.67
60.95
55.73
49.65
43.04
36.58
30.83
25.83
21.08
15.75
9.12
0.86
-8.83
-19.24
-29.22
-37.40
-42.36
-42.93
-38.51
-29.39
-16.80
-2.56
11.31
23.24
32.37
38.65
42.51
44.50
45.02
44.28
42.36
39.47
35.97
32.36
29.21
26.92
25.72
25.64
26.50
27.98
29.59
30.73
30.82
29.49
26.74
22.97
18.78
14.76
11.20
8.04
4.94
1.59
-2.14
-6.06
-9.80
-13.00
-15.47
-17.33
-18.82
-20.16
-21.47
-22.67
-23.58
-24.08
-24.17
-24.09
-24.28
-25.27
-27.48
-31.00
-35.57
-40.57
-45.19
-48.66
-50.33
-49.76
-46.61
-40.60
-31.67
-19.99
-6.11
9.13
24.72
39.66
53.11
64.43
73.29
79.63
83.75
86.11
87.16
87.06
85.78
83.37
80.30
77.73
77.19
79.87
85.99
94.59
104.07
113.06
120.93
127.67
133.25
136.93
137.21
132.62
122.81
109.21
94.63
82.03
73.12
67.83
64.79
62.50
60.27
58.52
58.02
59.02
60.73
61.59
60.07
55.52
48.40
39.80
30.75
21.57
11.91
1.25
-10.51
-22.77
-34.58
-45.17
-54.29
-62.21
-69.21
-75.05
-78.75
-78.88
-74.32
-64.95
-52.05
-37.93
-25.22
-15.95
-10.98
-9.90
-11.53
-14.60
-18.36
-22.96
-29.24
-38.18
-50.15
-64.20
-77.96
-88.19
-91.85
-87.22
-74.62
-56.26
-35.46
-15.36
2.00
16.05
27.28
36.59
44.66
51.67
57.47
61.82
64.46
64.95
62.66
56.91
47.42
34.83
20.86
7.94
-1.56
-6.24
-6.29
-3.33
0.18
1.93
0.69
-3.34
-8.72
-13.51
-16.17
-16.18
-14.12
-11.21
-8.67
-7.26
-7.26
-8.73
-11.77
-16.51
-22.90
-30.54
-38.76
-46.95
-54.85
-62.52
-69.84
-75.93
-79.11
-77.54
-70.13
-57.33
-41.10
-24.06
-8.59
3.82
12.48
16.95
16.58
10.72
-0.77
-16.75
-34.50
-50.30
-60.53
-62.84
-57.01
-44.93
-29.78
-14.95
-2.93
5.24
9.83
11.84
12.14
11.06
8.29
3.35
-3.90
-12.96
-22.70
-31.71
-38.82
-43.33
-45.19
-44.81
-42.82
-39.88
-36.55
-33.24
-30.31
-28.06
-26.67
-26.22
-26.60
-27.48
-28.47
-29.21
-29.45
-29.10
-28.14
-26.56
-24.24
-21.07
-16.96
-12.04
-6.53
-0.72
5.13
10.86
16.38
21.56
26.18
29.88
32.28
33.22
32.83
31.64
30.39
29.72
29.88
30.64
31.41
31.55
30.72
29.03
26.85
24.63
22.54
20.55
18.56
16.58
14.79
13.30
11.87
9.88
6.61
1.89
-3.49
-7.74
-8.79
-5.15
3.32
15.32
28.68
41.28
51.75
59.71
65.51
69.71
72.78
75.05
76.86
78.79
81.76
87.02
95.94
109.69
128.80
152.75
179.65
206.35
229.08
244.41
250.20
246.07
233.17
213.62
189.86
164.34
139.54
117.85
101.11
89.83
82.50
75.79
65.57
48.58
23.81
-7.02
-40.08
-70.97
-96.30
-114.55
-126.04
-132.21
-134.62
-134.37
-131.87
-127.10
-119.93
-110.60
-99.89
-88.98
-79.08
-70.87
-64.23
-58.38
-52.45
-46.19
-40.35
-36.43
-35.98
-39.69
-46.88
-55.72
-64.04
-70.28
-74.12
-76.20
-77.48
-78.46
-78.93
-78.33
-76.37
-73.46
-70.74
-69.51
-70.57
-73.75
-77.95
-81.66
-83.55
-83.01
-80.24
-75.98
-71.14
-66.39
-62.05
-58.11
-54.33
-50.47
-46.43
-42.38
-38.69
-35.60
-32.98
-30.22
-26.45
-20.91
-13.43
-4.54
4.79
13.58
21.22
27.46
32.23
35.33
36.42
35.28
32.05
27.44
22.37
17.60
13.38
9.45
5.37
1.02
-3.27
-6.68
-8.25
-7.30
-3.89
1.00
5.58
7.64
5.16
-3.02
-16.76
-34.57
-53.92
-71.68
-84.75
-90.58
-87.70
-76.08
-57.31
-34.30
-10.61
10.39
26.39
36.37
40.68
40.56
37.84
34.55
32.40
32.26
33.80
35.51
35.49
32.50
26.63
19.34
12.58
7.80
5.40
4.93
5.82
7.91
11.40
16.30
21.99
27.13
30.36
30.95
29.14
25.93
22.37
19.03
15.63
11.32
4.94
-4.44
-17.19
-32.96
-50.62
-68.69
-85.74
-100.97
-114.25
-125.97
-136.52
-145.96
-154.06
-160.48
-165.07
-167.96
-169.63
-170.66
-171.60
-172.90
-174.71
-176.63
-177.44
-174.99
-166.71
-150.69
-126.15
-93.58
-54.38
-10.33
36.53
83.66
127.77
164.88
190.40
200.95
195.71
177.18
150.43
121.43
95.05
74.12
59.44
49.52
42.37
36.26
30.20
23.79
16.87
9.31
1.54
-5.22
-10.93
-16.54
-24.34
-37.29
-57.88
-86.91
-122.91
-161.90
-189.75
-193.88
-167.66
-114.91
-48.38
17.41
72.91
115.25
146.58
170.53
188.17
198.38
198.94
189.10
169.93
144.09
114.53
84.40
56.63
32.69
13.17
-2.28
-14.68
-25.66
-35.02
-44.12
-54.25
-65.90
-79.30
-94.04
-109.35
-124.16
-137.52
-149.12
-160.20
-172.74
-188.62
-208.84
-232.47
-256.64
-277.25
-290.41
-293.73
-287.01
-271.64
-249.56
-222.74
-192.67
-160.30
-125.92
-89.21
-49.42
-6.27
39.40
85.23
127.81
164.24
193.46
216.91
237.76
259.25
282.89
307.92
331.85
351.87
366.06
373.74
374.98
369.91
358.36
340.30
316.60
289.55
262.53
239.09
221.97
212.49
210.54
214.92
223.80
235.16
246.95
257.07
263.54
264.80
260.33
251.07
239.28
227.80
218.84
212.98
208.86
203.85
195.20
181.43
162.99
141.81
120.02
98.77
77.68
55.20
29.45
-1.31
-37.87
-79.95
-126.16
-174.29
-221.39
-264.08
-299.10
-324.18
-339.42
-346.45
-347.44
-343.71
-335.53
-322.28
-303.25
-278.37
-248.82
-217.32
-185.44
-152.53
-115.92
-73.97
-28.69
13.19
42.23
49.33
28.21
-20.83
-90.61
-169.40
-244.88
-307.17
-350.47
-372.90
-366.73
-330.28
-270.23
-200.48
-135.52
-84.00
-46.85
-21.74
-1.28
20.83
46.93
76.62
107.00
133.56
149.41
148.45
128.57
93.41
50.61
7.28
-32.57
-68.69
-102.21
-132.54
-155.62
-165.58
-158.47
-136.15
-106.70
-79.71
-60.57
-47.36
-32.43
-7.43
31.04
79.42
129.39
172.81
206.10
230.60
249.28
262.36
265.27
250.65
212.71
151.10
72.02
-14.00
-96.64
-169.95
-233.51
-290.02
-341.92
-389.04
-428.98
-459.14
-478.93
-489.88
-493.92
-491.26
-479.44
-454.67
-414.22
-358.34
-290.37
-214.90
-135.57
-54.02
29.45
114.51
199.48
281.34
356.86
423.91
481.83
531.68
575.86
617.37
658.59
699.90
738.40
767.82
780.04
767.88
728.11
662.88
579.14
486.28
393.45
307.54
232.92
171.86
125.23
92.72
72.66
62.23
58.29
58.51
62.10
69.49
81.24
96.90
114.52
131.08
143.45
149.15
146.49
134.42
112.49
81.06
41.79
-2.43
-48.13
-92.50
-134.27
-173.83
-212.23
-249.90
-285.62
-316.46
-338.47
-347.91
-342.19
-320.52
-284.03
-235.46
-178.87
-119.04
-61.04
-9.70
30.84
57.61
69.15
65.67
48.94
21.91
-11.84
-48.90
-86.62
-123.29
-158.00
-189.84
-217.40
-238.62
-251.03
-252.57
-242.75
-223.53
-199.34
-175.65
-156.41
-141.87
-128.00
-108.54
-78.87
-39.51
2.53
36.09
50.70
41.49
11.21
-31.33
