1677506438.00
64.000000
-0.00
-0.00
-0.00
-0.00
-0.00
-0.00
-0.00
-0.00
-0.00
-0.00
0.00
0.01
0.01
-0.00
-0.03
-0.05
-0.05
0.00
0.13
0.36
0.66
1.01
1.37
1.72
2.06
2.40
2.79
3.24
3.80
4.42
5.06
5.66
6.20
6.68
7.15
7.68
8.31
9.14
10.09
11.04
11.88
12.56
13.14
13.76
14.65
15.96
17.91
20.32
22.90
25.38
27.58
29.57
31.68
34.32
37.81
42.54
48.15
54.10
59.83
64.97
69.58
74.14
79.34
85.71
93.76
103.00
112.62
121.73
129.77
136.75
143.30
150.75
157.77
166.64
177.95
191.79
206.97
220.57
228.25
225.36
208.53
176.87
132.76
80.05
23.07
-34.94
-92.44
-149.16
-205.23
-260.37
-313.74
-363.87
-409.83
-450.91
-486.50
-515.74
-537.23
-549.22
-549.96
-538.37
-514.21
-478.67
-433.88
-382.45
-327.02
-269.84
-212.63
-156.66
-102.95
-52.37
-5.90
35.58
71.43
101.35
125.50
144.38
158.69
169.15
176.37
180.75
182.57
182.07
179.51
175.23
169.65
163.18
156.15
148.81
141.30
133.69
126.02
118.33
110.69
103.16
95.80
88.68
81.83
75.25
68.95
62.95
57.25
51.86
46.78
42.03
37.59
33.45
29.61
26.07
22.81
19.83
17.11
14.67
12.48
10.54
8.83
7.35
6.07
4.97
4.05
3.27
2.62
2.09
1.65
1.30
1.01
0.79
0.61
0.47
0.37
0.29
0.23
0.20
0.17
0.16
0.16
0.17
0.19
0.22
0.25
0.28
0.32
0.36
0.41
0.45
0.50
0.55
0.59
0.65
0.71
0.77
0.83
0.90
0.98
1.06
1.16
1.27
1.39
1.52
1.67
1.84
2.02
2.23
2.46
2.72
3.00
3.31
3.65
4.02
4.43
4.86
5.34
5.86
6.41
7.00
7.64
8.31
9.03
9.80
10.61
11.46
12.37
13.30
14.31
15.37
16.50
17.69
18.94
20.20
21.46
22.63
23.64
24.36
24.67
24.48
23.64
22.11
19.86
16.92
13.39
9.36
5.03
0.56
-3.84
-8.02
-11.79
-15.02
-17.58
-19.42
-20.53
-20.96
-20.83
-20.30
-19.50
-18.55
-17.51
-16.38
-15.16
-13.84
-12.41
-10.96
-9.61
-8.42
-7.40
-6.50
-5.59
-4.54
-3.25
-1.69
-0.08
1.30
2.29
2.85
3.12
3.41
4.06
5.31
7.24
9.35
11.12
12.12
12.21
11.61
10.85
10.50
10.98
12.40
13.93
14.69
13.97
11.52
7.66
3.13
-1.21
-4.70
-7.04
-9.07
-11.89
-16.77
-25.03
-37.84
-55.75
-78.42
-104.82
-128.21
-143.71
-147.97
-140.28
-122.83
-99.72
-75.45
-53.27
-34.57
-19.06
-6.50
3.45
10.82
15.69
18.50
20.28
22.23
25.30
29.87
35.06
39.82
43.18
44.73
44.67
43.66
42.57
42.06
42.42
43.09
43.40
42.69
40.69
37.61
34.07
30.81
28.41
27.22
26.99
27.34
27.81
28.03
27.75
26.86
25.27
22.94
19.88
16.10
11.70
6.84
1.74
-3.34
-8.19
-12.61
-16.44
-19.54
-21.89
-23.50
-24.53
-25.21
-25.79
-26.40
-26.95
-27.17
-26.69
-25.18
-22.50
-18.79
-14.47
-10.00
-5.86
-2.34
0.48
2.59
4.02
4.73
4.72
3.99
2.72
1.22
-0.12
-0.93
-1.01
-0.29
1.14
3.13
5.47
7.91
10.09
11.58
12.06
11.33
9.51
6.98
4.29
1.91
0.16
-0.90
-1.42
-1.60
-1.64
-1.67
-1.75
-1.87
-1.99
-2.05
-1.98
-1.83
-1.72
-1.92
-2.74
-4.45
-7.09
-10.39
-13.82
-16.74
-18.53
-18.75
-17.27
-14.22
-9.89
-4.71
0.83
6.26
11.14
15.14
18.05
19.85
20.66
20.71
20.27
19.61
18.94
18.47
18.28
18.37
18.64
18.82
18.64
17.91
16.71
15.33
14.20
13.69
13.84
14.40
14.81
14.55
13.26
10.94
7.93
4.64
1.48
-1.37
-3.85
-6.04
-7.94
-9.50
-10.62
-11.25
-11.43
-11.41
-11.48
-11.90
-12.89
-14.50
-16.67
-19.20
-21.81
-24.11
-25.69
-26.19
-25.37
-23.19
-19.82
-15.63
-11.05
-6.51
-2.32
1.39
4.60
7.37
9.70
11.56
12.79
13.23
12.86
11.83
10.49
9.25
8.36
7.91
7.77
7.74
7.67
7.54
7.41
7.31
7.19
6.87
6.24
5.24
4.06
3.01
2.39
2.34
2.84
3.66
4.44
4.88
4.75
3.99
2.68
0.99
-0.84
-2.69
-4.62
-6.80
-9.49
-12.85
-16.82
-21.09
-25.13
-28.40
-30.39
-30.75
-29.26
-25.92
-20.91
-14.64
-7.72
-0.88
5.21
10.10
13.59
15.81
17.08
17.80
18.28
18.81
19.49
20.39
21.50
22.83
24.25
25.54
26.40
26.56
25.89
24.48
22.64
20.67
18.77
16.88
14.73
12.06
8.73
4.91
0.99
-2.54
-5.32
-7.21
-8.33
-9.01
-9.60
-10.34
-11.27
-12.29
-13.21
-13.96
-14.65
-15.58
-17.06
-19.34
-22.46
-26.35
-30.76
-35.43
-39.95
-43.78
-46.22
-46.60
-44.45
-39.75
-32.95
-24.89
-16.46
-8.39
-1.03
5.48
11.14
15.90
19.62
22.19
23.62
24.07
23.81
23.05
21.96
20.61
19.03
17.34
15.66
14.15
12.90
11.97
11.34
11.03
11.06
11.34
11.75
12.11
12.24
12.01
11.46
10.68
9.77
8.76
7.58
6.12
4.32
2.22
-0.08
-2.41
-4.71
-6.96
-9.25
-11.72
-14.44
-17.43
-20.62
-23.84
-26.84
-29.29
-30.81
-31.04
-29.73
-26.85
-22.66
-17.62
-12.22
-6.94
-1.99
2.50
6.56
10.14
13.21
15.65
17.37
18.40
18.86
19.03
19.18
19.59
20.37
21.51
22.87
24.20
25.24
25.80
25.77
25.15
24.02
22.55
20.94
19.35
17.89
16.51
15.06
13.42
11.59
9.73
8.08
6.81
5.93
5.28
4.63
3.82
2.82
1.70
0.54
-0.67
-2.04
-3.67
-5.65
-7.93
-10.40
-12.95
-15.52
-18.09
-20.68
-23.33
-25.95
-28.31
-30.04
-30.68
-29.84
-27.39
-23.49
-18.54
-12.98
-7.16
-1.29
4.59
10.42
16.12
21.49
26.27
30.21
33.09
34.93
35.89
36.29
36.53
36.99
37.96
39.69
42.39
46.14
50.81
55.87
60.41
63.36
63.98
62.11
58.32
53.57
48.70
44.17
39.94
35.77
31.58
27.61
24.39
22.55
22.65
25.04
29.75
36.37
43.90
50.89
55.71
57.01
54.13
47.30
37.47
26.02
14.41
4.04
-3.82
-8.14
-8.21
-3.89
4.29
15.17
27.16
38.51
47.59
53.13
54.32
51.04
43.72
33.39
21.34
8.93
-2.76
-13.02
-21.55
-28.42
-33.88
-38.24
-41.69
-44.32
-46.15
-47.25
-47.91
-48.60
-49.90
-52.17
-55.42
-59.18
-62.67
-65.09
-65.91
-64.95
-62.41
-58.66
-54.09
-49.01
-43.74
-38.63
-34.12
-30.67
-28.61
-28.07
-28.92
-30.92
-33.79
-37.38
-41.52
-45.99
-50.33
-53.95
-56.22
-56.71
-55.35
-52.49
-48.77
-44.92
-41.63
-39.29
-37.94
-37.23
-36.47
-34.80
-31.61
-26.63
-20.15
-12.84
-5.57
0.80
5.68
8.78
10.08
9.83
8.65
7.35
6.86
8.06
11.43
16.88
23.73
30.88
37.13
41.64
44.14
45.09
45.46
46.32
48.45
51.95
56.27
60.28
62.79
62.90
60.40
55.87
50.26
44.53
39.10
33.70
27.57
20.06
11.17
1.89
-6.12
-11.13
-12.03
-8.73
-2.12
6.21
14.43
20.81
24.13
23.91
20.46
14.74
7.95
1.04
-5.64
-12.29
-19.38
-27.22
-35.69
-44.30
-52.52
-60.11
-67.24
-74.28
-81.42
-88.39
-94.42
-98.42
-99.38
-96.68
-90.47
-81.81
-72.62
-65.16
-61.39
-62.23
-67.20
-74.69
-82.78
-90.09
-96.19
-101.56
-106.98
-112.81
-118.87
-124.69
-130.11
-135.56
-141.92
-149.92
-159.53
-169.77
-179.02
-185.62
-188.27
-186.22
-179.07
-166.58
-148.62
-125.45
-97.92
-67.61
-36.53
-6.77
20.14
43.33
62.70
78.61
91.58
102.14
110.78
117.95
124.04
129.26
133.51
136.36
137.17
135.39
130.93
124.31
116.56
108.77
101.70
95.44
89.53
83.18
75.82
67.23
57.64
47.54
37.55
28.33
20.50
14.61
11.00
9.63
10.08
11.59
13.26
14.29
14.14
12.54
9.48
5.23
0.33
-4.44
-8.27
-10.44
-10.53
-8.52
-4.66
0.59
6.71
13.15
19.42
25.17
30.32
34.93
39.22
43.27
46.94
49.86
51.54
51.71
50.42
48.11
45.42
42.96
41.13
39.98
39.45
39.37
39.66
40.16
40.64
40.69
39.82
37.66
34.23
29.98
25.59
21.76
18.82
16.63
14.60
12.02
8.30
3.26
-2.82
-9.31
-15.42
-20.48
-24.18
-26.59
-28.09
-29.05
-29.76
-30.32
-30.73
-31.04
-31.34
-31.63
-31.67
-30.78
-28.04
-22.60
-14.22
-3.41
8.57
20.26
30.44
38.63
45.10
50.60
55.94
61.73
68.18
75.17
82.42
89.62
96.52
103.01
109.10
114.97
120.86
127.06
133.87
141.63
150.66
161.06
172.38
183.38
192.01
195.90
193.16
183.22
167.14
147.20
126.01
105.58
86.78
69.73
54.33
41.04
30.93
25.23
24.40
27.52
32.34
36.05
36.58
33.53
28.34
23.44
20.65
19.96
19.32
15.70
6.93
-6.67
-22.19
-35.41
-42.91
-43.81
-39.89
-34.59
-31.01
-30.79
-33.83
-39.27
-46.31
-54.42
-62.93
-70.28
-74.23
-72.91
-66.41
-57.51
-50.85
-50.78
-58.85
-72.59
-86.34
-93.96
-91.61
-79.33
-60.41
-39.23
-18.95
-0.37
17.54
36.27
56.27
76.62
95.55
111.29
122.87
129.96
132.59
130.80
124.62
114.39
100.86
85.23
68.69
52.20
36.34
21.19
6.46
-8.38
-24.07
-41.10
-59.33
-77.73
-94.42
-107.29
-114.78
-116.62
-113.82
-108.44
-102.69
-98.34
-96.46
-97.35
-100.86
-106.56
-113.73
-121.39
-128.43
-134.03
-138.01
-140.96
-144.05
-148.50
-154.99
-163.27
-172.17
-180.13
-185.59
-187.57
-185.88
-180.99
-173.83
-165.52
-157.25
-150.24
-145.57
-144.07
-145.93
-150.49
-156.19
-160.87
-162.32
-158.89
-150.09
-136.60
-120.03
-102.23
-84.76
-68.49
-53.71
-40.55
-29.41
-21.07
-16.38
-15.76
-18.63
-23.43
-28.13
-31.02
-31.40
-29.83
-27.73
-26.52
-26.94
-28.67
-30.49
-30.80
-28.38
-22.91
-15.17
-6.81
0.30
4.85
6.81
7.61
9.85
16.63
30.69
53.46
84.52
121.35
159.61
194.10
220.06
234.68
238.14
233.67
226.37
221.26
221.55
227.99
239.40
253.87
269.76
285.96
301.39
314.42
322.72
323.96
316.44
299.82
274.86
242.96
205.41
163.09
116.51
66.21
12.69
-43.79
-103.24
-165.62
-230.13
-294.55
-355.17
-407.60
-448.07
-474.61
-487.34
-487.74
-477.36
-456.86
-426.15
-385.71
-338.07
-288.54
-244.29
-212.13
-195.85
-194.55
-202.76
-212.38
-215.23
-205.36
-180.02
-139.20
-84.86
-20.49
48.76
115.97
173.32
214.38
236.59
242.60
239.08
233.47
230.22
228.68
223.75
209.03
180.58
139.09
89.68
39.57
-4.80
-39.80
-65.05
-82.54
-95.24
-105.76
-115.69
-125.81
-136.92
-150.55
-168.98
-193.97
-225.17
-258.84
-288.22
-305.77
-305.92
-287.43
-253.44
-209.71
-161.85
-113.34
-65.23
-17.49
29.17
72.36
108.71
135.53
152.64
162.65
169.94
178.63
190.63
205.02
219.08
229.89
236.08
238.35
238.78
239.47
241.26
243.57
244.99
244.36
241.63
237.96
235.07
234.36
236.07
239.11
241.25
239.80
232.61
218.61
198.21
173.20
146.13
119.50
95.10
73.70
55.28
39.47
26.14
15.60
8.43
4.98
5.02
7.64
11.46
15.04
17.29
17.69
16.08
12.61
7.55
1.17
-6.22
-14.40
-23.09
-31.94
-40.42
-47.79
-53.27
-56.48
-57.61
-57.52
-57.43
-58.29
-60.35
-62.91
-64.64
-64.31
-61.38
-56.36
-50.54
-45.35
-41.60
-39.14
-37.10
-34.43
-30.49
-25.41
-19.93
-14.99
-11.37
-9.51
-9.50
-11.28
-14.60
-19.08
-23.94
-28.29
-31.25
-32.29
-31.22
-28.10
-22.94
-15.61
-6.03
5.50
18.04
30.09
40.09
47.02
51.03
53.54
56.94
63.73
75.76
93.38
115.17
137.95
157.55
169.70
171.24
160.96
139.96
111.36
79.32
48.07
20.72
-1.28
-18.31
-32.20
-45.24
-59.25
-74.83
-91.02
-105.77
-116.69
-122.15
-121.95
-117.44
-110.98
-105.05
-101.54
-101.40
-104.94
-112.14
-123.08
-137.70
-155.51
-175.30
-195.23
-213.37
-228.35
-239.84
-248.41
-254.72
-258.58
-258.38
-251.33
-234.66
-207.05
-169.56
-125.72
-80.36
-38.10
-2.05
26.73
48.72
65.26
77.77
87.48
95.53
102.82
109.87
116.53
121.87
124.65
123.94
119.70
112.79
104.61
96.28
88.27
80.37
72.21
63.65
55.02
46.84
39.36
32.38
25.34
17.75
9.48
0.71
-8.22
-17.11
-25.74
-33.66
-39.88
-43.03
-41.93
-36.18
-26.62
-15.03
-3.44
6.75
15.24
22.61
29.70
36.87
43.79
49.66
53.79
56.06
56.97
57.33
57.68
58.06
57.94
56.74
54.16
50.47
46.46
43.10
41.24
41.38
43.59
47.44
52.05
56.28
58.97
59.33
57.29
53.33
48.25
42.61
36.47
29.56
21.59
12.78
3.93
-3.96
-10.14
-14.65
-18.04
-21.26
-24.89
-28.98
-32.99
-36.04
-37.54
-36.88
-33.23
-25.50
-12.68
5.77
29.45
57.02
86.39
114.93
140.45
161.72
178.63
191.97
203.02
213.20
223.73
235.08
246.01
254.60
259.21
259.27
255.40
248.80
240.87
232.20
222.34
207.86
185.77
155.10
117.19
74.26
28.64
-16.21
-54.70
-79.61
-88.86
-83.04
-65.73
-42.31
-19.60
-3.48
3.96
4.91
3.29
-5.37
-26.39
-62.21
-109.29
-160.93
-210.78
-254.47
-290.39
-319.91
-355.73
-408.27
-480.72
-566.95
-657.95
-747.18
-831.71
-911.59
-931.73
-861.93
-714.94
-539.50
-378.16
-247.09
-144.07
-61.81
5.22
60.18
89.99
96.76
88.89
80.70
84.38
104.40
138.10
179.50
222.85
258.18
280.69
290.43
294.14
299.07
308.54
321.46
334.17
342.28
338.01
317.25
280.04
231.09
175.39
115.55
52.43
-12.73
-76.63
-136.34
-188.02
-229.30
-260.04
-283.22
-303.65
-324.73
-346.34
-364.85
-376.14
-377.06
-367.39
-349.09
-325.19
-298.29
-269.38
-237.89
-202.51
-162.55
-118.33
-71.27
-23.02
25.07
72.05
117.00
158.64
195.32
225.06
246.15
257.34
258.00
248.38
229.77
204.73
177.00
150.64
128.96
113.38
103.04
95.52
88.08
79.06
68.38
57.21
46.83
37.56
28.56
18.47
6.40
-7.38
-21.55
-34.41
-44.71
-52.37
-58.39
-64.20
-70.74
-77.81
-83.99
-87.32
-86.17
-80.07
-69.95
-57.69
-45.22
-33.74
-23.40
-13.42
-2.79
9.29
22.90
37.54
52.55
67.39
81.97
96.59
111.86
128.40
146.81
167.67
191.45
218.13
246.66
274.64
298.50
314.44
319.79
314.04
299.05
278.28
255.50
233.49
213.52
195.62
179.17
163.54
148.14
132.45
115.75
97.35
77.00
55.44
34.38
16.13
2.78
-4.50
-5.90
-2.86
2.69
8.99
14.97
20.34
25.17
29.53
33.13
35.48
36.09
34.82
32.07
28.57
25.20
22.62
21.21
21.00
21.79
23.35
25.43
27.81
30.28
32.61
34.66
36.34
37.56
38.19
37.97
36.64
34.05
30.27
25.75
21.01
16.57
12.64
9.19
6.00
2.82
-0.53
-4.01
-7.51
-10.66
-13.01
-13.97
-13.03
-9.91
-4.76
1.87
9.24
16.68
23.77
30.37
36.46
41.93
46.51
49.84
51.73
52.32
52.08
51.64
51.49
51.90
52.78
53.86
54.74
55.05
54.33
52.05
47.69
40.85
31.45
19.91
7.11
-5.89
-18.14
-29.02
-38.29
-45.93
-51.96
-56.43
-59.54
-61.77
-63.96
-67.12
-72.09
-79.09
-87.63
-96.55
-104.41
-109.84
-111.86
-109.97
-104.32
-95.44
-84.23
-71.67
-58.55
-45.37
-32.34
-19.48
-6.80
5.57
17.39
28.23
37.66
45.11
49.96
51.72
50.04
45.06
37.50
28.71
20.35
14.12
11.33
12.50
17.29
24.56
32.88
40.96
48.01
53.97
59.12
63.83
68.17
71.83
74.27
74.98
73.72
70.71
66.33
61.07
55.37
49.66
44.66
41.39
41.32
45.85
55.63
69.96
86.57
101.93
112.28
114.72
107.88
91.88
67.67
36.47
-0.38
-41.13
-82.93
-121.88
-153.76
-175.31
-185.46
-185.68
-179.18
-169.43
-158.72
-147.56
-135.15
-120.24
-102.28
-81.83
-60.21
-38.97
-19.11
-0.85
16.26
32.82
49.17
65.01
79.64
92.29
102.66
111.19
119.03
127.37
136.85
146.94
156.02
161.99
163.07
158.46
148.40
133.67
114.55
90.17
58.69
18.48
-30.31
-84.50
-138.12
-183.91
-216.07
-232.26
-234.39
-227.46
-217.19
-207.68
-200.06
-193.03
-184.45
-173.02
-159.09
-144.19
-129.98
-117.20
-105.44
-93.85
-81.84
-69.73
-58.63
-49.71
-43.48
-39.43
-36.33
-32.84
-28.11
-22.25
-16.06
-10.46
-5.95
-2.25
1.51
6.37
12.94
21.22
30.57
40.05
48.77
56.11
61.73
65.56
67.50
67.56
65.69
61.96
56.57
50.00
43.09
36.89
32.48
30.29
29.61
28.43
23.86
13.26
-4.59
-28.72
-56.00
-82.05
-102.55
-114.33
-116.14
-108.88
-95.48
-80.42
-68.84
-65.21
-71.81
-87.81
-109.44
-131.37
-148.56
-157.92
-158.68
-151.90
-139.27
-122.23
-101.95
-79.57
-56.81
-35.97
-19.41
-8.85
-4.75
-6.35
-12.03
-19.93
-28.41
-36.30
-42.82
-47.39
-49.59
-48.97
-45.28
-38.52
-29.09
-17.83
-5.89
5.54
15.41
23.13
28.58
32.07
34.09
35.17
35.79
36.19
36.51
36.67
36.33
35.13
32.82
29.53
25.93
23.18
22.67
25.50
32.19
42.44
55.10
68.28
79.58
86.49
86.94
79.97
66.18
47.86
28.37
11.33
-0.53
-6.06
-5.89
-2.02
3.04
7.17
9.28
9.68
10.04
12.93
21.15
36.59
59.27
86.79
114.70
137.79
152.01
155.81
150.64
140.11
128.25
117.97
110.34
104.76
99.96
94.96
89.25
82.58
74.53
64.30
51.13
34.73
15.84
-3.96
-22.63
-38.36
-50.16
-58.19
-63.72
-68.75
-75.23
-84.46
-96.35
-109.30
-120.65
-127.64
-128.29
-122.12
-110.14
-94.25
-76.30
-57.38
-37.69
-17.15
3.93
24.02
40.43
49.90
49.69
38.81
18.54
-7.87
-36.14
-62.18
-83.28
-98.29
-107.62
-112.46
-114.06
-113.32
-110.56
-105.84
-99.08
-90.35
-79.72
-67.09
-52.03
-34.19
-13.72
8.32
30.09
49.40
64.55
74.92
80.95
83.56
83.44
80.56
74.13
63.47
48.60
30.86
12.58
-3.75
-16.46
-25.33
-31.53
-36.87
-42.96
-50.58
-59.54
-69.06
-78.17
-86.04
-92.02
-95.54
-95.85
-92.25
-84.19
-71.98
-57.10
-42.25
-30.67
-24.97
-26.07
-32.58
-41.29
-48.63
-52.13
-51.31
-47.69
-43.52
-40.44
-38.69
-37.17
-34.32
-29.15
-21.83
-13.58
-5.99
-0.24
3.38
5.51
7.12
8.89
10.87
12.45
12.89
11.81
9.49
6.75
4.63
3.90
4.78
7.02
10.05
13.37
16.63
19.80
22.87
25.82
28.46
30.57
31.87
32.26
31.80
30.74
29.38
28.04
27.01
26.46
26.42
26.79
27.37
27.91
28.22
28.26
28.15
28.03
27.96
27.79
27.20
25.85
23.49
20.19
16.27
12.23
8.51
5.40
2.86
0.69
-1.51
-4.12
-7.45
-11.69
-16.79
-22.52
-28.37
-33.48
-36.83
-37.46
-34.81
-28.95
-20.76
-11.63
-2.98
4.24
9.81
14.16
18.03
21.97
26.08
30.11
33.65
36.55
39.01
41.41
44.08
47.06
49.96
52.23
53.29
52.91
51.15
48.31
44.79
40.77
36.35
31.49
26.21
20.59
14.79
9.07
3.62
-1.41
-5.95
-9.88
-13.15
-15.75
-17.75
-19.43
-21.15
-23.24
-25.79
-28.45
-30.47
-30.90
-28.91
-24.22
-17.21
-8.76
-0.05
7.95
14.68
20.14
24.59
28.32
31.43
33.69
34.84
34.71
33.55
31.86
30.28
29.29
29.12
29.71
30.74
31.91
32.88
33.33
33.00
31.78
29.74
27.11
24.23
21.39
18.73
16.25
14.00
12.00
10.30
8.91
7.70
6.40
4.74
2.54
-0.26
-3.60
-7.39
-11.72
-16.56
-21.90
-27.35
-32.16
-35.37
-36.04
-33.64
-28.28
-20.68
-12.01
-3.51
3.95
9.95
14.47
17.70
19.77
20.76
20.66
19.68
18.26
16.98
16.37
16.70
17.80
19.25
20.57
21.44
21.90
22.18
22.65
23.55
24.81
26.14
27.14
27.47
26.94
25.62
23.83
21.84
19.80
17.62
15.02
11.68
7.47
2.51
-2.84
-8.18
-13.22
-17.85
-22.16
-26.30
-30.39
-34.51
-38.70
-42.95
-47.15
-51.05
-54.09
-55.45
-54.25
-49.90
-42.34
-32.14
-20.46
-8.60
2.34
11.73
19.39
25.47
30.19
33.61
35.72
36.53
36.13
34.83
33.10
31.48
30.38
29.98
30.16
30.54
30.69
30.33
29.44
28.16
26.75
25.31
23.89
22.38
20.72
18.97
17.30
15.93
14.92
14.11
13.11
11.47
8.79
5.08
0.64
-3.99
-8.26
-11.88
-14.97
-18.05
-21.79
-26.76
-33.16
-40.66
-48.45
-55.37
-60.13
-61.66
-59.34
-53.24
-44.05
-33.03
-21.61
-11.08
-2.20
4.73
9.88
13.66
16.40
18.32
19.61
20.37
20.75
20.93
20.96
20.89
20.57
19.93
18.98
17.81
16.67
15.76
15.13
14.70
14.17
13.27
11.70
9.30
6.06
2.08
-2.37
-6.93
-11.06
-14.30
-16.33
-17.30
-17.72
-18.50
-20.50
-24.31
-29.92
-36.75
-43.73
-49.53
-52.93
-53.00
-49.49
-42.67
-33.53
-23.30
-13.16
-3.98
3.87
10.39
15.74
20.11
23.60
26.32
28.40
30.00
31.27
32.29
33.03
33.48
33.58
33.37
32.93
32.31
31.52
30.51
29.23
27.71
26.05
24.41
22.93
21.59
20.18
18.40
16.03
13.06
9.65
6.09
2.59
-0.91
-4.67
-9.10
-14.43
-20.78
-28.05
-35.88
-43.71
-50.74
-55.89
-58.08
-56.55
-51.21
-42.70
-32.26
-21.35
-11.22
-2.54
4.53
10.15
14.62
18.16
20.91
22.92
24.33
25.25
25.78
26.06
26.18
26.28
26.51
26.99
27.70
28.50
29.14
29.39
29.11
28.35
27.22
25.86
24.28
22.47
20.38
18.02
15.41
12.58
9.47
5.92
1.71
-3.22
-8.77
-14.57
-20.16
-25.16
-29.45
-33.22
-36.82
-40.57
-44.44
-47.97
-50.27
-50.39
-47.51
-41.44
-32.64
-22.17
-11.30
-1.16
7.52
14.56
20.12
24.47
27.77
30.02
31.14
31.11
30.14
28.70
27.40
26.75
26.92
27.77
28.86
29.65
29.79
29.21
28.08
26.65
25.07
23.26
21.04
18.26
15.03
11.75
9.03
7.28
6.62
6.69
6.84
6.46
5.16
2.96
0.17
-2.87
-5.98
-9.19
-12.58
-16.23
-20.16
-24.33
-28.75
-33.51
-38.72
-44.24
-49.55
-53.75
-55.68
-54.43
-49.61
-41.59
-31.46
-20.67
-10.53
-1.92
4.93
10.22
14.44
17.96
20.94
23.36
25.15
26.34
27.09
27.74
28.58
29.73
31.06
32.15
32.57
31.98
30.38
28.06
25.45
22.97
20.84
19.05
17.50
16.02
14.62
13.46
12.72
12.57
12.98
13.70
14.37
14.59
14.13
12.87
10.85
8.18
4.98
1.33
-2.65
-6.89
-11.33
-15.98
-20.89
-26.09
-31.60
-37.39
-43.26
-48.91
-53.82
-57.33
-58.69
-57.40
-53.30
-46.82
-38.79
-30.14
-21.67
-13.80
-6.67
-0.34
5.14
9.55
12.79
14.83
15.97
16.68
17.51
18.88
20.98
23.75
26.86
29.87
32.46
34.38
35.55
36.00
35.79
34.94
33.38
30.96
27.62
23.29
18.15
12.46
6.64
1.09
-3.94
-8.31
-12.11
-15.44
-18.39
-20.91
-22.88
-24.16
-24.68
-24.52
-23.88
-23.07
-22.35
-22.00
-22.31
-23.50
-25.73
-28.98
-32.87
-36.69
-39.45
-40.25
-38.49
-34.14
-27.69
-20.09
-12.33
-5.17
1.01
6.17
10.43
13.92
16.62
18.51
19.60
20.10
20.36
20.74
21.45
22.45
23.50
24.28
24.56
24.26
23.48
22.36
21.06
19.65
18.13
16.46
14.55
12.37
10.04
7.69
5.49
3.48
1.58
-0.42
-2.76
-5.62
-9.01
-12.81
-16.88
-21.04
-25.26
-29.56
-33.99
-38.51
-42.83
-46.44
-48.66
-48.78
-46.23
-40.90
-33.09
-23.56
-13.28
-3.21
5.92
13.63
19.63
23.81
26.20
26.94
26.35
24.88
23.05
21.27
19.82
18.80
18.16
17.80
17.63
17.59
17.57
17.46
17.14
16.57
15.76
14.83
13.86
12.92
11.98
10.85
9.32
7.16
4.29
0.84
-2.87
-6.47
-9.76
-12.68
-15.44
-18.44
-22.04
-26.40
-31.38
-36.51
-40.98
-43.96
-44.79
-43.20
-39.28
-33.64
-26.98
-19.98
-13.23
-7.12
-2.00
1.95
4.60
6.05
6.64
6.90
7.40
8.52
10.43
13.04
16.06
19.09
21.78
23.87
25.14
25.46
24.72
22.87
19.91
15.96
11.26
6.12
0.89
-4.14
-8.73
-12.79
-16.19
-18.87
-20.88
-22.29
-23.37
-24.44
-25.93
-28.10
-31.06
-34.64
-38.43
-41.75
-43.82
-43.94
-41.64
-36.90
-30.12
-22.07
-13.56
-5.26
2.36
9.05
14.64
19.04
22.15
24.01
24.81
24.87
24.56
24.18
23.87
23.57
23.04
22.09
20.55
18.51
16.17
13.88
11.93
10.47
9.40
8.48
7.35
5.72
3.42
0.42
-3.16
-7.06
-10.93
-14.44
-17.34
-19.49
-21.08
-22.52
-24.36
-27.09
-30.88
-35.46
-39.98
-43.36
-44.47
-42.60
-37.62
-30.04
-20.82
-11.06
-1.68
6.68
13.72
19.36
23.55
26.30
27.69
27.97
27.56
26.98
26.69
26.80
27.10
27.14
26.42
24.70
22.08
18.90
15.61
12.56
9.84
7.33
4.82
2.09
-0.97
-4.30
-7.75
-11.07
-14.06
-16.53
-18.42
-19.79
-20.87
-22.01
-23.70
-26.36
-30.17
-34.89
-39.79
-43.72
-45.49
-44.26
-39.78
-32.51
-23.37
-13.46
-3.68
5.33
13.21
19.75
24.67
27.78
28.99
28.43
26.55
23.98
21.41
19.33
17.96
17.28
17.05
17.09
17.34
17.89
18.95
20.57
22.52
24.34
25.38
25.15
23.40
20.28
16.14
11.41
6.37
1.11
-4.40
-10.16
-16.13
-22.17
-28.06
-33.53
-38.22
-41.63
-43.19
-42.39
-39.13
-33.63
-26.63
-18.92
-11.24
-4.03
2.54
8.37
13.31
17.17
19.84
21.50
22.53
23.53
24.97
27.08
29.74
32.61
35.15
36.90
37.55
37.07
35.72
33.95
32.29
31.05
30.21
29.51
28.56
27.15
25.27
23.18
21.08
19.10
17.12
15.01
12.74
10.40
8.14
6.05
3.88
1.17
-2.73
-8.39
-16.04
-25.35
-35.42
-44.76
-51.66
-54.49
-52.30
-45.04
-33.72
-20.10
-6.21
6.26
16.27
23.66
28.87
32.77
36.26
40.08
44.55
49.43
53.86
56.56
56.17
51.81
43.50
32.28
19.79
7.76
-2.65
-11.02
-17.58
-22.80
-27.07
-30.66
-33.77
-36.57
-39.29
-41.97
-44.45
-46.39
-47.51
-47.82
-47.52
-46.90
-46.02
-44.62
-42.36
-39.03
-34.80
-30.19
-25.85
-22.34
-19.93
-18.64
-18.34
-18.87
-19.97
-21.21
-21.96
-21.41
-18.81
-13.73
-6.24
3.01
13.06
22.88
31.65
38.94
44.70
49.10
52.30
54.30
55.01
54.29
52.15
48.85
44.86
40.72
36.93
33.76
31.26
29.28
27.63
26.11
24.64
23.21
21.85
20.51
19.13
17.58
15.72
13.53
11.07
8.55
6.17
4.07
2.19
0.29
-1.92
-4.63
-7.90
-11.44
-14.93
-18.05
-20.67
-22.93
-25.15
-27.81
-31.25
-35.66
-40.93
-46.60
-51.95
-56.07
-58.08
-57.35
-53.71
-47.52
-39.54
-30.72
-21.94
-13.76
-6.41
0.16
6.01
11.10
15.30
18.44
20.39
21.29
21.50
21.54
21.79
22.44
23.42
24.39
25.05
25.17
24.67
23.50
21.64
19.04
15.71
11.85
7.85
4.20
1.23
-0.96
-2.61
-4.13
-5.82
-7.77
-9.76
-11.47
-12.70
-13.48
-14.13
-15.21
-17.22
-20.45
-24.85
-30.00
-35.18
-39.45
-41.84
-41.60
-38.28
-32.03
-23.55
-13.95
-4.44
3.96
10.71
15.74
19.44
22.29
24.72
26.98
29.04
30.73
31.90
32.51
32.71
32.74
32.82
33.01
33.17
33.10
32.55
31.40
29.63
27.28
24.48
21.34
17.99
14.57
11.23
8.03
4.91
1.77
-1.49
-4.98
-8.60
-12.21
-15.56
-18.44
-20.66
-22.16
-22.97
-23.32
-23.63
-24.45
-26.18
-28.93
-32.32
-35.46
-37.18
-36.50
-33.00
-27.00
-19.41
-11.38
-3.87
2.58
7.80
11.88
14.94
17.05
18.22
18.48
17.97
16.99
15.90
14.89
14.09
13.37
12.61
11.70
10.69
9.65
8.71
7.86
7.04
6.10
4.95
3.66
2.38
1.26
0.39
-0.27
-0.83
-1.41
-2.10
-2.95
-3.97
-5.19
-6.68
-8.57
-11.05
-14.29
-18.41
-23.40
-29.01
-34.78
-40.01
-43.94
-45.76
-44.92
-41.15
-34.67
-26.10
-16.38
-6.52
2.56
10.25
16.30
20.70
23.65
25.35
26.04
25.97
25.42
24.68
23.94
23.28
22.61
21.79
20.66
19.22
17.53
15.73
13.97
12.28
10.56
8.62
6.17
3.01
-0.95
-5.55
-10.44
-15.06
-18.90
-21.62
-23.26
-24.15
-24.85
-25.97
-27.87
-30.69
-34.16
-37.72
-40.60
-41.95
-41.17
-38.04
-32.87
-26.38
-19.42
-12.66
-6.40
-0.66
4.72
9.78
14.37
18.21
21.19
23.42
25.28
27.23
29.57
32.20
34.66
36.33
36.63
35.25
32.27
28.07
23.25
18.36
13.81
9.80
6.32
3.29
0.58
-1.80
-3.85
-5.62
-7.25
-9.04
-11.41
-14.66
-18.88
-23.91
-29.36
-34.72
-39.48
-43.13
-45.18
-45.16
-42.82
-38.19
-31.70
-24.07
-16.12
-8.50
-1.62
4.38
9.53
13.75
17.04
19.37
20.77
21.52
21.93
22.39
23.13
24.21
25.46
26.54
27.07
26.78
25.55
23.46
20.75
17.66
14.31
10.61
6.37
1.47
-4.09
-9.98
-15.67
-20.59
-24.39
-27.05
-28.91
-30.50
-32.38
-34.88
-38.09
-41.80
-45.50
-48.52
-50.10
-49.54
-46.45
-40.87
-33.36
-24.76
-16.07
-8.00
-0.95
5.15
10.55
15.48
20.01
24.03
27.37
29.92
31.78
33.19
34.42
35.65
36.92
38.17
39.29
40.16
40.63
40.66
40.08
38.91
37.14
34.86
32.23
29.33
26.22
22.89
19.29
15.39
11.13
6.52
1.57
-3.55
-8.63
-13.37
-17.53
-21.01
-23.88
-26.46
-29.23
-32.73
-37.28
-42.80
-48.63
-53.66
-56.57
-56.34
-52.64
-45.91
-37.26
-27.89
-18.81
-10.45
-2.76
4.46
11.35
17.83
23.58
28.26
31.72
34.08
35.58
36.60
37.46
38.27
38.99
39.51
39.79
39.86
39.86
39.96
40.16
40.31
40.11
39.21
37.48
34.99
31.95
28.69
25.36
21.95
18.36
14.55
10.65
6.92
3.63
0.82
-1.70
-4.38
-7.59
-11.60
-16.31
-21.37
-26.33
-30.81
-34.62
-37.82
-40.66
-43.45
-46.53
-50.09
-54.21
-58.67
-62.92
-66.13
-67.23
-65.33
-59.96
-51.37
-40.50
-28.69
-17.31
-7.33
0.86
7.37
12.59
16.95
20.80
24.28
27.50
30.40
32.94
35.01
36.54
37.47
37.79
37.46
36.54
35.10
33.28
31.37
29.64
28.30
27.37
26.64
25.81
24.56
22.79
20.53
18.03
15.53
13.19
11.05
9.02
6.95
4.74
2.32
-0.24
-2.89
-5.55
-8.20
-10.90
-13.71
-16.70
-19.91
-23.34
-26.93
-30.63
-34.43
-38.30
-42.19
-45.89
-48.93
-50.69
-50.39
-47.40
-41.57
-33.21
-23.19
-12.54
-2.22
7.15
15.40
22.58
28.79
33.93
37.73
39.93
40.43
39.52
37.74
35.73
33.99
32.73
31.89
31.23
30.50
29.57
28.38
27.02
25.50
23.82
21.87
19.43
16.46
12.98
9.24
5.59
2.30
-0.44
-2.65
-4.40
-5.80
-6.90
-7.85
-8.75
-9.80
-11.13
-12.75
-14.47
-16.03
-17.24
-18.09
-18.77
-19.57
-20.73
-22.26
-24.02
-25.89
-27.74
-29.63
-31.53
-33.19
-34.05
-33.34
-30.43
-25.13
-17.81
-9.40
-0.96
6.63
13.02
18.29
22.70
26.45
29.52
31.69
32.80
32.97
32.54
32.12
32.20
33.10
34.78
36.95
39.19
41.15
42.65
43.72
44.57
45.39
46.42
47.85
49.87
52.63
56.19
60.31
64.40
67.43
68.17
65.43
58.56
47.54
33.21
17.03
0.73
-14.16
-26.63
-36.23
-43.05
-47.35
-49.55
-50.29
-50.54
-51.51
-54.38
-59.70
-67.19
-75.69
-83.72
-89.99
-93.85
-95.20
-94.12
-90.62
-84.56
-75.82
-64.69
-51.95
-38.67
-25.91
-14.32
-4.20
4.52
11.97
18.29
23.60
28.06
31.85
35.26
38.54
41.76
44.81
47.43
49.27
50.02
49.51
47.75
44.97
41.47
37.57
33.48
29.31
25.16
20.98
16.79
12.63
8.60
4.83
1.51
-1.19
-3.17
-4.45
-5.18
-5.63
-6.14
-6.93
-8.17
-9.81
-11.70
-13.68
-15.60
-17.46
-19.30
-21.28
-23.53
-26.12
-29.00
-31.95
-34.62
-36.62
-37.42
-36.68
-34.21
-30.18
-24.99
-19.24
-13.50
-8.23
-3.67
0.01
2.73
4.47
5.23
5.14
4.49
3.60
2.79
2.22
1.89
1.63
1.18
0.31
-0.99
-2.63
-4.39
-5.96
-7.06
-7.58
-7.50
-6.94
-5.96
-4.77
-3.46
-2.21
-1.18
-0.58
-0.61
-1.39
-2.89
-4.94
-7.20
-9.37
-11.18
-12.54
-13.54
-14.38
-15.34
-16.65
-18.47
-20.86
-23.64
-26.40
-28.52
-29.38
-28.44
-25.59
-21.20
-15.92
-10.47
-5.43
-1.06
2.62
5.75
8.41
10.63
12.36
13.60
14.31
14.58
14.52
14.30
14.06
13.96
14.05
14.33
14.77
15.23
15.59
15.70
15.44
14.77
13.67
12.30
10.80
9.40
8.27
7.44
6.82
6.13
5.05
3.32
0.85
-2.33
-5.96
-9.76
-13.51
-17.07
-20.51
-23.92
-27.42
-30.95
-34.27
-36.99
-38.62
-38.66
-36.82
-33.11
-27.80
-21.41
-14.54
-7.70
-1.26
4.51
9.45
13.46
16.45
18.46
19.70
20.54
21.35
22.39
23.69
25.06
26.24
27.02
27.44
27.67
27.98
28.54
29.34
30.11
30.44
29.90
28.30
25.64
22.20
18.34
14.47
10.86
7.63
4.77
2.20
-0.23
-2.53
-4.68
-6.56
-7.97
-8.75
-8.86
-8.48
-7.89
-7.45
-7.49
-8.19
-9.58
-11.46
-13.57
-15.43
-16.55
-16.63
-15.58
-13.63
-11.27
-9.02
-7.30
-6.21
-5.59
-5.17
-4.69
-4.09
-3.47
-2.95
-2.53
-1.95
-0.87
1.00
3.71
6.96
10.25
13.01
14.80
15.42
14.92
13.40
11.09
8.18
4.83
1.33
-2.12
-5.22
-7.73
-9.49
-10.39
-10.44
-9.71
-8.35
-6.62
-4.79
-3.18
-2.11
-1.80
-2.26
-3.37
-4.82
-6.39
-7.88
-9.27
-10.64
-12.07
-13.62
-15.23
-16.75
-17.93
-18.47
-18.06
-16.54
-13.91
-10.45
-6.57
-2.78
0.51
3.04
4.75
5.66
5.86
5.48
4.65
3.53
2.35
1.34
0.73
0.65
1.05
1.76
2.42
2.72
2.42
1.49
0.08
-1.60
-3.36
-5.11
-6.90
-8.86
-11.14
-13.76
-16.59
-19.44
-22.17
-24.74
-27.27
-29.97
-33.00
-36.31
-39.73
-42.95
-45.65
-47.71
-49.18
-50.28
-51.35
-52.80
-54.96
-58.02
-61.89
-66.09
-69.85
-72.12
-71.91
-68.56
-61.99
-52.70
-41.73
-30.25
-19.12
-8.69
1.24
11.14
21.44
32.09
42.54
51.87
59.18
63.93
66.22
66.72
66.34
65.76
65.24
64.47
62.95
60.21
56.19
51.15
45.45
39.30
32.71
25.68
18.45
11.65
6.18
2.67
1.25
1.38
2.10
2.41
1.71
-0.06
-2.64
-5.61
-8.75
-12.10
-15.82
-20.04
-24.60
-28.98
-32.35
-33.95
-33.16
-29.84
-24.24
-16.97
-8.61
0.37
9.65
18.99
28.07
36.47
43.78
49.74
54.40
58.09
61.29
64.37
67.39
69.90
71.14
70.24
66.71
60.70
52.95
44.66
37.02
30.84
26.41
23.62
22.12
21.52
21.42
21.32
20.65
18.86
15.63
11.07
5.64
0.13
-4.81
-8.79
-11.85
-14.43
-17.27
-21.05
-26.22
-32.68
-39.74
-46.21
-50.72
-52.20
-50.21
-45.02
-37.48
-28.60
-19.28
-10.11
-1.41
6.54
13.35
18.66
22.18
23.99
24.56
24.54
24.49
24.79
25.43
26.32
27.38
28.71
30.44
32.56
34.71
36.23
36.28
34.36
30.41
25.06
19.20
13.74
9.23
5.76
3.06
0.83
-1.07
-2.54
-3.39
-3.57
-3.30
-2.99
-3.10
-3.83
-5.08
-6.51
-7.85
-9.07
-10.45
-12.35
-14.81
-17.40
-19.14
-19.04
-16.56
-12.01
-6.55
-1.65
1.46
2.35
1.45
-0.22
-1.54
-1.76
-0.57
1.89
5.27
9.28
13.61
17.96
21.98
25.30
27.50
28.45
28.21
27.19
25.76
24.18
22.33
19.83
16.24
11.46
5.84
0.09
-5.02
-8.89
-11.39
-12.80
-13.55
-14.08
-14.69
-15.54
-16.74
-18.39
-20.50
-22.97
-25.53
-27.82
-29.49
-30.35
-30.40
-29.88
-29.14
-28.55
-28.37
-28.51
-28.61
-27.93
-25.74
-21.55
-15.40
-7.82
0.20
7.71
14.08
19.23
23.47
27.26
31.00
34.80
38.54
42.10
45.33
48.19
50.67
52.78
54.56
56.05
57.36
58.60
59.80
60.82
61.32
60.78
58.58
54.16
47.21
37.85
26.66
14.58
2.54
-8.70
-18.79
-27.71
-35.61
-42.50
-48.23
-52.44
-54.65
-54.59
-52.22
-47.69
-41.41
-33.86
-25.61
-17.06
-8.38
0.50
9.91
20.18
31.48
43.72
56.52
69.48
82.16
94.22
105.39
115.41
123.99
130.79
135.35
137.13
135.54
130.05
120.37
106.59
89.21
69.07
47.04
23.89
0.15
-23.84
-47.82
-71.54
-94.68
-116.79
-137.48
-156.50
-173.80
-189.79
-205.19
-220.74
-236.69
-252.14
-264.96
-271.98
-269.88
-256.15
-229.73
-191.30
-143.28
-89.62
-35.41
13.71
52.59
77.91
89.24
89.27
82.74
74.68
68.55
65.31
63.79
61.86
57.74
50.63
40.62
28.19
13.75
-2.55
-20.47
-39.37
-58.03
-74.72
-87.84
-96.26
-99.73
-98.65
-93.82
-86.04
-75.96
-64.21
-51.54
-38.99
-27.63
-18.10
-10.27
-3.16
4.65
14.38
26.55
40.79
56.05
71.07
84.82
96.70
106.60
114.75
121.61
127.76
133.88
140.66
148.81
158.78
170.56
183.66
197.04
209.32
219.08
225.28
227.63
226.60
223.35
219.24
215.40
212.31
209.74
207.01
203.38
198.51
192.44
185.33
177.12
167.32
155.01
139.25
119.60
96.31
70.31
42.89
15.12
-12.43
-39.98
-68.65
-100.25
-136.98
-180.56
-231.37
-287.53
-344.75
-396.89
-437.48
-461.34
-466.19
-453.03
-425.79
-389.83
-350.35
-311.12
-274.04
-239.51
-207.27
-176.96
-148.54
-122.10
-97.67
-74.92
-53.31
-32.41
-12.02
7.59
26.05
43.12
58.82
73.42
87.12
99.66
110.17
117.26
119.52
116.29
108.11
96.61
83.81
71.13
58.74
45.63
30.60
13.39
-4.51
-20.37
-31.33
-36.03
-35.42
-32.42
-30.42
-31.68
-36.40
-43.11
-50.00
-56.18
-62.14
-68.95
-77.03
-85.18
-90.72
-90.84
-84.18
-71.85
-56.92
-42.94
-32.25
-25.11
-20.17
-15.73
-11.07
-7.01
-5.34
-7.70
-14.52
-24.58
-35.37
-44.04
-48.30
-47.24
-41.37
-32.25
-21.85
-11.89
-3.49
2.86
7.24
9.82
10.81
10.37
8.69
6.19
3.50
1.36
0.45
1.08
3.13
6.10
9.28
12.12
14.26
15.62
16.31
16.51
16.37
15.99
15.46
14.86
14.30
13.90
13.78
14.06
14.76
15.92
17.42
18.99
20.35
21.12
21.09
20.20
18.64
16.60
14.23
11.52
8.34
4.57
0.15
-4.77
-10.04
-15.50
-21.11
-26.94
-33.06
-39.50
-46.26
-53.26
-60.34
-67.27
-73.62
-78.63
-81.42
-81.03
-76.74
-68.10
-55.25
-39.02
-20.90
-2.84
13.29
26.33
36.17
43.69
50.51
58.16
67.69
79.33
92.71
106.87
120.72
133.23
143.54
151.45
157.60
163.51
171.14
182.00
196.26
212.19
226.59
235.69
236.58
228.15
211.40
188.69
162.55
134.70
105.62
75.00
42.54
8.58
-25.73
-58.71
-88.68
-114.33
-134.72
-149.26
-157.65
-160.16
-157.61
-151.31
-142.45
-131.53
-118.09
-101.07
-79.96
-55.71
-31.10
-10.25
2.82
5.58
-2.05
-17.82
-38.06
-58.94
-77.30
-91.18
-99.74
-102.97
-101.69
-97.43
-92.25
-88.12
-86.21
-86.25
-86.69
-85.49
-81.18
-73.28
-62.28
-48.85
-33.17
-14.57
8.04
35.39
67.27
102.29
138.38
173.32
205.54
234.47
260.52
284.63
307.57
328.98
347.14
359.10
361.82
353.34
333.82
305.40
271.37
234.98
198.50
163.06
129.27
97.61
68.72
43.17
20.78
0.31
-20.58
-44.49
-73.20
-106.64
-142.56
-177.04
-206.04
-227.00
-239.83
-246.70
-250.67
-253.71
-255.34
-252.74
-241.98
-220.32
-187.83
-147.80
-105.38
-65.81
-32.69
-7.62
9.33
18.74
21.48
18.58
11.84
3.62
-3.64
-8.36
-10.44
-11.10
-12.10
-14.96
-20.34
-28.28
-38.66
-51.46
-66.60
-83.56
-101.10
-117.44
-130.78
-139.71
-143.42
-141.73
-134.89
-123.49
-108.37
-90.75
-72.04
-53.63
-36.76
-22.28
-10.57
-1.68
4.71
9.01
11.73
13.16
13.50
12.68
10.54
6.94
2.02
-3.93
-10.30
-16.48
-22.04
-26.72
-30.61
-33.97
-37.14
-40.39
-43.72
-46.90
-49.38
-50.50
-49.65
-46.55
-41.42
-35.03
-28.54
-23.08
-19.50
-18.04
-18.31
-19.50
-20.66
-20.92
-19.64
-16.61
-11.92
-5.91
1.00
8.48
16.37
24.68
33.39
42.36
51.13
59.04
65.44
69.94
72.45
73.13
72.22
69.90
66.22
61.32
55.49
49.24
43.16
37.71
33.15
29.41
26.20
23.14
20.00
16.73
13.52
10.65
8.39
6.80
5.77
5.07
4.46
3.73
2.83
1.72
0.43
-1.02
-2.59
-4.26
-6.06
-8.09
-10.46
-13.30
-16.63
-20.27
-23.76
-26.43
-27.64
-26.99
-24.40
-20.20
-15.01
-9.49
-4.13
0.71
4.88
8.28
10.81
12.45
13.22
13.35
13.18
13.05
13.23
13.76
14.58
15.51
16.43
17.30
18.17
19.07
20.07
21.11
22.09
22.85
23.28
23.24
22.63
21.35
19.43
16.91
13.94
10.69
7.47
4.42
1.60
-1.00
-3.50
-6.01
-8.55
-10.93
-12.90
-14.31
-15.11
-15.56
-15.97
-16.66
-17.66
-18.63
-19.02
-18.25
-15.92
-12.05
-6.99
-1.34
4.34
9.62
14.23
18.10
21.27
23.76
25.68
27.08
28.08
28.70
29.02
29.15
29.07
28.71
27.96
26.77
25.20
23.45
21.92
20.94
20.64
20.89
21.45
22.03
22.53
23.02
23.63
24.46
25.33
25.89
25.72
24.55
22.34
19.26
15.65
11.79
7.91
4.06
0.31
-3.27
-6.46
-9.09
-11.05
-12.38
-13.30
-14.06
-14.91
-16.04
-17.52
-19.37
-21.65
-24.35
-27.34
-30.34
-32.89
-34.45
-34.45
-32.56
-28.72
-23.24
-16.63
-9.49
-2.39
4.32
10.41
15.72
20.14
23.55
25.86
27.08
27.39
27.05
26.40
25.70
25.09
24.54
23.90
22.97
21.68
20.06
18.28
16.63
15.33
14.43
13.83
13.29
12.69
11.88
10.94
9.93
8.92
7.87
6.71
5.40
3.92
2.30
0.62
-1.10
-2.86
-4.68
-6.60
-8.63
-10.83
-13.26
-15.95
-18.91
-22.04
-25.11
-27.83
-29.94
-31.19
-31.31
-30.03
-27.16
-22.60
-16.50
-9.30
-1.66
5.72
12.29
17.66
21.73
24.47
25.87
25.94
24.74
22.51
19.74
17.05
15.05
14.08
14.07
14.67
15.28
15.42
14.81
13.46
11.58
9.42
7.15
4.84
2.54
0.22
-2.05
-4.15
-5.93
-7.31
-8.27
-8.96
-9.48
-9.99
-10.44
-10.75
-10.85
-10.67
-10.37
-10.16
-10.29
-11.00
-12.36
-14.46
-17.25
-20.58
-24.24
-27.78
-30.70
-32.41
-32.53
-30.92
-27.75
-23.45
-18.53
-13.44
-8.49
-3.75
0.84
5.35
9.81
14.11
18.07
21.38
23.92
25.60
26.53
27.02
27.36
27.76
28.30
28.84
29.21
29.20
28.78
27.92
26.68
25.12
23.13
20.68
17.73
14.42
10.98
7.75
5.04
3.00
1.65
0.84
0.25
-0.41
-1.28
-2.32
-3.42
-4.40
-5.18
-5.83
-6.55
-7.58
-9.13
-11.35
-14.25
-17.74
-21.44
-24.91
-27.56
-28.86
-28.47
-26.37
-22.95
-18.77
-14.43
-10.34
-6.62
-3.09
0.53
4.49
8.79
13.15
17.09
20.09
21.78
22.02
20.89
18.81
16.29
13.88
12.01
11.00
10.99
11.93
13.63
15.76
17.91
19.62
20.55
20.53
19.60
17.96
15.96
13.99
12.34
11.23
10.73
10.76
11.11
11.50
11.62
11.23
10.21
8.61
6.63
4.45
2.27
0.17
-1.91
-4.06
-6.32
-8.64
-10.92
-13.10
-15.17
-17.19
-19.10
-20.62
-21.40
-21.04
-19.45
-16.84
-13.74
-10.72
-8.15
-6.03
-4.13
-2.14
0.08
2.42
4.61
6.38
7.57
8.25
8.65
9.05
9.74
10.87
12.41
14.26
16.23
18.13
19.79
21.01
21.62
21.41
20.24
18.08
15.09
11.63
8.14
4.91
2.13
-0.26
-2.43
-4.45
-6.30
-7.79
-8.76
-9.04
-8.66
-7.66
-6.18
-4.28
-2.03
0.48
3.12
5.66
7.81
9.29
9.89
9.50
8.20
6.13
3.42
0.24
-3.24
-6.70
-9.72
-11.81
-12.56
-11.85
-9.80
-6.85
-3.52
-0.31
2.43
4.47
5.65
5.93
5.30
3.90
2.01
0.01
-1.69
-2.80
-3.10
-2.66
-1.68
-0.49
0.62
1.43
1.85
1.93
1.78
1.57
1.39
1.32
1.30
1.23
0.86
0.06
-1.23
-2.85
-4.58
-6.18
-7.63
-9.09
-10.75
-12.73
-14.93
-17.05
-18.84
-20.28
-21.63
-23.17
-25.12
-27.28
-29.08
-29.86
-29.03
-26.39
-22.12
-16.71
-10.80
-4.94
0.46
5.14
8.97
11.88
13.84
14.96
15.41
15.52
15.54
15.75
16.17
16.63
16.92
16.79
16.17
15.17
14.04
13.14
12.69
12.82
13.45
14.33
15.17
15.65
15.65
15.09
14.00
12.46
10.53
8.24
5.62
2.67
-0.54
-3.92
-7.33
-10.52
-13.27
-15.30
-16.43
-16.65
-16.10
-15.13
-14.08
-13.28
-12.88
-12.80
-12.77
-12.47
-11.59
-9.95
-7.69
-5.09
-2.49
-0.25
1.43
2.44
2.80
2.65
2.18
1.66
1.41
1.59
2.34
3.65
5.30
7.06
8.60
9.83
10.74
11.48
12.22
12.93
13.50
13.72
13.42
12.65
11.59
10.52
9.65
8.99
8.43
7.86
7.26
6.71
6.30
6.09
5.90
5.49
4.63
3.20
1.35
-0.69
-2.66
-4.35
-5.79
-7.16
-8.73
-10.67
-13.05
-15.70
-18.38
-20.73
-22.38
-23.00
-22.45
-20.75
-18.10
-14.85
-11.38
-8.02
-4.94
-2.20
0.17
2.21
3.87
5.08
5.83
6.22
6.51
6.92
7.74
9.07
10.86
12.93
15.03
16.90
18.47
19.68
20.59
21.29
21.69
21.71
21.16
19.92
17.95
15.28
12.07
8.57
5.03
1.75
-1.08
-3.43
-5.40
-7.19
-9.15
-11.50
-14.41
-17.88
-21.68
-25.41
-28.45
-30.22
-30.27
-28.47
-25.07
-20.65
-15.90
-11.38
-7.40
-3.99
-1.06
1.52
3.85
6.02
8.09
10.09
12.03
13.74
14.93
15.22
14.42
12.48
9.64
6.27
2.77
-0.59
-3.77
-6.74
-9.56
-12.26
-14.83
-17.29
-19.63
-21.78
-23.67
-25.08
-25.78
-25.60
-24.53
-22.81
-20.86
-19.18
-18.20
-18.02
-18.38
-18.76
-18.54
-17.18
-14.47
-10.58
-5.91
-1.02
3.67
7.87
11.51
14.55
16.95
18.72
19.76
20.15
20.02
19.62
19.20
18.91
18.73
18.46
17.76
16.44
14.44
11.89
9.12
6.44
3.96
1.67
-0.67
-3.38
-6.71
-10.66
-14.98
-19.23
-22.82
-25.35
-26.67
-27.00
-26.71
-26.40
-26.48
-27.17
-28.49
-30.16
-31.79
-32.83
-32.70
-30.99
-27.52
-22.42
-16.11
-9.07
-1.87
5.10
11.64
17.58
22.90
27.54
31.45
34.53
36.62
37.61
37.43
36.15
33.97
31.19
28.18
25.18
22.45
20.13
18.27
16.86
15.73
14.60
13.14
11.03
8.13
4.43
0.12
-4.48
-9.10
-13.49
-17.58
-21.43
-25.25
-29.22
-33.43
-37.82
-42.04
-45.59
-47.83
-48.20
-46.39
-42.31
-36.29
-28.83
-20.57
-12.17
-4.10
3.24
9.64
15.00
19.26
22.39
24.54
25.81
26.41
26.54
26.33
25.90
25.35
24.76
24.20
23.68
23.20
22.68
22.03
21.16
20.13
18.93
17.59
16.00
13.92
11.05
7.07
1.97
-4.05
-10.54
-16.93
-22.64
-27.36
-31.04
-33.91
-36.32
-38.61
-41.08
-43.76
-46.51
-48.91
-50.34
-50.02
-47.33
-42.07
-34.51
-25.50
-16.11
-7.26
0.69
8.02
15.33
23.23
31.81
40.59
48.74
55.48
60.57
64.40
67.82
71.69
76.56
82.38
88.61
94.53
99.62
103.81
107.55
111.71
117.15
124.62
134.59
147.20
162.13
178.35
193.96
206.33
212.64
210.77
199.94
180.89
155.38
125.39
92.57
58.21
23.72
-8.93
-37.35
-59.39
-74.08
-82.03
-85.32
-86.48
-87.57
-89.53
-92.35
-95.50
-98.52
-101.35
-104.24
-107.54
-111.34
-115.56
-119.94
-124.10
-127.64
-130.06
-130.84
-129.59
-126.29
-121.48
-116.14
-111.39
-108.27
-107.17
-107.94
-110.05
-113.10
-117.04
-122.08
-128.40
-135.56
-142.29
-146.61
-146.67
-141.35
-131.00
-117.34
-102.78
-89.32
-77.47
-65.84
-51.69
-32.10
-5.55
27.35
63.90
100.51
134.19
163.74
189.92
214.73
240.09
266.67
293.51
318.19
337.83
350.23
354.43
351.05
341.67
328.27
312.42
295.22
277.29
259.19
241.58
225.40
211.36
199.72
189.89
180.49
169.75
155.98
138.15
116.19
91.02
64.28
37.84
13.19
-9.08
-29.45
-49.39
-70.94
-96.24
-126.67
-161.94
-199.44
-234.39
-261.01
-274.48
-273.20
-259.97
-241.57
-226.71
-223.30
-236.06
-265.42
-307.76
-356.68
-404.71
-444.84
-471.95
-483.75
-481.12
-467.56
-448.08
-427.57
-409.58
-395.79
-386.21
-379.84
-375.25
-370.90
-365.34
-357.34
-346.09
-331.56
-314.59
-296.54
-278.76
-262.12
-246.74
-231.98
-216.97
-200.96
-183.73
-165.60
-147.26
-129.42
-112.61
-96.94
-82.20
-68.07
-54.21
-40.47
-26.80
-13.16
0.48
14.15
27.82
41.39
54.59
67.12
78.81
89.81
100.51
111.53
123.35
136.19
149.77
163.55
176.95
189.64
201.77
213.88
226.77
241.37
258.63
279.37
303.84
331.10
358.55
382.14
397.45
401.28
393.02
374.99
351.46
326.94
304.41
284.77
267.33
250.93
235.01
219.78
205.74
192.96
180.89
168.60
155.52
141.78
128.25
116.08
106.05
98.19
91.88
86.12
80.07
73.44
66.53
60.07
54.96
51.86
51.03
52.19
54.60
57.22
59.03
59.33
57.90
54.98
51.04
46.55
41.77
36.83
31.92
27.40
23.68
20.84
18.35
15.09
9.78
1.67
-9.01
-21.05
-32.82
-43.12
-51.51
-58.26
-63.86
-68.58
-72.35
-75.16
-77.37
-79.79
-83.26
-88.15
-93.94
-99.50
-103.73
-106.23
-107.56
-108.80
-110.71
-113.07
-114.55
-113.22
-107.42
-96.46
-80.85
-62.09
-42.18
-23.09
-6.40
6.93
16.76
23.88
29.83
36.54
45.60
57.52
71.56
86.01
99.19
110.35
120.01
129.57
140.29
152.40
164.73
175.22
181.80
183.24
179.43
170.98
158.66
142.90
123.76
101.30
76.06
49.13
22.08
-3.50
-26.25
-45.33
-60.32
-71.16
-78.01
-81.23
-81.36
-79.07
-75.04
-69.83
-63.82
-57.17
-50.03
-42.72
-35.78
-29.89
-25.61
-23.15
-22.19
-22.04
-21.91
-21.21
-19.77
-17.84
-15.90
-14.40
-13.62
-13.63
-14.35
-15.63
-17.34
-19.45
-21.84
-24.30
-26.46
-27.77
-27.76
-26.11
-22.99
-18.92
-14.71
-11.15
-8.70
-7.37
-6.73
-6.13
-4.95
-2.86
0.08
3.48
6.75
9.34
10.87
11.22
10.40
8.49
5.55
1.67
-2.94
-7.83
-12.40
-16.03
-18.33
-19.33
-19.42
-19.22
-19.30
-19.91
-20.96
-22.10
-22.95
-23.30
-23.17
-22.77
-22.41
-22.32
-22.60
-23.21
-24.03
-24.88
-25.55
-25.87
-25.61
-24.55
-22.42
-18.97
-14.04
-7.70
-0.31
7.54
15.19
22.10
28.01
32.92
36.90
39.95
41.89
42.46
41.42
38.78
34.74
29.79
24.57
19.80
16.17
14.19
13.95
15.01
16.31
16.49
14.33
9.22
1.46
-7.80
-16.96
-24.53
-29.60
-32.03
-32.34
-31.35
-29.88
-28.45
-27.24
-26.23
-25.23
-24.07
-22.55
-20.55
-17.98
-14.90
-11.54
-8.28
-5.55
-3.72
-2.96
-3.12
-3.85
-4.64
-5.06
-4.94
-4.35
-3.64
-3.18
-3.21
-3.78
-4.70
-5.68
-6.53
-7.24
-7.88
-8.64
-9.61
-10.77
-12.06
-13.42
-14.84
-16.33
-17.77
-18.87
-19.20
-18.35
-16.09
-12.59
-8.31
-3.93
-0.05
2.96
5.07
6.46
7.43
8.23
8.93
9.55
9.99
10.22
10.26
10.21
10.23
10.40
10.75
11.17
11.46
11.38
10.77
9.64
8.16
6.69
5.51
4.82
4.57
4.55
4.48
4.13
3.44
2.49
1.45
0.42
-0.58
-1.65
-2.89
-4.34
-5.83
-7.15
-8.09
-8.58
-8.76
-8.92
-9.33
-10.15
-11.35
-12.76
-14.15
-15.33
-16.11
-16.29
-15.66
-14.03
-11.41
-7.99
-4.16
-0.40
2.90
5.57
7.64
9.32
10.80
12.15
13.33
14.18
14.55
14.39
13.77
12.82
11.68
10.47
9.23
7.95
6.64
5.31
4.05
2.95
2.11
1.54
1.23
1.06
0.88
0.63
0.36
0.21
0.29
0.64
1.06
1.27
0.95
-0.05
-1.69
-3.72
-5.83
-7.79
-9.45
-10.81
-11.90
-12.74
-13.38
-13.83
-14.18
-14.55
-15.03
-15.62
-16.12
-16.21
-15.51
-13.73
-10.83
-7.08
-2.92
1.10
4.56
7.15
8.76
9.44
9.33
8.68
7.77
6.89
6.24
5.93
5.96
6.25
6.74
7.33
7.92
8.40
8.68
8.73
8.58
8.30
7.93
7.47
6.85
5.97
4.72
3.11
1.56
0.59
0.61
1.75
3.88
6.59
9.33
11.62
13.15
14.22
15.48
17.52
20.54
24.37
28.31
31.41
32.71
31.40
27.83
22.92
17.76
13.43
11.73
14.34
22.12
34.41
48.02
60.19
68.03
68.63
59.93
42.05
16.09
-16.95
-56.84
-105.32
-160.15
-216.91
-270.60
-315.73
-346.09
-357.37
-349.15
-325.41
-295.58
-264.07
-231.84
-198.01
-159.22
-109.57
-44.04
38.97
136.44
238.70
342.04
445.78
550.00
634.14
676.93
670.35
626.85
594.42
577.34
568.12
559.49
533.35
485.74
423.15
356.81
296.49
245.91
198.66
151.04
101.00
47.85
-5.68
-54.45
-93.94
-122.66
-143.11
-163.14
-186.05
-212.61
-242.60
-273.89
-303.18
-327.02
-342.92
-350.24
-351.86
-348.73
-341.65
-332.38
-322.87
-315.53
-313.10
-318.00
-331.78
-355.21
-385.52
-417.93
-447.32
-468.96
-479.55
-477.30
-461.57
-432.70
-392.38
-342.84
-287.07
-228.43
-169.43
-110.91
-51.78
10.12
76.53
147.14
218.97
286.94
345.23
388.97
415.25
423.16
413.45
388.01
349.80
302.99
252.91
205.37
165.68
137.55
122.36
119.17
125.18
136.33
147.98
155.40
154.47
142.53
119.11
86.30
48.18
9.70
-24.81
-52.50
-72.08
-83.21
-85.84
-80.02
-66.15
-45.24
-19.21
9.54
38.38
64.81
86.41
100.67
105.34
98.96
81.62
55.18
22.79
-12.05
-46.42
-78.29
-106.33
-129.36
-146.05
-154.87
-154.33
-143.19
-120.84
-87.86
-46.71
-2.15
39.34
71.04
88.25
89.95
79.16
61.43
42.46
25.88
12.40
0.57
-11.50
-24.53
-37.43
-47.97
-54.12
-55.14
-51.93
-46.29
-39.80
-33.03
-25.46
-16.36
-5.98
3.92
10.43
10.94
4.65
-6.65
-19.07
-28.12
-30.57
-25.59
-14.84
-1.77
9.84
17.07
18.63
14.98
7.73
-1.02
-9.63
-17.30
-24.10
-30.50
-36.80
-42.82
-47.95
-51.70
-54.15
-56.20
-59.41
-65.41
-75.36
-89.58
-107.50
-127.88
-149.04
-168.89
-184.99
-194.71
-195.59
-185.99
-165.57
-135.65
-98.97
-59.21
-20.24
14.45
42.20
61.49
71.94
74.36
70.51
62.77
53.66
45.30
39.01
35.17
33.34
32.50
31.44
29.14
25.01
19.10
12.08
5.12
-0.36
-2.93
-1.47
4.53
14.73
27.92
42.25
55.73
66.77
74.62
79.36
81.62
82.17
81.56
79.91
77.03
72.53
66.03
57.12
45.51
31.15
14.54
-3.09
-19.96
-34.14
-44.24
-49.97
-52.20
-52.51
-52.44
-52.86
-53.89
-55.25
-56.89
-59.25
-63.12
-69.18
-77.51
-87.52
-98.27
-108.86
-118.70
-127.50
-135.11
-141.38
-146.08
-148.94
-149.66
-148.01
-143.79
-136.92
-127.53
-115.83
-102.02
-86.12
-68.03
-47.84
-26.10
-4.02
16.80
34.93
49.56
60.84
69.56
76.69
82.80
87.89
91.55
93.25
92.83
90.67
87.70
85.10
83.87
84.51
86.83
90.05
93.17
95.42
96.48
96.45
95.70
94.54
93.02
91.03
88.36
84.95
80.96
76.65
72.31
68.01
63.64
59.01
54.06
49.01
44.29
40.37
37.48
35.45
33.70
31.59
28.54
24.44
19.52
14.35
9.51
5.44
2.30
-0.02
-1.85
-3.51
-5.30
-7.34
-9.55
-11.77
-13.84
-15.69
-17.43
-19.20
-21.25
-23.76
-26.80
-30.25
-33.60
-36.04
-36.50
-34.12
-28.52
-20.08
-9.90
0.64
10.25
18.26
24.62
29.69
33.91
37.48
40.29
42.14
42.93
42.82
42.18
41.44
40.86
40.50
40.17
39.69
39.04
38.35
37.91
37.97
38.52
39.32
39.91
39.75
38.40
35.70
31.84
27.24
22.44
17.85
13.53
9.27
4.70
-0.47
-6.23
-12.32
-18.33
-23.93
-29.05
-33.86
-38.63
-43.53
-48.56
-53.50
-57.98
-61.56
-63.74
-64.01
-61.95
-57.33
-50.31
-41.50
-31.84
-22.40
-14.01
-7.08
-1.54
2.95
6.76
10.03
12.65
14.49
15.46
15.75
15.74
15.81
16.20
16.88
17.65
18.24
18.52
18.49
18.28
17.93
17.40
16.48
15.01
12.98
10.53
7.97
5.52
3.37
1.49
-0.21
-1.81
-3.35
-4.75
-5.99
-7.08
-8.06
-9.01
-9.97
-10.97
-12.03
-13.31
-14.99
-17.20
-19.83
-22.43
-24.22
-24.35
-22.29
-18.06
-12.31
-5.98
0.06
5.32
9.81
13.71
17.22
20.29
22.77
24.54
25.74
26.71
27.89
29.54
31.59
33.76
35.67
37.15
38.26
39.26
40.46
42.02
43.91
45.94
47.90
49.66
51.22
52.67
54.03
55.30
56.38
57.29
58.17
59.28
60.83
62.75
64.67
66.08
66.71
66.79
66.98
67.83
69.06
68.97
64.39
51.46
26.59
-12.50
-66.35
-133.56
-210.84
-293.14
-373.91
-445.77
-501.63
-536.24
-547.40
-536.32
-506.99
-464.66
-414.25
-359.25
-301.56
-242.16
-182.03
-122.72
-66.63
-16.59
24.70
55.30
74.45
82.81
82.32
75.69
65.87
55.32
45.45
36.44
27.42
17.16
4.65
-10.25
-26.82
-43.76
-59.86
-74.47
-87.71
-100.32
-113.23
-127.03
-141.63
-156.18
-168.99
-177.92
-180.55
-174.77
-159.10
-133.23
-98.04
-55.40
-7.71
42.82
94.87
148.23
203.23
259.32
313.70
360.81
393.49
405.59
394.69
363.63
319.73
272.17
228.77
193.73
167.54
148.46
134.73
125.95
123.21
128.17
141.78
163.46
190.91
220.56
248.22
269.97
282.96
285.86
278.95
263.97
243.81
221.95
201.99
187.05
179.12
178.52
183.55
190.83
196.07
195.41
186.62
169.96
147.95
124.41
102.94
85.52
71.83
59.59
45.77
28.11
6.06
-19.00
-44.53
-67.87
-87.15
-101.54
-111.12
-116.41
-118.09
-116.84
-113.36
-108.42
-102.71
-96.84
-91.21
-86.00
-81.25
-76.91
-72.85
-68.94
-65.12
-61.47
-58.21
-55.58
-53.69
-52.39
-51.30
-50.02
-48.32
-46.33
-44.36
-42.74
-41.60
-40.82
-40.11
-39.20
-38.03
-36.66
-35.29
-34.10
-33.22
-32.69
-32.45
-32.43
-32.53
-32.66
-32.77
-32.88
-33.04
-33.31
-33.67
-33.98
-34.03
-33.61
-32.68
-31.36
-29.88
-28.45
-27.10
-25.66
-23.85
-21.49
-18.59
-15.30
-11.77
-8.05
-3.92
0.85
6.41
12.65
19.17
25.46
31.08
35.82
39.70
42.81
45.30
47.34
49.24
51.45
54.59
59.15
65.26
72.38
79.27
84.16
85.22
81.20
71.85
58.09
41.64
24.41
7.87
-7.44
-21.92
-36.50
-52.08
-68.97
-86.59
-103.69
-118.73
-130.55
-138.76
-144.01
-147.64
-151.15
-155.58
-161.03
-166.93
-172.42
-177.05
-181.09
-185.11
-189.44
-193.52
-195.90
-194.89
-189.47
-179.79
-166.88
-151.66
-133.87
-111.95
-83.81
-48.15
-5.60
41.31
89.10
134.77
176.48
213.47
245.11
270.12
286.54
292.54
287.56
272.90
251.49
226.85
201.94
178.40
156.58
136.10
116.51
97.83
80.51
65.18
52.23
41.52
32.39
23.91
15.16
5.61
-4.77
-15.54
-26.09
-35.75
-44.03
-50.58
-55.29
-58.09
-59.02
-58.32
-56.38
-53.82
-51.35
-49.62
-48.95
-49.27
-50.12
-50.85
-50.92
-50.07
-48.45
-46.38
-44.25
-42.27
-40.45
-38.69
-36.85
-34.92
-32.91
-30.89
-28.86
-26.85
-24.89
-23.08
-21.52
-20.30
-19.42
-18.71
-17.93
-16.86
-15.36
-13.50
-11.46
-9.55
-8.03
-7.01
-6.42
-6.05
-5.59
-4.83
-3.69
-2.26
-0.81
0.36
1.01
1.06
0.60
-0.14
-0.95
-1.67
-2.30
-2.91
-3.58
-4.36
-5.20
-6.02
-6.78
-7.53
-8.35
-9.24
-10.07
-10.55
-10.32
-9.19
-7.24
-4.83
-2.47
-0.57
0.72
1.58
2.34
3.34
4.67
6.19
7.57
8.55
9.08
9.35
9.63
10.11
10.71
11.13
10.97
9.97
8.16
5.80
3.27
0.88
-1.19
-2.92
-4.33
-5.41
-6.11
-6.35
-6.12
-5.53
-4.75
-4.03
-3.51
-3.30
-3.33
-3.47
-3.57
-3.52
-3.39
-3.27
-3.26
-3.37
-3.41
-3.13
-2.30
-0.91
0.79
2.41
3.58
4.09
3.97
3.49
2.97
2.66
2.63
2.77
2.75
2.30
1.21
-0.46
-2.46
-4.42
-6.05
-7.26
-8.12
-8.83
-9.44
-9.89
-9.94
-9.41
-8.29
-6.78
-5.26
-3.98
-3.06
-2.42
-1.86
-1.27
-0.64
-0.12
0.14
0.09
-0.16
-0.45
-0.64
-0.72
-0.82
-1.06
-1.48
-1.89
-2.09
-1.90
-1.30
-0.50
0.32
0.97
1.50
2.03
2.72
3.57
4.47
5.22
5.62
5.64
5.35
4.91
4.46
4.07
3.76
3.51
3.36
3.29
3.28
3.31
3.39
3.60
4.12
5.03
6.30
7.70
8.88
9.63
9.86
9.77
9.65
9.72
10.06
10.46
10.61
10.21
9.01
6.92
3.93
0.21
-3.98
-8.25
-12.16
-15.33
-17.54
-18.71
-18.96
-18.51
-17.53
-16.23
-14.73
-13.12
-11.48
-9.83
-8.22
-6.69
-5.35
-4.27
-3.51
-3.02
-2.65
-2.31
-1.88
-1.41
-0.94
-0.59
-0.41
-0.48
-0.85
-1.54
-2.53
-3.69
-4.81
-5.65
-6.06
-5.94
-5.35
-4.34
-3.04
-1.59
-0.16
1.05
1.91
2.47
2.88
3.41
4.22
5.29
6.40
7.34
7.90
8.12
8.12
8.05
7.93
7.64
7.06
6.15
5.01
3.86
2.92
2.28
1.93
1.72
1.53
1.32
1.13
1.11
1.40
2.07
3.08
4.26
5.38
6.18
6.50
6.31
5.66
4.70
3.62
2.57
1.66
0.92
0.29
-0.34
-1.14
-2.21
-3.50
-4.86
-6.03
-6.80
-7.12
-7.03
-6.67
-6.15
-5.51
-4.76
-3.93
-3.14
-2.50
-2.07
-1.81
-1.58
-1.23
-0.68
0.02
0.73
1.32
1.72
1.91
1.92
1.86
1.89
2.23
3.00
4.17
5.48
6.59
7.17
7.11
6.52
5.63
4.59
3.42
2.04
0.40
-1.40
-3.11
-4.39
-5.09
-5.22
-5.04
-4.84
-4.79
-4.91
-5.00
-4.82
-4.19
-3.08
-1.65
-0.16
1.14
2.07
2.55
2.64
2.43
2.01
1.43
0.76
0.06
-0.56
-1.02
-1.23
-1.24
-1.17
-1.15
-1.30
-1.61
-1.94
-2.08
-1.80
-1.00
0.24
1.65
2.87
3.62
3.81
3.50
2.85
2.04
1.17
0.25
-0.65
-1.41
-1.86
-1.92
-1.67
-1.36
-1.24
-1.46
-1.90
-2.23
-2.09
-1.31
0.01
1.58
3.00
4.01
4.52
4.67
4.68
4.73
4.92
5.19
5.41
5.45
5.35
5.18
5.14
5.34
5.83
6.56
7.39
8.26
9.15
10.09
11.10
12.16
13.18
14.03
14.65
14.94
14.86
14.32
13.30
11.84
10.09
8.30
6.69
5.37
4.24
3.16
2.00
0.79
-0.24
-0.80
-0.69
-0.00
0.92
1.60
1.64
0.87
-0.55
-2.31
-4.03
-5.47
-6.56
-7.32
-7.86
-8.28
-8.68
-9.13
-9.61
-10.02
-10.14
-9.69
-8.55
-6.86
-5.10
-3.87
-3.66
-4.48
-5.80
-6.60
-5.91
-3.20
1.28
6.31
10.44
12.72
13.34
13.59
15.35
20.07
27.94
37.57
46.32
51.67
52.49
49.64
45.61
43.50
45.63
52.67
63.58
75.42
84.59
87.61
82.14
67.91
47.55
27.06
14.83
19.44
45.18
90.62
147.91
204.43
246.45
263.56
252.08
215.84
163.92
104.65
44.92
-10.86
-60.58
-103.88
-141.02
-171.92
-195.90
-212.45
-225.37
-238.13
-252.19
-266.81
-280.61
-292.91
-304.10
-315.24
-327.49
-346.09
-373.44
-407.14
-440.92
-468.13
-484.56
-489.47
-484.65
-448.21
-374.18
-274.00
-170.35
-81.90
-15.65
30.29
61.19
81.10
97.15
109.53
117.94
124.22
132.70
148.40
175.31
212.55
256.12
299.01
328.90
336.02
316.90
274.79
216.80
150.53
82.36
17.98
-36.89
-78.66
-103.27
-107.47
-91.26
-59.81
-22.83
8.66
26.71
29.07
18.09
0.51
-15.95
-26.18
-30.13
-32.42
-39.32
-54.45
-76.42
-99.43
-115.51
-118.20
-105.01
-77.55
-39.53
5.60
55.52
107.79
157.71
197.78
219.32
216.38
189.22
145.47
97.78
59.29
38.99
39.36
57.23
86.75
122.89
163.41
208.83
260.88
320.54
386.91
456.90
525.80
588.03
638.21
671.84
686.07
680.13
655.44
615.22
563.70
505.20
443.41
380.92
319.18
258.60
198.68
138.39
76.55
12.54
-53.14
-118.61
-181.03
-237.44
-285.75
-325.43
-357.60
-384.52
-408.79
-432.54
-456.67
-480.44
-501.21
-514.78
-516.50
-503.08
-474.20
-433.34
-386.81
-341.64
-303.13
-273.31
-251.13
-233.95
-219.37
-206.29
-194.75
-185.02
-176.73
-168.76
-159.87
-149.47
-138.11
-127.14
-118.03
-111.66
-107.77
-104.70
-99.65
-89.43
-71.53
-45.04
-11.07
27.62
67.71
106.31
141.49
172.09
197.02
214.83
223.94
223.38
213.68
197.17
177.22
157.16
139.10
123.50
109.50
95.75
81.16
65.31
48.49
31.38
14.80
-0.53
-14.02
-25.28
-34.08
-40.51
-44.92
-47.89
-50.08
-52.06
-54.21
-56.60
-59.04
-61.07
-62.06
-61.39
-58.69
-53.98
-47.74
-40.84
-34.21
-28.53
-24.09
-20.72
-17.97
-15.38
-12.70
-9.86
-6.89
-3.81
-0.48
3.25
7.51
12.22
17.20
22.16
26.82
30.98
34.46
37.08
38.70
39.23
38.68
37.23
35.14
32.62
29.75
26.51
22.78
18.51
13.83
9.05
4.58
0.83
-1.98
-3.87
-5.07
-5.93
-6.74
-7.59
-8.49
-9.32
-10.04
-10.72
-11.44
-12.30
-13.21
-14.05
-14.71
-15.21
-15.72
-16.43
-17.54
-19.03
-20.74
-22.40
-23.70
-24.38
-24.24
-23.26
-21.53
-19.35
-17.07
-15.05
-13.52
-12.51
-11.83
-11.18
-10.23
-8.74
-6.63
-4.00
-1.14
1.58
3.79
5.20
5.80
5.83
5.70
5.86
6.56
7.80
9.36
10.92
12.16
12.92
13.20
13.14
12.95
12.75
12.66
12.70
12.88
13.20
13.61
14.03
14.30
14.24
13.74
12.77
11.46
9.99
8.49
6.98
5.38
3.57
1.60
-0.34
-1.94
-2.97
-3.41
-3.44
-3.36
-3.35
-3.40
-3.33
-2.85
-1.79
-0.19
1.69
3.51
4.90
5.69
5.88
5.68
5.39
5.28
5.54
6.11
6.81
7.36
7.51
7.11
6.14
4.73
3.05
1.36
-0.10
-1.09
-1.51
-1.44
-1.05
-0.62
-0.40
-0.53
-0.99
-1.67
-2.40
-3.00
-3.31
-3.25
-2.79
-1.98
-1.00
-0.06
0.59
0.84
0.68
0.25
-0.21
-0.50
-0.51
-0.24
0.22
0.72
1.14
1.40
1.47
1.36
1.06
0.56
-0.15
-0.97
-1.76
-2.29
-2.40
-2.05
-1.40
-0.69
-0.16
0.08
0.08
0.01
0.06
0.37
0.95
1.78
2.76
3.77
4.66
5.31
5.63
5.60
5.34
5.06
4.95
5.12
5.49
5.90
6.10
5.93
5.32
4.34
3.13
1.83
0.57
-0.59
-1.59
-2.38
-2.91
-3.11
-3.02
-2.73
-2.37
-2.07
-1.87
-1.68
-1.37
-0.76
0.22
1.55
3.06
4.46
5.47
5.86
5.57
4.67
3.45
2.25
1.36
0.90
0.75
0.69
0.44
-0.08
-0.75
-1.29
-1.41
-0.97
-0.03
1.18
2.37
3.34
4.02
4.42
4.56
4.44
3.96
3.08
1.82
0.36
-1.03
-2.07
-2.64
-2.76
-2.65
-2.56
-2.68
-3.07
-3.58
-4.02
-4.16
-3.93
-3.37
-2.66
-1.99
-1.47
-1.17
-1.01
-0.98
-1.09
-1.43
-2.08
-3.04
-4.15
-5.12
-5.62
-5.48
-4.68
-3.45
-2.09
-0.88
0.07
0.78
1.37
1.94
2.48
2.90
3.03
2.79
2.20
1.46
0.79
0.37
0.20
0.15
-0.03
-0.52
-1.32
-2.26
-3.03
-3.41
-3.34
-2.98
-2.62
-2.48
-2.63
-2.94
-3.09
-2.87
-2.19
-1.20
-0.18
0.64
1.16
1.41
1.51
1.51
1.43
1.21
0.83
0.34
-0.17
-0.55
-0.76
-0.82
-0.81
-0.81
-0.86
-0.93
-0.94
-0.81
-0.41
0.31
1.32
2.51
3.67
4.62
5.20
5.44
5.43
5.35
5.33
5.37
5.40
5.31
5.01
4.47
3.77
2.97
2.12
1.28
0.46
-0.33
-1.06
-1.69
-2.20
-2.62
-2.96
-3.31
-3.73
-4.29
-4.95
-5.64
-6.17
-6.37
-6.16
-5.59
-4.91
-4.37
-4.24
-4.55
-5.10
-5.58
-5.66
-5.21
-4.27
-2.99
-1.57
-0.12
1.26
2.49
3.41
3.85
3.70
2.98
1.91
0.77
-0.17
-0.77
-1.00
-0.98
-0.81
-0.62
-0.47
-0.40
-0.38
-0.38
-0.36
-0.34
-0.38
-0.49
-0.66
-0.81
-0.81
-0.58
-0.15
0.32
0.66
0.79
0.78
0.86
1.21
1.89
2.67
3.21
3.19
2.41
1.01
-0.69
-2.29
-3.48
-4.18
-4.42
-4.29
-3.81
-2.89
-1.45
0.53
2.86
5.18
7.06
8.24
8.70
8.63
8.38
8.20
8.16
8.11
7.79
7.06
5.89
4.51
3.25
2.32
1.83
1.63
1.53
1.33
0.98
0.61
0.46
0.70
1.33
2.14
2.81
3.06
2.83
2.27
1.67
1.27
1.14
1.11
0.88
0.18
-1.02
-2.55
-4.05
-5.17
-5.68
-5.56
-4.97
-4.11
-3.17
-2.27
-1.43
-0.67
0.04
0.66
1.24
1.83
2.47
3.22
4.06
4.90
5.61
6.02
6.05
5.67
4.99
4.17
3.36
2.65
2.01
1.31
0.44
-0.68
-1.95
-3.13
-4.01
-4.43
-4.43
-4.15
-3.82
-3.59
-3.50
-3.49
-3.42
-3.23
-2.92
-2.59
-2.33
-2.18
-2.11
-1.96
-1.60
-0.96
-0.16
0.53
0.85
0.62
-0.09
-0.95
-1.62
-1.88
-1.72
-1.38
-1.10
-1.04
-1.15
-1.26
-1.26
-1.15
-0.99
-0.88
-0.78
-0.49
0.20
1.38
2.96
4.68
6.20
7.29
7.93
8.25
8.50
8.87
9.40
10.06
10.67
11.16
11.53
11.98
12.77
14.06
15.85
17.85
19.66
20.91
21.47
21.57
21.72
22.53
24.38
27.32
31.00
34.84
38.16
40.41
41.22
40.41
38.08
34.54
30.39
26.30
22.89
20.41
18.59
16.75
14.04
9.99
4.70
-1.13
-6.52
-10.67
-13.33
-14.82
-15.71
-16.51
-17.33
-17.91
-17.87
-17.04
-15.59
-14.02
-12.78
-12.06
-11.70
-11.31
-10.59
-9.56
-8.66
-8.47
-9.49
-11.84
-15.16
-18.78
-21.95
-24.21
-25.45
-25.99
-26.34
-26.98
-28.14
-29.65
-31.15
-32.18
-32.50
-32.08
-31.05
-29.57
-27.67
-25.32
-22.48
-19.31
-16.08
-13.17
-10.80
-8.88
-7.15
-5.29
-3.21
-1.06
0.73
1.73
1.70
0.67
-1.03
-2.87
-4.29
-4.86
-4.46
-3.28
-1.82
-0.72
-0.50
-1.42
-3.39
-6.01
-8.73
-11.00
-12.34
-12.40
-11.01
-8.16
-4.10
0.75
5.77
10.33
13.91
16.17
16.97
16.40
14.59
11.70
7.86
3.12
-2.47
-8.81
-15.65
-22.62
-29.17
-34.78
-39.05
-41.84
-43.20
-43.32
-42.37
-40.45
-37.63
-34.08
-30.06
-25.99
-22.17
-18.86
-16.03
-13.53
-11.10
-8.55
-5.77
-2.80
0.19
3.02
5.49
7.53
9.23
10.80
12.47
14.36
16.40
18.29
19.75
20.55
20.74
20.54
20.32
20.41
21.03
22.25
23.96
25.92
27.81
29.31
30.23
30.48
30.15
29.34
28.18
26.68
24.87
22.72
20.25
17.50
14.40
10.86
6.78
2.14
-2.79
-7.62
-11.87
-15.22
-17.60
-19.15
-20.12
-20.75
-21.19
-21.51
-21.80
-22.10
-22.45
-22.73
-22.75
-22.22
-20.97
-19.03
-16.66
-14.24
-12.12
-10.47
-9.20
-8.05
-6.68
-4.92
-2.78
-0.40
1.96
4.11
5.95
7.47
8.72
9.72
10.52
11.19
11.88
12.69
13.69
14.81
15.87
16.61
16.80
16.28
15.04
13.25
11.20
9.18
7.48
6.21
5.30
4.57
3.78
2.82
1.71
0.59
-0.32
-1.00
-1.53
-2.11
-2.94
-4.04
-5.25
-6.28
-6.93
-7.16
-7.16
-7.17
-7.30
-7.43
-7.23
-6.36
-4.67
-2.30
0.31
2.70
4.49
5.57
6.04
6.13
6.05
5.87
5.57
5.16
4.73
4.48
4.64
5.32
6.44
7.72
8.80
9.40
9.42
9.02
8.47
8.04
7.87
7.90
7.94
7.78
7.27
6.39
5.29
4.19
3.23
2.51
2.01
1.71
1.62
1.77
2.16
2.64
2.99
2.96
2.42
1.40
0.10
-1.27
-2.56
-3.74
-4.88
-6.01
-7.10
-8.01
-8.63
-8.90
-8.83
-8.42
-7.74
-6.84
-5.76
-4.58
-3.40
-2.34
-1.42
-0.66
-0.01
0.60
1.18
1.71
2.19
2.59
2.96
3.32
3.71
4.05
4.28
4.36
4.28
4.14
4.03
4.00
4.03
4.04
3.99
3.87
3.67
3.42
3.10
2.62
1.96
1.18
0.44
-0.06
-0.16
0.15
0.73
1.37
1.85
2.06
1.91
1.43
0.66
-0.34
-1.49
-2.68
-3.85
-4.95
-5.97
-6.82
-7.39
-7.51
-7.06
-6.05
-4.63
-3.02
-1.49
-0.17
0.85
1.64
2.21
2.61
2.88
3.04
3.23
3.56
4.16
5.06
6.17
7.29
8.12
8.40
7.98
6.91
5.41
3.84
2.48
1.49
0.81
0.27
-0.34
-1.11
-2.04
-3.07
-4.12
-5.15
-6.14
-6.98
-7.52
-7.58
-7.05
-6.00
-4.66
-3.36
-2.39
-1.98
-2.13
-2.72
-3.47
-4.07
-4.27
-3.91
-3.07
-1.87
-0.59
0.60
1.58
2.33
2.89
3.29
3.56
3.75
3.93
4.19
4.59
5.11
5.60
5.88
5.76
5.17
4.24
3.24
2.49
2.27
2.63
3.42
4.33
5.06
5.46
5.57
5.51
5.40
5.17
4.63
3.57
1.93
-0.10
-2.18
-3.94
-5.24
-6.19
-7.10
-8.27
-9.89
-11.95
-14.31
-16.80
-19.28
-21.67
-23.95
-26.10
-28.10
-29.96
-31.68
-33.22
-34.49
-35.28
-35.33
-34.34
-32.19
-29.08
-25.74
-23.29
-22.88
-25.15
-29.72
-35.12
-39.03
-39.08
-33.65
-22.44
-6.49
12.20
31.27
48.65
62.72
72.54
77.59
77.93
74.10
67.02
57.94
48.08
38.47
29.79
22.32
16.16
11.33
7.90
5.94
5.46
6.25
7.92
9.92
11.67
12.65
12.48
11.05
8.48
5.18
1.69
-1.33
-3.38
-4.27
-4.18
-3.61
-3.07
-2.94
-3.21
-3.59
-3.67
-3.16
-2.12
-0.84
0.28
0.98
1.23
1.28
1.44
1.96
2.91
4.19
5.59
6.95
8.19
9.28
10.16
10.67
10.56
9.59
7.68
5.06
2.25
-0.17
-1.72
-2.28
-2.04
-1.46
-0.96
-0.72
-0.70
-0.68
-0.51
-0.16
0.15
0.18
-0.29
-1.26
-2.58
-3.97
-5.16
-5.98
-6.33
-6.20
-5.62
-4.64
-3.34
-1.85
-0.38
0.79
1.31
0.88
-0.58
-2.89
-5.58
-8.06
-9.81
-10.61
-10.49
-9.65
-8.25
-6.39
-4.06
-1.29
1.72
4.72
7.46
9.86
12.00
13.99
15.81
17.28
18.16
18.24
17.52
16.13
14.27
12.05
9.54
6.78
3.93
1.21
-1.13
-2.95
-4.31
-5.41
-6.47
-7.60
-8.73
-9.69
-10.36
-10.80
-11.17
-11.81
-12.94
-14.56
-16.44
-18.16
-19.33
-19.72
-19.35
-18.41
-17.10
-15.58
-13.88
-12.01
-10.03
-8.08
-6.33
-4.79
-3.38
-1.88
-0.21
1.52
2.86
3.25
2.29
0.07
-2.81
-5.43
-6.92
-6.86
-5.32
-2.87
-0.11
2.48
4.70
6.51
7.89
8.71
8.86
8.39
7.65
7.18
7.51
8.83
10.90
13.06
14.57
14.85
13.77
11.58
8.88
6.35
4.48
3.53
3.42
3.81
4.21
4.13
3.23
1.48
-0.90
-3.44
-5.60
-6.91
-7.13
-6.29
-4.67
-2.74
-1.01
0.11
0.37
-0.24
-1.54
-3.21
-4.87
-6.24
-7.11
-7.36
-6.97
-5.97
-4.52
-2.83
-1.18
0.16
1.09
1.66
2.07
2.51
3.11
3.86
4.68
5.47
6.26
7.16
8.36
9.95
11.87
13.91
15.70
16.89
17.25
16.76
15.57
14.02
12.38
10.86
9.53
8.37
7.43
6.86
6.91
7.78
9.55
12.06
14.98
17.95
20.67
22.92
24.46
25.07
24.48
22.53
19.32
15.25
10.85
6.65
2.94
-0.17
-2.68
-4.57
-5.79
-6.32
-6.34
-6.21
-6.43
-7.43
-9.30
-11.91
-14.89
-17.89
-20.69
-23.26
-25.59
-27.72
-29.59
-31.16
-32.35
-33.15
-33.59
-33.63
-33.19
-32.13
-30.30
-27.68
-24.42
-20.78
-17.08
-13.59
-10.44
-7.64
-5.17
-2.99
-1.16
0.31
1.41
2.27
3.10
4.10
5.35
6.74
7.99
8.85
9.24
9.29
9.29
9.48
10.01
10.74
11.40
11.82
11.92
11.87
11.90
12.18
12.72
13.35
13.76
13.67
12.92
11.52
9.66
7.60
5.58
3.76
2.16
0.76
-0.50
-1.64
-2.63
-3.43
-3.98
-4.33
-4.55
-4.78
-5.12
-5.61
-6.21
-6.75
-7.08
-7.11
-6.88
-6.54
-6.26
-6.11
-6.05
-5.97
-5.80
-5.57
-5.41
-5.44
-5.74
-6.28
-6.97
-7.75
-8.63
-9.68
-10.99
-12.60
-14.59
-16.98
-19.85
-23.30
-27.34
-31.85
-36.52
-41.00
-44.98
-48.34
-51.27
-54.17
-57.50
-61.59
-66.45
-71.68
-76.56
-80.23
-81.98
-81.44
-78.70
-74.23
-68.65
-62.54
-56.15
-49.42
-42.09
-33.92
-24.93
-15.47
-6.16
2.39
9.72
15.73
20.58
24.53
27.79
30.41
32.34
33.52
34.08
34.31
34.54
35.07
35.96
37.04
38.00
38.52
38.47
37.89
37.05
36.28
35.82
35.81
36.23
37.00
38.03
39.25
40.57
41.85
42.84
43.22
42.70
41.17
38.70
35.55
32.04
28.38
24.56
20.37
15.54
9.90
3.62
-2.80
-8.67
-13.29
-16.19
-17.27
-16.78
-15.19
-12.99
-10.57
-8.21
-6.03
-4.04
-2.16
-0.24
1.89
4.41
7.38
10.73
14.28
17.74
20.79
23.21
24.95
26.22
27.33
28.58
30.05
31.57
32.79
33.35
33.10
32.14
30.74
29.20
27.65
26.06
24.26
22.14
19.73
17.18
14.72
12.48
10.45
8.49
6.40
4.06
1.55
-0.92
-3.05
-4.65
-5.74
-6.59
-7.56
-8.98
-10.97
-13.44
-16.14
-18.78
-21.17
-23.12
-24.49
-25.02
-24.41
-22.44
-19.11
-14.70
-9.73
-4.75
-0.16
3.87
7.44
10.61
13.41
15.71
17.36
18.26
18.52
18.36
18.07
17.77
17.49
17.10
16.50
15.72
14.94
14.44
14.42
14.90
15.71
16.55
17.14
17.36
17.20
16.70
15.90
14.82
13.51
12.10
10.79
9.68
8.65
7.28
5.06
1.60
-3.16
-8.81
-14.63
-19.91
-24.12
-27.05
-28.77
-29.55
-29.71
-29.62
-29.62
-30.01
-30.85
-31.92
-32.68
-32.39
-30.38
-26.21
-19.96
-12.09
-3.24
6.07
15.69
25.94
37.48
50.82
66.09
82.66
99.30
114.52
127.01
135.92
140.97
142.40
140.72
136.52
130.37
122.57
113.03
101.14
86.05
67.00
43.98
17.97
-8.98
-34.41
-56.06
-72.58
-83.66
-89.86
-92.19
-91.62
-89.03
-85.11
-80.50
-75.79
-71.31
-67.19
-63.15
-58.82
-53.88
-48.34
-42.55
-37.01
-32.18
-28.27
-25.18
-22.57
-20.04
-17.19
-13.82
-9.91
-5.67
-1.50
2.14
4.85
6.50
7.14
6.96
6.12
4.69
2.62
-0.05
-3.19
-6.51
-9.64
-12.27
-14.17
-15.15
-15.07
-13.82
-11.48
-8.31
-4.86
-1.70
0.66
2.04
2.53
2.37
1.80
0.88
-0.43
-2.23
-4.49
-7.10
-9.82
-12.47
-14.93
-17.16
-19.22
-21.11
-22.83
-24.34
-25.63
-26.68
-27.53
-28.22
-28.77
-29.19
-29.56
-29.93
-30.36
-30.90
-31.43
-31.74
-31.52
-30.47
-28.43
-25.47
-21.79
-17.71
-13.48
-9.23
-5.09
-1.13
2.49
5.56
7.95
9.64
10.76
11.55
12.21
12.88
13.56
14.18
14.65
14.92
15.05
15.13
15.28
15.54
15.85
16.07
15.99
15.48
14.49
13.15
11.69
10.32
9.16
8.22
7.39
6.58
5.74
4.89
4.03
3.16
2.22
1.17
-0.03
-1.30
-2.54
-3.62
-4.44
-5.02
-5.41
-5.79
-6.30
-7.08
-8.16
-9.42
-10.64
-11.56
-11.99
-11.77
-10.92
-9.52
-7.73
-5.73
-3.69
-1.78
-0.11
1.21
2.15
2.73
2.99
3.01
2.85
2.57
2.19
1.79
1.41
1.16
1.07
1.13
1.25
1.29
1.14
0.78
0.34
0.05
0.15
0.75
1.88
3.35
4.94
6.39
7.51
8.22
8.51
8.48
8.25
7.90
7.51
7.10
6.63
6.10
5.50
4.86
4.13
3.27
2.19
0.87
-0.66
-2.23
-3.67
-4.90
-5.94
-6.91
-7.89
-8.78
-9.30
-9.03
-7.62
-4.97
-1.33
2.76
6.62
9.77
12.01
13.56
14.92
16.62
19.00
21.98
25.17
28.02
30.17
31.66
32.92
34.53
36.88
39.85
42.77
44.59
44.28
41.24
35.61
28.32
20.98
15.61
14.23
18.45
29.00
45.29
65.14
84.80
99.64
105.22
98.71
79.99
51.80
18.94
-13.49
-41.80
-64.60
-82.61
-97.49
-110.62
-122.36
-132.20
-139.48
-143.97
-145.94
-145.69
-142.97
-136.80
-125.91
-109.63
-88.49
-64.41
-39.96
-17.39
2.37
20.02
37.38
56.36
77.84
101.02
123.50
142.10
153.93
157.32
152.20
139.91
122.66
102.75
82.16
62.22
43.75
27.20
12.84
0.82
-8.90
-16.61
-22.91
-28.46
-33.86
-39.31
-44.56
-48.97
-51.85
-52.77
-51.78
-49.50
-46.92
-45.07
-44.61
-45.69
-47.83
-50.23
-52.13
-53.07
-53.05
-52.25
-50.91
-49.13
-46.82
-43.96
-40.69
-37.31
-34.21
-31.61
-29.55
-27.86
-26.31
-24.68
-22.86
-20.75
-18.34
-15.61
-12.62
-9.36
-5.90
-2.32
1.26
4.65
7.65
10.14
12.16
13.96
15.74
17.55
19.10
19.85
19.13
16.57
12.25
6.68
0.68
-4.89
-9.36
-12.31
-13.51
-12.99
-10.96
-7.83
-4.32
-1.25
0.53
0.51
-1.33
-4.47
-7.97
-10.84
-12.29
-12.06
-10.32
-7.64
-4.62
-1.73
0.87
3.31
5.77
8.38
11.11
13.71
15.90
17.47
18.39
18.78
18.82
18.63
18.24
17.58
16.64
15.50
14.32
13.22
12.23
11.26
10.10
8.58
6.63
4.30
1.78
-0.69
-2.88
-4.63
-5.85
-6.51
-6.65
-6.36
-5.73
-4.81
-3.71
-2.44
-1.03
0.49
2.02
3.40
4.46
5.03
5.03
4.50
3.64
2.74
2.13
2.04
2.54
3.44
4.38
4.94
4.76
3.79
2.22
0.50
-0.91
-1.76
-2.08
-2.08
-2.03
-2.02
-1.91
-1.51
-0.68
0.43
1.44
1.93
1.60
0.50
-1.08
-2.67
-3.93
-4.74
-5.25
-5.78
-6.58
-7.72
-9.00
-10.03
-10.46
-10.05
-8.89
-7.23
-5.45
-3.91
-2.75
-1.93
-1.26
-0.54
0.38
1.45
2.53
3.43
4.02
4.26
4.19
3.90
3.46
2.93
2.33
1.74
1.17
0.66
0.17
-0.35
-0.95
-1.66
-2.39
-3.04
-3.49
-3.63
-3.42
-2.80
-1.81
-0.58
0.66
1.71
2.44
2.92
3.32
3.83
4.50
5.23
5.81
6.15
6.35
6.66
7.27
8.14
8.93
9.25
8.72
7.41
5.68
4.10
3.08
2.73
2.87
3.14
3.27
3.13
2.80
2.37
1.87
1.25
0.42
-0.66
-1.96
-3.34
-4.66
-5.78
-6.65
-7.30
-7.81
-8.23
-8.55
-8.68
-8.49
-7.90
-7.01
-5.97
-5.05
-4.42
-4.12
-4.04
-4.02
-3.92
-3.69
-3.32
-2.84
-2.26
-1.59
-0.83
0.03
1.00
2.10
3.29
4.47
5.49
6.18
6.51
6.58
6.65
6.94
7.47
8.06
8.38
8.21
7.53
6.58
5.71
5.12
4.78
4.45
3.86
2.84
1.45
-0.12
-1.60
-2.86
-3.93
-4.91
-5.92
-6.97
-7.95
-8.70
-9.07
-9.08
-8.88
-8.67
-8.61
-8.73
-8.86
-8.83
-8.46
-7.74
-6.79
-5.77
-4.81
-3.87
-2.83
-1.58
-0.10
1.43
2.78
3.70
4.14
4.23
4.22
4.37
4.78
5.41
6.07
6.61
6.95
7.12
7.18
7.12
6.89
6.35
5.45
4.20
2.76
1.31
0.04
-1.00
-1.86
-2.55
-3.17
-3.72
-4.24
-4.69
-5.03
-5.16
-4.98
-4.50
-3.86
-3.28
-2.94
-2.89
-2.93
-2.71
-1.96
-0.57
1.23
3.13
4.74
5.92
6.66
7.14
7.52
7.84
8.11
8.26
8.32
8.38
8.62
9.12
9.83
10.55
10.98
10.88
10.17
8.97
7.57
6.23
5.14
4.28
3.51
2.68
1.78
0.93
0.34
0.12
0.12
0.01
-0.63
-2.12
-4.44
-7.29
-10.19
-12.75
-14.74
-16.22
-17.41
-18.57
-19.84
-21.24
-22.64
-23.87
-24.79
-25.31
-25.48
-25.37
-25.02
-24.38
-23.30
-21.61
-19.18
-15.92
-11.71
-6.34
0.36
8.38
17.35
26.52
34.85
41.40
45.60
47.45
47.45
46.34
44.80
43.31
42.14
41.45
41.44
42.31
44.09
46.48
48.87
50.42
50.36
48.33
44.49
39.47
34.09
29.14
25.15
22.30
20.51
19.42
18.57
17.41
15.47
12.50
8.61
4.24
0.02
-3.43
-5.73
-6.77
-6.72
-5.85
-4.50
-2.89
-1.21
0.39
1.85
3.00
3.68
3.66
2.64
0.33
-3.36
-8.29
-14.04
-20.03
-25.69
-30.58
-34.51
-37.42
-39.32
-40.20
-40.05
-38.93
-36.92
-34.11
-30.46
-25.82
-20.00
-12.98
-5.01
3.35
11.41
18.68
25.01
30.61
35.85
40.98
45.96
50.44
53.91
56.05
56.96
57.12
57.26
57.98
59.43
60.99
61.43
59.12
52.52
40.63
23.38
1.76
-22.38
-46.79
-69.31
-88.43
-103.57
-115.07
-124.00
-131.66
-139.10
-146.67
-153.79
-159.15
-161.13
-158.57
-151.11
-139.49
-125.13
-109.58
-93.93
-78.41
-62.18
-43.48
-20.21
9.12
44.18
82.04
117.39
144.09
157.37
155.79
141.68
119.93
95.64
72.12
50.15
28.79
6.80
-16.21
-39.90
-63.90
-88.57
-114.75
-142.75
-171.21
-196.84
-215.50
-223.91
-221.33
-209.99
-194.15
-178.23
-164.96
-154.27
-143.53
-128.88
-107.28
-78.25
-44.44
-10.84
17.03
35.05
41.71
37.99
26.44
9.94
-9.00
-28.34
-46.37
-61.92
-74.80
-86.21
-98.42
-113.59
-132.34
-152.88
-171.52
-184.30
-188.80
-185.08
-175.43
-163.03
-150.52
-139.12
-128.70
-118.44
-107.59
-95.93
-83.66
-71.15
-58.52
-45.41
-31.12
-14.88
3.76
24.66
47.02
69.67
91.47
111.75
130.63
148.86
167.56
187.89
210.72
236.82
266.74
300.59
337.38
374.52
407.89
433.03
446.77
448.69
441.30
428.68
414.39
399.77
383.78
364.19
339.56
310.45
279.24
248.77
220.74
194.82
169.07
141.14
109.56
74.41
37.05
-0.59
-36.76
-70.31
-100.52
-126.67
-147.81
-162.77
-170.58
-170.91
-164.29
-151.89
-135.03
-114.74
-91.66
-66.42
-39.96
-13.72
10.80
32.50
51.05
66.55
79.08
88.12
92.73
92.08
86.29
76.70
65.54
55.06
46.71
40.79
36.64
33.30
30.03
26.58
23.25
20.77
20.14
22.27
27.42
34.56
41.09
43.15
36.65
18.43
-12.80
-56.31
-109.87
-170.66
-235.81
-302.41
-367.04
-425.36
-472.45
-503.80
-516.73
-511.44
-491.14
-461.18
-427.41
-394.70
-365.81
-341.17
-319.40
-298.34
-276.14
-252.05
-226.65
-201.51
-178.51
-159.10
-143.90
-132.92
-125.99
-123.29
-125.44
-132.95
-145.48
-161.31
-177.24
-189.29
-193.71
-188.02
-171.58
-145.36
-111.32
-71.41
-26.87
22.00
75.58
134.52
199.36
270.13
345.79
423.68
498.97
564.90
614.14
640.89
642.82
622.16
584.96
539.06
491.60
447.32
407.96
372.94
340.68
309.88
280.41
253.47
230.87
214.11
203.27
196.53
190.61
181.94
167.72
146.36
117.16
79.76
33.99
-19.52
-78.30
-137.60
-191.13
-233.03
-260.02
-272.69
-275.09
-272.82
-270.82
-271.57
-274.76
-278.14
-279.10
-275.99
-268.83
-258.90
-247.94
-237.22
-227.01
-216.82
-206.12
-195.05
-184.61
-176.36
-171.60
-170.70
-172.78
-176.10
-178.73
-179.30
-177.30
-173.00
-167.01
-159.54
-149.99
-136.77
-117.27
-88.23
-46.45
9.92
79.86
158.50
237.36
306.05
354.95
377.86
373.54
345.72
301.74
250.62
201.06
159.88
131.06
115.29
110.29
111.77
114.92
115.93
112.97
106.29
97.57
88.90
82.04
78.05
77.20
79.15
83.10
87.93
92.41
95.51
96.50
95.12
91.56
86.36
80.25
73.91
67.63
61.17
53.83
44.92
34.28
22.63
11.65
3.39
-0.32
1.39
8.08
18.08
28.91
38.09
43.85
45.57
43.73
39.53
34.16
28.26
21.59
13.31
2.61
-10.43
-24.40
-36.76
-44.75
-46.61
-42.42
-34.20
-24.94
-17.24
-12.31
-9.80
-8.51
-7.37
-6.22
-5.75
-6.88
-10.09
-15.10
-21.09
-27.20
-32.90
-37.98
-42.37
-45.81
-47.90
-48.25
-46.79
-43.97
-40.66
-37.99
-36.99
-38.26
-41.92
-47.59
-54.61
-62.22
-69.70
-76.39
-81.65
-84.91
-85.83
-84.45
-81.39
-77.68
-74.38
-72.17
-70.91
-69.77
-67.49
-62.89
-55.35
-44.96
-32.41
-18.70
-4.87
8.32
20.42
31.25
40.81
49.19
56.48
62.71
67.80
71.57
73.84
74.51
73.63
71.45
68.38
64.84
61.24
57.84
54.76
51.96
49.26
46.34
42.89
38.60
33.36
27.34
20.96
14.81
9.48
5.28
2.12
-0.41
-3.00
-6.31
-10.81
-16.54
-23.07
-29.51
-34.76
-37.80
-37.92
-35.00
-29.49
-22.19
-14.00
-5.66
2.42
10.10
17.28
23.84
29.49
33.89
36.81
38.20
38.27
37.42
36.11
34.74
33.52
32.47
31.44
30.27
28.83
27.12
25.27
23.40
21.54
19.64
17.51
14.97
11.95
8.56
5.05
1.70
-1.31
-3.98
-6.51
-9.23
-12.44
-16.34
-20.97
-26.16
-31.53
-36.55
-40.56
-42.90
-43.04
-40.73
-36.11
-29.61
-21.89
-13.61
-5.29
2.72
10.16
16.82
22.52
27.16
30.71
33.25
34.94
35.96
36.47
36.61
36.55
36.44
36.39
36.41
36.40
36.16
35.47
34.19
32.33
30.01
27.42
24.74
22.09
19.51
17.02
14.62
12.35
10.22
8.22
6.34
4.57
2.88
1.29
-0.22
-1.74
-3.45
-5.56
-8.28
-11.67
-15.56
-19.51
-22.85
-24.83
-24.83
-22.50
-17.95
-11.70
-4.60
2.48
8.84
14.09
18.15
21.14
23.20
24.40
24.81
24.51
23.75
22.88
22.24
22.02
22.18
22.53
22.82
22.87
22.66
22.23
21.64
20.87
19.89
18.62
17.04
15.19
13.10
10.85
8.53
6.20
3.93
1.71
-0.46
-2.59
-4.67
-6.67
-8.53
-10.33
-12.26
-14.60
-17.62
-21.37
-25.65
-29.93
-33.52
-35.76
-36.18
-34.61
-31.23
-26.47
-20.90
-15.15
-9.74
-5.06
-1.32
1.45
3.31
4.44
5.00
5.15
5.07
4.93
4.88
5.06
5.54
6.29
7.26
8.36
9.56
10.86
12.24
13.69
15.10
16.35
17.29
17.80
17.81
17.27
16.15
14.48
12.29
9.73
6.96
4.16
1.39
-1.39
-4.34
-7.65
-11.45
-15.72
-20.23
-24.56
-28.18
-30.55
-31.21
-29.91
-26.68
-21.80
-15.81
-9.35
-3.06
2.62
7.48
11.49
14.71
17.25
19.18
20.55
21.48
22.16
22.87
23.92
25.57
27.98
31.18
35.10
39.59
44.45
49.53
54.75
60.14
65.87
72.13
79.09
86.77
94.97
103.38
111.64
119.54
127.15
134.85
143.25
153.01
164.53
177.77
192.09
206.25
218.63
227.52
231.62
230.42
224.51
215.48
205.51
196.79
190.77
187.75
186.78
186.06
183.65
178.15
169.18
157.29
143.61
129.37
115.41
102.21
89.91
78.63
68.58
60.05
53.21
47.87
43.46
39.14
34.12
27.92
20.56
12.40
3.97
-4.43
-12.83
-21.72
-31.83
-44.05
-59.29
-78.22
-101.00
-126.87
-153.92
-179.29
-199.84
-213.12
-218.11
-215.53
-207.34
-196.00
-183.75
-172.16
-162.15
-153.99
-147.44
-141.77
-136.05
-129.48
-121.90
-113.88
-106.49
-100.68
-96.75
-94.25
-92.33
-90.24
-87.66
-84.58
-81.09
-77.05
-72.14
-66.07
-58.97
-51.45
-44.55
-39.42
-37.01
-37.81
-41.66
-47.84
-55.10
-62.03
-67.44
-70.64
-71.59
-70.76
-68.83
-66.44
-64.27
-63.07
-63.82
-67.62
-75.45
-87.78
-104.49
-125.02
-148.88
-175.83
-205.52
-236.75
-266.74
-291.10
-304.86
-303.93
-286.48
-253.57
-208.65
-156.60
-102.45
-50.62
-4.52
33.59
62.58
82.49
94.22
99.15
98.58
93.29
83.41
68.93
50.11
28.01
4.55
-17.62
-35.44
-45.99
-47.03
-37.59
-18.48
7.46
35.76
61.29
79.55
87.98
86.56
77.57
64.47
50.41
37.10
24.35
10.65
-5.86
-26.36
-50.72
-77.53
-104.49
-129.01
-148.85
-162.51
-169.50
-170.34
-166.29
-159.04
-150.30
-141.43
-133.40
-126.76
-121.85
-118.73
-117.18
-116.66
-116.32
-115.29
-112.95
-109.05
-103.47
-96.04
-86.11
-72.69
-54.86
-32.31
-5.71
23.43
53.22
81.98
108.66
132.83
154.28
172.53
186.73
195.87
199.38
197.58
191.75
183.60
174.48
164.79
153.96
141.05
125.55
108.00
89.87
72.78
57.75
44.67
32.47
19.87
6.13
-8.43
-22.66
-35.00
-44.19
-49.73
-51.94
-51.65
-49.78
-46.85
-42.92
-37.63
-30.59
-21.67
-11.16
0.28
11.95
23.27
34.01
44.17
53.84
62.99
71.40
78.69
84.38
88.03
89.29
87.89
83.54
75.92
64.81
50.19
32.53
12.84
-7.44
-26.74
-43.71
-57.50
-67.88
-75.12
-79.80
-82.66
-84.37
-85.52
-86.52
-87.54
-88.51
-89.13
-88.92
-87.37
-84.01
-78.56
-70.99
-61.65
-51.31
-41.04
-32.03
-25.20
-20.94
-19.01
-18.67
-19.15
-19.90
-20.84
-22.15
-23.98
-26.17
-28.24
-29.62
-29.95
-29.17
-27.41
-24.73
-20.94
-15.70
-8.83
-0.45
8.83
18.17
26.74
34.01
39.73
43.86
46.43
47.47
47.05
45.29
42.40
38.64
34.31
29.70
25.15
21.08
17.86
15.77
14.89
15.07
16.04
17.51
19.23
21.02
22.68
23.98
24.71
24.75
24.15
23.13
22.09
21.40
21.28
21.80
22.87
24.46
26.60
29.36
32.70
36.28
39.55
41.87
42.89
42.67
41.79
41.00
40.85
41.30
41.66
40.87
37.99
32.76
25.77
18.29
11.68
6.72
3.32
0.65
-2.22
-5.61
-8.97
-11.00
-10.31
-5.97
2.16
13.60
27.60
43.43
60.29
77.23
93.07
106.49
116.52
122.71
125.26
124.66
121.37
115.55
107.19
96.29
83.07
68.02
51.71
34.68
17.27
-0.20
-17.32
-33.43
-47.64
-59.09
-67.16
-71.77
-73.40
-72.94
-71.36
-69.33
-67.03
-64.18
-60.43
-55.69
-50.38
-45.30
-41.24
-38.68
-37.63
-37.83
-39.02
-41.15
-44.22
-48.12
-52.33
-55.93
-57.87
-57.36
-54.12
-48.41
-40.82
-32.07
-22.90
-14.09
-6.27
0.26
5.84
11.49
18.71
28.79
42.06
57.60
73.33
86.82
96.07
100.14
99.24
94.37
86.84
77.85
68.30
58.76
49.49
40.49
31.56
22.51
13.26
4.05
-4.69
-12.50
-19.09
-24.42
-28.67
-32.04
-34.70
-36.81
-38.52
-40.05
-41.52
-42.83
-43.50
-42.76
-39.86
-34.32
-26.23
-16.25
-5.36
5.42
15.31
23.97
31.40
37.85
43.60
48.90
53.87
58.58
63.00
67.08
70.71
73.77
76.22
78.09
79.53
80.62
81.25
81.01
79.19
75.02
67.97
57.98
45.61
31.83
17.71
4.07
-8.72
-20.70
-32.20
-43.51
-54.68
-65.45
-75.28
-83.59
-89.92
-94.09
-96.19
-96.46
-95.10
-92.25
-87.95
-82.26
-75.43
-68.01
-60.76
-54.53
-49.98
-47.42
-46.72
-47.37
-48.63
-49.73
-50.06
-49.32
-47.57
-45.21
-42.80
-40.85
-39.63
-38.98
-38.45
-37.48
-35.69
-33.08
-30.04
-27.20
-25.14
-24.26
-24.74
-26.71
-30.38
-36.04
-43.84
-53.42
-63.73
-73.26
-80.62
-85.09
-87.04
-87.57
-87.87
-88.49
-89.04
-88.61
-86.38
-82.25
-76.80
-70.93
-65.03
-58.81
-51.37
-41.87
-30.12
-16.75
-2.99
9.98
21.54
31.77
41.24
50.51
59.75
68.64
76.54
82.80
87.08
89.39
90.02
89.32
87.53
84.77
81.06
76.43
70.99
64.87
58.31
51.50
44.66
37.91
31.29
24.69
17.94
10.94
3.76
-3.28
-9.66
-14.92
-18.81
-21.42
-23.16
-24.57
-26.11
-27.99
-30.12
-32.17
-33.61
-33.90
-32.60
-29.52
-24.76
-18.67
-11.80
-4.68
2.19
8.51
14.07
18.74
22.48
25.33
27.42
28.94
30.08
30.96
31.61
32.04
32.27
32.34
32.37
32.49
32.75
33.17
33.65
33.99
33.94
33.25
31.77
29.55
26.86
24.04
21.40
19.09
17.04
15.08
13.02
10.83
8.56
6.32
4.23
2.27
0.37
-1.59
-3.70
-6.02
-8.57
-11.28
-14.04
-16.52
-18.35
-19.11
-18.57
-16.72
-13.87
-10.52
-7.17
-4.22
-1.76
0.31
2.21
4.15
6.24
8.45
10.65
12.68
14.42
15.79
16.83
17.64
18.38
19.18
20.09
21.01
21.75
22.10
21.98
21.39
20.51
19.49
18.36
17.10
15.65
14.05
12.46
11.07
9.99
9.10
8.16
6.85
5.05
2.87
0.62
-1.43
-3.11
-4.48
-5.69
-6.91
-8.20
-9.57
-11.07
-12.80
-14.90
-17.39
-20.08
-22.52
-24.14
-24.49
-23.41
-21.14
-18.12
-14.84
-11.67
-8.72
-5.96
-3.31
-0.72
1.75
3.97
5.82
7.22
8.16
8.69
8.90
8.94
8.97
9.13
9.53
10.17
11.01
11.92
12.81
13.62
14.35
14.97
15.49
15.80
15.80
15.41
14.63
13.57
12.39
11.22
10.07
8.81
7.27
5.34
3.04
0.54
-1.91
-4.08
-5.84
-7.17
-8.16
-8.94
-9.69
-10.56
-11.67
-13.08
-14.73
-16.46
-17.97
-18.93
-19.10
-18.39
-16.87
-14.76
-12.33
-9.84
-7.46
-5.26
-3.21
-1.27
0.61
2.38
3.97
5.27
6.19
6.78
7.16
7.53
8.05
8.74
9.50
10.13
10.50
10.63
10.63
10.70
10.94
11.30
11.57
11.47
10.83
9.63
8.08
6.47
5.02
3.85
2.89
2.02
1.11
0.12
-0.89
-1.79
-2.53
-3.17
-3.79
-4.52
-5.43
-6.48
-7.57
-8.63
-9.62
-10.57
-11.54
-12.50
-13.30
-13.70
-13.40
-12.23
-10.21
-7.60
-4.79
-2.25
-0.27
1.06
1.80
2.14
2.22
2.14
1.93
1.63
1.33
1.17
1.30
1.79
2.59
3.52
4.36
4.91
5.09
4.94
4.60
4.22
3.90
3.69
3.49
3.22
2.78
2.14
1.28
0.21
-0.99
-2.30
-3.61
-4.88
-5.98
-6.89
-7.64
-8.35
-9.21
-10.43
-12.15
-14.36
-16.90
-19.46
-21.64
-23.06
-23.44
-22.68
-20.87
-18.33
-15.41
-12.44
-9.63
-7.00
-4.53
-2.13
0.18
2.34
4.25
5.89
7.28
8.46
9.39
9.96
10.03
9.56
8.65
7.56
6.60
5.97
5.70
5.61
5.44
4.98
4.10
2.85
1.43
0.05
-1.08
-1.90
-2.44
-2.85
-3.21
-3.60
-4.05
-4.57
-5.24
-6.21
-7.58
-9.36
-11.41
-13.49
-15.32
-16.66
-17.34
-17.32
-16.61
-15.31
-13.53
-11.38
-9.01
-6.52
-4.00
-1.49
0.93
3.14
5.03
6.46
7.39
7.87
8.10
8.30
8.64
9.22
9.98
10.77
11.43
11.84
11.93
11.65
10.94
9.78
8.21
6.38
4.53
2.94
1.78
1.02
0.42
-0.33
-1.46
-3.00
-4.81
-6.67
-8.37
-9.89
-11.38
-13.06
-15.13
-17.59
-20.26
-22.76
-24.65
-25.59
-25.36
-24.02
-21.76
-18.88
-15.70
-12.40
-9.07
-5.72
-2.37
0.88
3.87
6.46
8.61
10.42
12.03
13.60
15.21
16.77
18.13
19.16
19.75
19.88
19.48
18.52
16.97
14.86
12.39
9.84
7.51
5.53
3.90
2.45
0.95
-0.76
-2.67
-4.63
-6.41
-7.79
-8.67
-9.07
-9.20
-9.31
-9.72
-10.59
-11.97
-13.67
-15.42
-16.91
-17.89
-18.20
-17.77
-16.60
-14.71
-12.16
-9.18
-6.03
-3.00
-0.27
2.11
4.27
6.33
8.37
10.30
11.91
13.00
13.46
13.38
12.98
12.53
12.26
12.25
12.49
12.84
13.11
13.13
12.81
12.15
11.20
10.14
9.05
8.03
7.10
6.30
5.65
5.16
4.78
4.37
3.79
2.85
1.54
-0.01
-1.55
-2.86
-3.84
-4.66
-5.64
-7.10
-9.19
-11.73
-14.28
-16.32
-17.37
-17.23
-15.95
-13.77
-10.98
-7.84
-4.56
-1.30
1.81
4.59
6.89
8.55
9.51
9.83
9.68
9.38
9.25
9.55
10.36
11.49
12.66
13.51
13.85
13.72
13.27
12.70
12.09
11.41
10.56
9.45
8.12
6.68
5.27
3.98
2.73
1.39
-0.17
-2.01
-4.01
-5.91
-7.42
-8.36
-8.80
-8.97
-9.27
-9.99
-11.23
-12.78
-14.28
-15.31
-15.60
-15.08
-13.86
-12.13
-10.04
-7.68
-5.11
-2.40
0.32
2.90
5.24
7.33
9.23
11.05
12.82
14.47
15.81
16.67
16.99
16.88
16.58
16.40
16.57
17.20
18.18
19.32
20.30
20.90
20.95
20.45
19.50
18.19
16.63
14.85
12.95
11.04
9.30
7.89
6.84
6.03
5.23
4.22
2.91
1.39
-0.19
-1.70
-3.16
-4.70
-6.52
-8.67
-11.06
-13.40
-15.29
-16.35
-16.29
-15.05
-12.70
-9.56
-6.02
-2.46
0.84
3.72
6.21
8.41
10.51
12.67
15.03
17.65
20.36
22.82
24.51
25.00
24.12
22.10
19.54
17.10
15.21
13.84
12.51
10.52
7.34
2.95
-2.06
-6.72
-9.95
-11.03
-9.85
-6.91
-3.16
0.37
2.87
4.05
4.01
3.12
1.82
0.39
-1.03
-2.41
-3.73
-5.01
-6.30
-7.69
-9.27
-10.97
-12.61
-13.81
-14.25
-13.83
-12.81
-11.67
-10.94
-10.96
-11.69
-12.91
-14.23
-15.33
-15.90
-15.67
-14.36
-11.75
-7.83
-2.87
2.56
7.76
12.04
14.81
15.67
14.34
10.73
4.93
-2.70
-11.53
-20.88
-30.09
-38.74
-46.54
-53.35
-58.98
-63.20
-65.77
-66.58
-65.72
-63.49
-60.38
-56.88
-53.40
-50.19
-47.31
-44.63
-41.87
-38.76
-35.12
-30.94
-26.39
-21.70
-17.07
-12.57
-8.15
-3.71
0.74
5.11
9.17
12.66
15.40
17.30
18.43
18.90
18.85
18.41
17.67
16.68
15.50
14.22
12.97
11.88
11.09
10.69
10.71
11.06
11.58
12.04
12.21
11.88
10.93
9.32
7.12
4.54
1.89
-0.46
-2.12
-2.80
-2.38
-0.89
1.42
4.25
7.27
10.16
12.65
14.54
15.74
16.25
16.24
15.97
15.72
15.65
15.80
16.04
16.19
16.16
15.92
15.49
14.92
14.24
13.46
12.62
11.82
11.15
10.61
10.11
9.43
8.36
6.80
4.77
2.46
0.10
-2.08
-3.98
-5.56
-6.91
-8.19
-9.53
-11.07
-12.79
-14.53
-16.03
-16.95
-17.05
-16.25
-14.63
-12.37
-9.65
-6.60
-3.37
-0.13
2.88
5.42
7.35
8.72
9.74
10.70
11.75
12.89
13.99
14.91
15.62
16.15
16.57
16.89
17.06
17.04
16.85
16.59
16.41
16.31
16.17
15.73
14.73
13.05
10.79
8.20
5.61
3.24
1.21
-0.52
-2.05
-3.46
-4.77
-5.97
-7.09
-8.14
-9.18
-10.22
-11.23
-12.01
-12.28
-11.76
-10.19
-7.51
-3.91
0.18
4.22
7.73
10.38
12.12
13.12
13.68
14.04
14.45
15.03
15.93
17.31
19.33
22.03
25.32
28.94
32.56
35.92
38.89
41.39
43.37
44.65
44.98
44.07
41.79
38.17
33.46
28.03
22.22
16.32
10.48
4.85
-0.39
-5.04
-8.88
-11.75
-13.63
-14.69
-15.26
-15.81
-16.77
-18.51
-21.23
-24.92
-29.32
-34.03
-38.55
-42.38
-45.17
-46.70
-47.03
-46.37
-45.06
-43.43
-41.72
-40.05
-38.37
-36.50
-34.16
-30.97
-26.65
-21.08
-14.47
-7.37
-0.51
5.36
9.80
12.71
14.41
15.41
16.19
17.01
17.88
18.58
18.83
18.46
17.42
15.86
13.94
11.84
9.61
7.31
4.99
2.79
0.90
-0.53
-1.47
-2.09
-2.67
-3.50
-4.74
-6.41
-8.38
-10.44
-12.44
-14.29
-15.94
-17.43
-18.82
-20.18
-21.48
-22.61
-23.30
-23.21
-22.04
-19.62
-16.07
-11.76
-7.28
-3.16
0.21
2.76
4.66
6.11
7.28
8.11
8.43
8.08
7.11
5.82
4.67
4.07
4.17
4.83
5.69
6.40
6.83
7.06
7.29
7.61
8.00
8.25
8.14
7.61
6.71
5.63
4.52
3.44
2.34
1.14
-0.21
-1.62
-2.93
-3.98
-4.61
-4.82
-4.73
-4.59
-4.61
-4.95
-5.64
-6.52
-7.49
-8.50
-9.64
-11.04
-12.74
-14.57
-16.16
-17.11
-17.10
-16.14
-14.47
-12.48
-10.51
-8.71
-7.04
-5.36
-3.58
-1.71
0.06
1.58
2.72
3.55
4.24
5.03
6.11
7.53
9.21
10.91
12.39
13.43
13.89
13.81
13.34
12.78
12.41
12.38
12.65
13.01
13.15
12.75
11.63
9.70
7.03
3.80
0.35
-2.96
-5.74
-7.76
-9.00
-9.64
-10.05
-10.50
-11.13
-11.93
-12.79
-13.75
-15.01
-16.93
-19.81
-23.71
-28.27
-32.80
-36.44
-38.55
-38.91
-37.82
-36.01
-34.29
-33.26
-33.11
-33.56
-34.16
-34.58
-34.81
-35.20
-36.28
-38.40
-41.58
-45.33
-48.87
-51.33
-51.96
-50.34
-46.37
-40.33
-32.94
-25.32
-18.71
-14.02
-11.27
-9.24
-5.83
1.21
13.22
29.99
49.77
69.89
87.79
101.80
111.47
117.31
120.33
121.58
121.86
121.69
121.24
120.43
118.93
116.34
112.29
106.52
98.97
89.67
78.81
66.68
53.82
40.86
28.50
17.30
7.57
-0.67
-7.68
-13.79
-19.26
-24.12
-28.17
-31.01
-32.21
-31.50
-28.92
-24.83
-19.87
-14.76
-10.14
-6.41
-3.79
-2.28
-1.80
-2.28
-3.61
-5.65
-8.16
-10.79
-13.12
-14.76
-15.46
-15.24
-14.33
-13.17
-12.16
-11.54
-11.35
-11.42
-11.53
-11.53
-11.50
-11.66
-12.30
-13.57
-15.38
-17.38
-19.09
-20.12
-20.26
-19.55
-18.26
-16.66
-15.02
-13.46
-11.98
-10.51
-8.99
-7.43
-5.86
-4.40
-3.13
-2.07
-1.20
-0.44
0.37
1.28
2.33
3.46
4.58
5.56
6.31
6.83
7.19
7.46
7.73
7.97
8.08
7.89
7.30
6.35
5.23
4.20
3.43
2.99
2.77
2.57
2.18
1.50
0.46
-0.91
-2.55
-4.34
-6.14
-7.80
-9.16
-10.21
-11.00
-11.64
-12.23
-12.76
-13.09
-13.11
-12.76
-12.12
-11.35
-10.60
-9.88
-9.21
-8.55
-7.91
-7.32
-6.81
-6.28
-5.57
-4.53
-3.12
-1.48
0.13
1.39
2.13
2.32
2.12
1.79
1.55
1.54
1.79
2.20
2.63
3.01
3.30
3.59
3.93
4.40
5.02
5.82
6.84
8.09
9.53
11.01
12.30
13.20
13.60
13.58
13.38
13.31
13.65
14.59
16.23
18.56
21.50
24.87
28.40
31.76
34.72
37.24
39.48
41.83
44.63
48.08
51.97
55.87
59.18
61.44
62.57
62.72
62.22
61.12
59.22
56.01
51.08
44.26
35.77
26.11
15.83
5.26
-5.62
-17.23
-30.41
-46.34
-66.39
-91.76
-122.90
-159.04
-197.81
-235.55
-267.98
-291.07
-301.90
-299.08
-282.94
-255.38
-219.63
-179.83
-140.53
-105.75
-78.05
-57.96
-44.10
-34.12
-25.89
-18.33
-11.20
-4.42
2.66
11.05
21.16
31.64
39.10
39.27
28.92
7.45
-22.85
-58.06
-94.21
-128.34
-158.38
-182.44
-198.16
-203.16
-196.08
-177.65
-150.88
-120.37
-90.70
-65.26
-45.68
-32.06
-23.69
-19.57
-18.70
-19.98
-22.01
-23.20
-21.94
-17.15
-8.55
3.10
16.50
30.53
45.07
61.33
81.66
108.82
145.24
191.99
248.17
310.49
373.40
429.83
473.12
499.23
508.54
505.89
498.54
492.64
490.19
488.09
479.87
459.18
423.09
373.60
316.64
259.69
209.18
169.18
141.24
125.22
119.98
123.70
133.88
147.47
161.32
173.02
181.52
187.17
191.27
195.11
198.90
201.24
199.38
190.02
170.64
140.44
100.75
54.60
5.71
-42.32
-86.89
-126.70
-161.75
-193.21
-223.18
-254.25
-288.82
-328.17
-371.55
-415.85
-455.99
-486.27
-502.07
-501.24
-484.45
-454.42
-414.60
-367.79
-315.62
-258.92
-198.70
-137.16
-77.99
-26.01
14.07
38.96
47.82
42.63
27.56
7.73
-12.32
-29.59
-42.85
-52.10
-57.79
-60.32
-60.04
-57.73
-54.83
-53.35
-55.22
-61.55
-72.16
-85.47
-99.02
-110.23
-117.13
-118.84
-115.82
-109.49
-101.77
-94.37
-88.29
-83.64
-79.94
-76.54
-73.01
-69.33
-65.69
-62.25
-59.00
-55.69
-52.08
-48.07
-43.76
-39.43
-35.34
-31.62
-28.23
-24.92
-21.35
-17.23
-12.38
-6.89
-1.13
4.35
9.00
12.50
14.88
16.54
18.04
19.82
22.05
24.56
26.96
28.84
30.01
30.57
30.80
30.99
31.24
31.39
31.13
30.23
28.68
26.77
24.92
23.48
22.58
22.00
21.41
20.49
19.10
17.39
15.60
14.06
13.05
12.76
13.29
14.69
16.91
19.82
23.22
26.81
30.28
33.27
35.45
36.62
36.72
35.87
34.32
32.31
30.05
27.61
24.98
22.18
19.33
16.67
14.51
13.06
12.38
12.32
12.60
12.92
13.12
13.11
12.91
12.51
11.87
10.97
9.87
8.73
7.83
7.37
7.43
7.84
8.27
8.31
7.70
6.36
4.51
2.51
0.82
-0.21
-0.38
0.33
1.76
3.74
5.99
8.32
10.52
12.50
14.27
15.96
17.80
19.97
22.52
25.32
28.05
30.27
31.60
31.83
31.05
29.65
28.24
27.44
27.63
28.75
30.35
31.79
32.59
32.65
32.39
32.54
33.89
37.20
42.98
51.58
62.98
76.69
91.59
106.03
118.09
126.12
129.29
127.72
122.35
114.33
104.52
93.14
79.88
64.36
46.58
27.20
7.42
-11.42
-28.30
-42.75
-54.78
-64.68
-72.68
-78.85
-83.10
-85.38
-85.78
-84.52
-82.03
-78.66
-74.75
-70.50
-66.04
-61.48
-57.00
-52.86
-49.41
-47.00
-45.83
-45.86
-46.79
-48.11
-49.26
-49.79
-49.53
-48.57
-47.25
-45.94
-44.91
-44.23
-43.75
-43.18
-42.24
-40.75
-38.71
-36.25
-33.54
-30.75
-27.98
-25.29
-22.79
-20.60
-18.87
-17.62
-16.73
-15.92
-14.82
-13.13
-10.75
-7.86
-4.73
-1.72
0.95
3.27
5.35
7.32
9.21
10.90
12.21
13.01
13.26
13.10
12.73
12.28
11.80
11.16
10.26
9.04
7.64
6.27
5.15
4.38
3.82
3.21
2.28
0.90
-0.80
-2.52
-3.86
-4.59
-4.72
-4.50
-4.28
-4.32
-4.69
-5.22
-5.67
-5.92
-6.00
-6.12
-6.53
-7.32
-8.46
-9.75
-11.01
-12.16
-13.18
-14.09
-14.79
-15.10
-14.77
-13.59
-11.56
-8.85
-5.78
-2.69
0.12
2.52
4.50
6.18
7.66
9.05
10.38
11.55
12.46
13.01
13.20
13.10
12.94
12.88
13.02
13.27
13.43
13.28
12.75
11.91
11.01
10.24
9.75
9.42
9.11
8.62
7.92
7.06
6.19
5.39
4.63
3.75
2.58
1.06
-0.72
-2.51
-4.07
-5.24
-6.07
-6.77
-7.59
-8.77
-10.32
-12.11
-13.89
-15.38
-16.39
-16.80
-16.55
-15.56
-13.83
-11.41
-8.46
-5.24
-2.07
0.80
3.22
5.12
6.53
7.45
7.91
7.92
7.56
6.95
6.25
5.58
5.05
4.74
4.73
5.11
5.97
7.28
8.96
10.82
12.69
14.42
15.93
17.09
17.62
17.16
15.34
12.02
7.38
1.95
-3.57
-8.53
-12.48
-15.31
-17.09
-18.03
-18.24
-17.75
-16.52
-14.49
-11.76
-8.54
-5.21
-2.12
0.44
2.31
3.51
4.16
4.40
4.40
4.29
4.23
4.42
5.08
6.40
8.46
11.11
13.97
16.44
17.93
18.06
16.81
14.62
12.13
9.99
8.54
7.74
7.24
6.66
5.73
4.36
2.58
0.55
-1.51
-3.22
-4.04
-3.36
-0.94
2.89
7.07
10.13
10.72
8.24
3.09
-3.44
-9.75
-14.56
-17.30
-18.22
-17.99
-17.43
-17.11
-17.25
-17.78
-18.43
-18.93
-18.98
-18.36
-16.89
-14.44
-10.99
-6.53
-1.19
4.79
11.13
17.63
24.27
31.30
39.10
47.99
57.97
68.55
78.91
88.04
95.21
100.10
102.78
103.55
102.61
99.87
94.84
87.00
76.06
62.35
46.76
30.64
15.33
1.89
-9.20
-18.01
-25.07
-31.24
-37.50
-44.68
-53.41
-63.91
-76.00
-89.13
-102.50
-115.06
-125.59
-132.78
-135.40
-132.70
-124.77
-112.71
-98.35
-83.83
-70.88
-60.47
-52.70
-47.13
-43.12
-40.05
-37.49
-35.11
-32.57
-29.58
-25.93
-21.64
-16.97
-12.35
-8.22
-4.79
-1.95
0.67
3.52
6.87
10.62
14.34
17.46
19.65
20.92
21.69
22.44
23.47
24.67
25.62
25.83
25.03
23.28
21.00
18.70
16.79
15.44
14.52
13.66
12.39
10.31
7.23
3.25
-1.20
-5.36
-8.30
-9.03
-6.83
-1.50
6.28
14.87
22.05
25.68
24.75
20.04
14.05
10.12
11.09
17.96
29.55
42.95
54.84
62.77
65.97
65.22
62.22
58.70
55.88
54.46
54.94
57.99
64.42
74.80
88.94
105.49
122.12
136.29
146.09
151.16
152.71
153.06
154.61
158.63
164.74
170.84
173.80
170.64
159.45
139.80
112.56
79.44
42.80
5.71
-28.02
-54.24
-69.70
-73.67
-68.98
-61.64
-58.79
-65.86
-84.34
-111.52
-142.20
-171.26
-195.53
-214.20
-227.61
-235.71
-237.34
-230.68
-214.61
-189.97
-159.96
-129.43
-103.55
-86.30
-79.73
-83.90
-97.39
-117.95
-142.96
-169.56
-194.78
-215.56
-229.37
-234.73
-231.87
-222.52
-209.38
-194.93
-180.65
-166.74
-152.50
-137.13
-120.17
-101.70
-81.79
-60.08
-35.54
-6.61
28.45
71.20
122.42
181.42
245.25
308.50
364.18
405.44
427.67
429.85
414.58
386.55
350.60
310.29
267.53
223.18
178.02
133.26
90.50
51.25
16.45
-13.71
-39.81
-62.80
-83.64
-102.69
-119.12
-130.82
-135.07
-129.84
-115.01
-92.92
-67.57
-43.09
-22.09
-5.04
9.28
22.40
35.03
46.61
55.82
61.64
64.34
65.75
68.62
75.36
86.74
100.85
113.22
117.92
109.47
84.86
44.61
-7.37
-65.32
-123.62
-178.39
-227.97
-272.35
-312.01
-346.95
-376.34
-398.72
-412.52
-416.61
-410.65
-395.28
-372.00
-343.07
-310.99
-277.99
-245.61
-214.48
-184.56
-155.45
-126.87
-98.94
-72.06
-46.57
-22.47
0.79
24.25
49.16
76.67
107.79
143.43
184.23
230.13
279.62
329.21
373.82
408.03
428.00
432.93
425.32
409.58
389.89
368.41
344.94
318.09
287.14
253.30
219.61
189.55
165.34
146.77
131.46
116.12
98.15
76.70
52.83
28.75
6.63
-12.34
-28.31
-42.47
-56.39
-71.24
-87.36
-104.30
-121.23
-137.51
-153.11
-168.60
-184.83
-202.52
-221.82
-242.10
-262.05
-279.92
-293.84
-301.99
-302.89
-295.56
-279.80
-256.47
-227.55
-195.93
-164.85
-137.15
-114.53
-97.19
-83.85
-72.28
-60.12
-45.70
-28.56
-9.59
9.37
26.23
39.37
48.11
52.81
54.49
54.35
53.30
51.73
49.59
46.67
42.78
38.00
32.66
27.31
22.65
19.39
18.09
19.06
22.17
26.96
32.68
38.46
43.56
47.50
50.16
51.71
52.50
52.87
53.04
53.09
52.96
52.57
51.86
50.88
49.84
49.00
48.69
49.22
50.75
53.21
56.23
59.16
61.24
61.82
60.54
57.48
53.04
47.83
42.39
37.07
31.96
26.95
21.86
16.53
10.81
4.58
-2.27
-9.72
-17.49
-24.93
-31.12
-35.04
-36.04
-33.98
-29.33
-22.97
-15.80
-8.51
-1.43
5.38
11.89
18.02
23.59
28.38
32.29
35.31
37.55
39.18
40.36
41.22
41.83
42.26
42.50
42.55
42.38
41.93
41.15
39.94
38.22
35.88
32.84
29.14
24.91
20.32
15.60
10.92
6.32
1.81
-2.75
-7.54
-12.83
-18.85
-25.71
-33.16
-40.63
-47.23
-51.97
-54.06
-53.14
-49.39
-43.36
-35.77
-27.30
-18.41
-9.31
-0.12
9.05
17.98
26.33
33.71
39.75
44.28
47.33
49.19
50.28
50.98
51.51
51.87
51.87
51.35
50.24
48.69
46.98
45.31
43.71
41.99
39.83
37.00
33.41
29.24
24.79
20.42
16.30
12.43
8.59
4.42
-0.40
-6.15
-12.88
-20.46
-28.46
-36.29
-43.18
-48.39
-51.30
-51.53
-49.04
-44.08
-37.13
-28.75
-19.51
-9.88
-0.22
9.17
18.03
26.09
33.15
39.04
43.70
47.22
49.82
51.76
53.28
54.56
55.59
56.23
56.27
55.54
53.97
51.68
48.95
46.07
43.24
40.51
37.76
34.81
31.60
28.14
24.58
21.03
17.50
13.89
10.04
5.87
1.43
-3.15
-7.79
-12.54
-17.60
-23.28
-29.70
-36.74
-43.89
-50.36
-55.27
-57.82
-57.59
-54.56
-49.10
-41.87
-33.55
-24.71
-15.66
-6.55
2.52
11.36
19.70
27.19
33.58
38.85
43.12
46.62
49.52
51.86
53.64
54.84
55.54
55.96
56.36
56.90
57.60
58.28
58.63
58.34
57.27
55.51
53.40
51.43
49.97
49.17
48.84
48.55
47.82
46.36
44.24
41.92
40.09
39.36
40.02
41.89
44.38
46.67
48.12
48.50
48.20
48.06
49.10
52.16
57.60
65.27
74.75
85.66
97.88
111.66
127.40
145.40
165.65
187.66
210.34
231.80
249.40
259.94
260.40
248.88
225.29
191.46
150.55
105.80
59.39
11.86
-37.51
-89.45
-143.31
-196.34
-244.07
-281.78
-306.41
-317.85
-318.95
-314.39
-308.71
-304.69
-302.77
-301.59
-299.18
-294.13
-285.98
-274.98
-261.46
-245.40
-226.55
-204.82
-180.80
-155.86
-132.01
-111.21
-94.77
-82.99
-75.19
-70.08
-66.26
-62.68
-58.76
-54.31
-49.34
-43.79
-37.45
-30.04
-21.33
-11.31
-0.34
11.01
21.99
31.93
40.39
47.20
52.47
56.46
59.55
62.11
64.46
66.85
69.30
71.70
73.75
75.15
75.65
75.19
73.86
71.89
69.50
66.88
64.09
61.17
58.12
54.96
51.78
48.65
45.54
42.35
38.90
34.99
30.55
25.69
20.70
15.87
11.49
7.65
4.23
0.96
-2.53
-6.58
-11.38
-16.87
-22.69
-28.18
-32.52
-34.91
-34.82
-32.13
-27.14
-20.51
-13.03
-5.43
1.73
8.15
13.70
18.38
22.25
25.39
27.89
29.82
31.26
32.27
32.89
33.19
33.26
33.21
33.15
33.15
33.25
33.39
33.45
33.28
32.78
31.90
30.68
29.17
27.41
25.42
23.15
20.60
17.78
14.74
11.57
8.35
5.20
2.19
-0.65
-3.37
-6.15
-9.21
-12.75
-16.84
-21.29
-25.64
-29.28
-31.55
-31.99
-30.33
-26.54
-20.77
-13.23
-4.23
5.85
16.52
27.22
37.33
46.38
54.15
60.76
66.67
72.46
78.56
85.08
91.74
98.00
103.35
107.58
110.94
113.99
117.53
122.27
128.82
137.35
147.26
156.87
163.31
163.05
152.93
131.36
99.05
58.79
14.54
-30.01
-72.39
-111.51
-147.10
-178.90
-206.15
-227.73
-242.68
-250.76
-252.64
-249.43
-242.18
-231.43
-217.17
-199.23
-177.81
-153.77
-128.66
-104.26
-82.01
-62.62
-45.92
-31.25
-17.87
-5.39
6.13
16.30
24.73
31.25
36.04
39.51
42.16
44.35
46.23
47.74
48.69
48.96
48.56
47.63
46.43
45.10
43.68
41.99
39.82
37.02
33.66
29.95
26.23
22.72
19.52
16.49
13.41
10.05
6.21
1.83
-3.10
-8.46
-14.01
-19.34
-23.93
-27.16
-28.58
-27.92
-25.29
-21.04
-15.71
-9.85
-3.85
2.05
7.72
13.02
17.72
21.51
24.15
25.58
26.00
25.84
25.60
25.63
26.01
26.54
26.88
26.76
26.08
24.98
23.71
22.46
21.25
19.91
18.21
15.99
13.31
10.41
7.59
5.03
2.69
0.37
-2.21
-5.19
-8.55
-12.12
-15.78
-19.51
-23.34
-27.33
-31.28
-34.81
-37.36
-38.39
-37.63
-35.10
-31.18
-26.35
-21.08
-15.70
-10.42
-5.33
-0.60
3.62
7.14
9.84
11.79
13.19
14.36
15.61
17.10
18.87
20.73
22.40
23.59
24.11
23.93
23.16
22.06
20.85
19.69
18.59
17.50
16.32
14.99
13.52
11.95
10.29
8.55
6.74
4.95
3.33
2.07
1.24
0.67
-0.05
-1.41
-3.71
-6.78
-9.85
-11.74
-11.22
-7.44
-0.26
9.69
21.30
33.38
45.05
56.00
66.47
76.95
87.91
99.47
111.38
123.00
133.62
142.73
150.34
157.14
164.58
174.69
189.54
210.36
236.46
264.59
289.25
304.18
304.46
288.40
258.05
218.31
174.75
131.55
90.32
50.33
9.56
-34.15
-82.39
-135.76
-193.60
-253.54
-311.30
-361.39
-398.49
-419.26
-423.67
-414.89
-398.13
-378.69
-360.37
-344.96
-332.49
-322.08
-312.65
-303.06
-292.05
-278.16
-259.90
-236.15
-206.74
-172.69
-136.22
-100.33
-68.06
-41.80
-22.68
-10.50
-3.88
-0.86
0.60
2.19
5.01
9.65
16.21
24.48
34.05
44.46
55.32
66.36
77.34
87.88
97.35
104.78
109.19
109.88
106.79
100.61
92.72
84.77
78.28
74.31
73.34
75.39
80.32
87.99
98.37
111.41
126.82
144.01
162.23
180.90
199.96
219.96
241.68
265.47
290.49
314.45
333.95
345.49
346.64
336.84
317.49
291.35
261.55
230.60
199.94
169.92
140.14
109.94
78.75
46.15
11.79
-24.64
-63.32
-103.99
-145.56
-186.02
-222.84
-253.73
-277.57
-294.90
-307.74
-318.74
-330.11
-342.79
-356.48
-370.16
-383.05
-395.05
-406.63
-418.05
-428.49
-435.79
-436.87
-428.94
-410.70
-383.04
-348.76
-311.52
-274.51
-239.49
-206.56
-174.70
-142.56
-109.14
-74.15
-37.99
-1.75
33.05
64.62
91.21
111.62
125.57
133.79
137.78
139.20
139.37
139.01
138.27
137.12
135.50
133.50
131.19
128.51
125.18
120.86
115.35
108.72
101.39
93.95
86.92
80.55
74.78
69.26
63.59
57.49
50.92
44.01
36.97
29.91
22.82
15.72
8.75
2.48
-2.23
-4.32
-2.98
2.02
10.11
20.04
30.28
39.56
47.37
53.97
60.23
67.00
74.73
83.13
91.38
98.59
104.36
109.04
113.66
119.39
127.04
136.60
147.31
158.02
167.72
175.94
182.96
189.64
197.04
206.39
218.90
235.68
257.29
283.04
310.46
335.37
352.88
358.87
351.51
331.74
302.76
268.55
232.54
196.70
161.67
127.30
93.37
59.70
25.97
-8.62
-45.50
-86.28
-131.82
-181.39
-232.20
-279.85
-319.43
-347.38
-362.79
-367.64
-365.83
-361.47
-357.46
-354.70
-352.55
-349.74
-345.35
-339.25
-331.84
-323.64
-314.85
-305.43
-295.16
-283.99
-271.69
-258.22
-243.70
-228.45
-212.76
-196.64
-179.80
-161.48
-141.09
-117.74
-91.24
-62.31
-32.26
-2.21
27.51
56.91
86.38
115.45
144.05
171.04
194.13
210.39
217.48
214.94
203.72
187.05
168.20
152.13
142.20
139.18
141.13
144.99
148.72
151.27
154.87
162.55
180.78
215.02
267.24
334.05
407.63
478.62
537.61
580.41
584.60
537.27
440.76
314.14
182.24
62.90
-28.88
-100.50
-158.88
-208.12
-246.92
-273.69
-287.78
-290.72
-285.86
-276.58
-266.87
-257.98
-251.05
-244.65
-237.32
-228.51
-219.17
-210.80
-203.82
-198.20
-191.66
-182.54
-169.12
-151.15
-129.81
-107.25
-85.45
-65.17
-46.73
-29.10
-11.60
6.66
26.51
48.65
73.33
100.20
128.21
155.45
180.41
201.93
220.05
235.71
250.23
264.62
279.64
296.19
315.45
338.58
365.39
393.07
416.17
428.07
423.34
399.91
359.68
307.25
247.63
184.28
118.69
51.38
-16.66
-83.31
-145.79
-202.15
-252.43
-298.72
-344.25
-392.15
-444.48
-501.63
-561.81
-620.93
-672.87
-710.60
-728.06
-722.16
-693.93
-648.13
-591.48
-530.45
-469.74
-412.06
-358.72
-310.58
-268.28
-231.66
-199.11
-167.25
-131.39
-86.82
-30.50
37.16
111.37
183.48
243.41
283.19
299.99
297.31
283.20
266.60
253.38
244.35
236.05
223.68
204.11
177.53
146.85
115.77
86.92
61.19
38.33
18.13
1.13
-11.42
-18.24
-18.97
-14.76
-7.90
-1.17
3.19
4.15
1.99
-2.11
-6.72
-10.82
-14.05
-16.71
-19.28
-22.03
-24.75
-26.72
-26.97
-24.74
-19.80
-12.58
-4.02
4.83
13.08
20.27
26.32
31.37
35.61
39.11
41.82
43.65
44.56
44.59
43.96
42.90
41.66
40.46
39.35
38.30
37.18
35.85
34.25
32.37
30.32
28.23
26.20
24.27
22.40
20.49
18.45
16.27
13.96
11.64
9.36
7.15
4.90
2.44
-0.43
-3.88
-7.96
-12.64
-17.77
-23.09
-28.22
-32.64
-35.72
-36.85
-35.63
-32.03
-26.45
-19.56
-12.08
-4.53
2.82
9.89
16.65
22.88
28.23
32.30
34.92
36.25
36.73
36.92
37.24
37.83
38.54
39.11
39.31
39.07
38.47
37.69
36.83
35.92
34.84
33.47
31.70
29.51
26.99
24.31
21.65
19.11
16.68
14.27
11.67
8.78
5.59
2.23
-1.11
-4.28
-7.33
-10.41
-13.83
-17.82
-22.49
-27.70
-33.06
-38.00
-41.81
-43.82
-43.57
-40.90
-36.07
-29.63
-22.28
-14.63
-7.05
0.27
7.31
13.94
19.97
25.12
29.21
32.21
34.26
35.63
36.56
37.17
37.46
37.42
37.08
36.54
35.95
35.42
34.99
34.57
33.99
33.03
31.57
29.60
27.27
24.83
22.51
20.45
18.60
16.83
14.92
12.72
10.21
7.48
4.67
1.94
-0.56
-2.82
-4.86
-6.85
-9.02
-11.66
-14.96
-18.97
-23.42
-27.83
-31.54
-33.91
-34.48
-33.05
-29.71
-24.80
-18.81
-12.28
-5.72
0.46
6.00
10.77
14.82
18.21
21.09
23.50
25.47
26.98
28.01
28.60
28.82
28.83
28.78
28.79
28.91
29.14
29.39
29.54
29.42
28.88
27.82
26.23
24.21
21.96
19.67
17.52
15.57
13.77
11.96
9.96
7.58
4.81
1.70
-1.53
-4.63
-7.43
-9.89
-12.20
-14.70
-17.73
-21.52
-25.97
-30.70
-35.02
-38.17
-39.45
-38.51
-35.36
-30.38
-24.20
-17.48
-10.79
-4.48
1.26
6.33
10.65
14.14
16.74
18.46
19.43
19.87
20.08
20.29
20.67
21.23
21.87
22.48
22.92
23.18
23.31
23.37
23.39
23.29
22.93
22.12
20.74
18.77
16.39
13.89
11.51
9.42
7.58
5.83
3.97
1.85
-0.53
-3.07
-5.62
-8.07
-10.42
-12.71
-15.02
-17.46
-20.13
-23.15
-26.61
-30.52
-34.66
-38.56
-41.52
-42.82
-41.97
-38.85
-33.80
-27.50
-20.68
-13.94
-7.61
-1.80
3.48
8.23
12.39
15.93
18.80
21.06
22.76
23.95
24.68
24.98
24.91
24.62
24.27
23.98
23.81
23.69
23.50
23.13
22.54
21.73
20.74
19.58
18.27
16.80
15.19
13.51
11.87
10.35
9.03
7.88
6.76
5.47
3.80
1.62
-1.12
-4.30
-7.75
-11.23
-14.58
-17.73
-20.74
-23.78
-27.06
-30.69
-34.63
-38.54
-41.88
-43.98
-44.25
-42.43
-38.62
-33.28
-27.05
-20.55
-14.23
-8.36
-3.04
1.68
5.72
8.99
11.44
13.12
14.21
14.91
15.43
15.89
16.31
16.64
16.81
16.86
16.84
16.86
17.00
17.27
17.60
17.89
18.04
17.93
17.46
16.57
15.25
13.62
11.85
10.10
8.53
7.09
5.61
3.83
1.56
-1.22
-4.36
-7.54
-10.49
-13.06
-15.30
-17.42
-19.73
-22.51
-25.92
-29.95
-34.32
-38.55
-42.00
-43.96
-43.88
-41.55
-37.13
-31.11
-24.13
-16.83
-9.71
-3.14
2.63
7.45
11.26
14.15
16.29
17.96
19.35
20.62
21.82
22.95
23.95
24.74
25.24
25.36
25.11
24.55
23.81
23.03
22.27
21.50
20.62
19.50
18.06
16.33
14.35
12.24
10.09
7.99
5.99
4.09
2.22
0.27
-1.87
-4.22
-6.70
-9.13
-11.35
-13.30
-15.06
-16.83
-18.94
-21.57
-24.82
-28.54
-32.37
-35.79
-38.22
-39.16
-38.28
-35.50
-31.07
-25.40
-19.00
-12.40
-6.02
-0.15
4.98
9.25
12.62
15.18
17.05
18.43
19.46
20.26
20.85
21.26
21.52
21.67
21.75
21.74
21.59
21.23
20.64
19.87
19.02
18.18
17.36
16.49
15.43
14.07
12.39
10.49
8.55
6.76
5.21
3.87
2.56
1.09
-0.70
-2.78
-5.02
-7.19
-9.13
-10.81
-12.36
-14.01
-15.96
-18.35
-21.14
-24.25
-27.47
-30.53
-33.07
-34.60
-34.61
-32.76
-28.98
-23.62
-17.35
-10.95
-5.08
-0.11
3.92
7.17
9.83
12.03
13.79
15.13
16.09
16.76
17.27
17.72
18.17
18.59
18.95
19.19
19.32
19.36
19.33
19.24
19.06
18.73
18.18
17.36
16.23
14.80
13.18
11.49
9.92
8.59
7.54
6.63
5.61
4.26
2.48
0.33
-1.94
-4.01
-5.74
-7.13
-8.42
-9.83
-11.57
-13.71
-16.22
-19.06
-22.18
-25.46
-28.59
-31.12
-32.43
-32.03
-29.72
-25.68
-20.52
-14.96
-9.69
-5.09
-1.27
1.93
4.65
6.95
8.80
10.09
10.83
11.10
11.16
11.21
11.39
11.68
12.02
12.33
12.57
12.77
12.95
13.11
13.18
13.09
12.80
12.26
11.46
10.39
9.06
7.54
5.92
4.35
2.92
1.71
0.65
-0.32
-1.34
-2.47
-3.73
-5.09
-6.51
-8.04
-9.72
-11.69
-13.95
-16.51
-19.22
-21.90
-24.31
-26.22
-27.35
-27.40
-26.17
-23.53
-19.61
-14.79
-9.56
-4.50
-0.07
3.42
5.87
7.32
7.89
7.82
7.36
6.80
6.39
6.36
6.80
7.72
9.01
10.50
11.93
13.09
13.79
13.97
13.71
13.15
12.45
11.68
10.78
9.58
7.90
5.65
2.89
-0.20
-3.40
-6.52
-9.50
-12.41
-15.41
-18.65
-22.24
-26.19
-30.44
-34.85
-39.25
-43.34
-46.76
-49.05
-49.85
-48.96
-46.48
-42.78
-38.37
-33.75
-29.29
-25.24
-21.80
-19.24
-17.90
-18.03
-19.64
-22.36
-25.50
-28.22
-29.74
-29.61
-27.77
-24.51
-20.33
-15.72
-10.96
-6.05
-0.68
5.57
13.05
21.88
31.79
42.12
51.97
60.39
66.51
69.76
69.88
67.05
61.73
54.63
46.49
37.95
29.41
21.03
12.72
4.30
-4.44
-13.50
-22.58
-31.06
-38.07
-42.71
-44.35
-42.85
-38.66
-32.74
-26.29
-20.41
-15.76
-12.48
-10.21
-8.27
-5.97
-2.73
1.74
7.46
14.22
21.60
29.07
36.09
42.22
47.27
51.30
54.46
56.78
57.95
57.39
54.59
49.46
42.66
35.44
29.18
24.87
22.69
22.12
22.25
22.28
21.80
20.81
19.52
18.12
16.54
14.55
11.81
8.11
3.59
-1.23
-5.37
-7.74
-7.49
-4.36
1.08
7.65
13.96
18.94
22.26
24.44
26.63
30.03
35.45
42.86
51.26
58.79
63.13
61.90
53.35
36.91
13.58
-13.90
-41.40
-64.27
-78.58
-82.37
-76.34
-63.54
-48.19
-34.11
-23.49
-16.59
-12.31
-9.32
-6.93
-5.28
-4.95
-6.29
-8.90
-11.69
-13.46
-13.26
-10.78
-6.25
-0.17
7.00
14.91
23.32
31.81
39.61
45.62
48.65
48.01
43.92
37.71
31.30
26.56
24.52
25.03
26.94
28.76
29.38
28.45
26.40
24.05
22.14
21.00
20.49
20.11
19.18
17.23
14.16
10.23
6.00
1.96
-1.64
-5.04
-8.88
-14.32
-22.49
-33.97
-48.30
-63.62
-76.59
-82.69
-77.74
-59.15
-28.02
10.85
49.94
81.04
97.55
95.99
76.81
43.02
-0.30
-48.01
-94.39
-133.24
-158.42
-165.33
-152.94
-124.08
-86.09
-47.51
-16.67
1.56
6.55
0.88
-11.40
-26.89
-42.91
-58.89
-65.15
-53.58
-21.00
27.92
83.05
135.18
174.22
202.28
222.59
237.55
246.76
248.48
243.42
232.25
216.75
199.04
181.73
165.46
150.06
133.72
114.44
90.99
63.30
32.81
1.54
-28.05
-55.15
-79.70
-102.89
-126.28
-151.31
-179.25
-210.53
-244.50
-278.52
-308.64
-329.61
-336.63
-326.94
-301.00
-262.57
-217.15
-170.25
-125.55
-84.86
-48.29
-15.28
14.59
41.53
65.72
87.65
108.09
127.75
146.61
163.99
178.81
190.06
197.50
201.97
205.26
209.24
214.84
221.05
224.89
222.11
208.73
182.43
143.29
93.72
37.62
-20.56
-76.53
-126.54
-167.66
-198.06
-217.28
-226.45
-227.78
-223.88
-216.81
-207.62
-196.51
-183.45
-168.80
-153.52
-138.96
-126.25
-115.92
-107.78
-101.24
-95.68
-90.75
-86.38
-82.62
-79.53
-77.15
-75.69
-75.56
-77.27
-81.15
-86.94
-93.70
-100.03
-104.66
-106.89
-106.74
-104.71
-101.22
-96.30
-89.55
-80.56
-69.47
-57.28
-45.79
-37.01
-32.52
-32.88
-37.60
-45.30
-54.28
-62.92
-69.91
-74.33
-75.66
-73.70
-68.63
-60.96
-51.57
-41.49
-31.67
-22.71
-14.70
-7.17
0.62
9.31
19.14
29.81
40.68
51.13
60.92
70.28
79.73
89.65
100.01
110.34
119.93
128.24
135.05
140.47
144.56
147.04
147.22
144.27
137.80
128.29
117.10
106.06
96.71
89.68
84.53
80.20
75.64
70.43
64.92
59.85
55.88
53.17
51.31
49.66
47.64
44.98
41.66
37.80
33.53
28.91
23.91
18.43
12.31
5.35
-2.65
-11.69
-21.51
-31.62
-41.30
-49.85
-56.76
-61.79
-64.98
-66.51
-66.59
-65.34
-62.84
-59.17
-54.40
-48.69
-42.25
-35.44
-28.75
-22.75
-17.95
-14.60
-12.55
-11.19
-9.57
-6.75
-2.17
4.15
11.58
19.16
25.98
31.50
35.58
38.35
39.96
40.41
39.52
37.04
32.88
27.32
20.92
14.48
8.77
4.29
1.18
-0.80
-2.12
-3.20
-4.28
-5.22
-5.67
-5.23
-3.77
-1.52
1.00
3.21
4.80
5.83
6.75
8.08
10.20
13.21
16.83
20.64
24.17
27.00
28.78
29.15
27.90
24.97
20.68
15.70
10.96
7.39
5.67
5.99
8.06
11.26
14.83
18.11
20.68
22.35
23.18
23.33
22.97
22.22
21.09
19.56
17.59
15.15
12.25
8.89
5.02
0.72
-3.84
-8.28
-12.14
-14.98
-16.67
-17.41
-17.72
-18.23
-19.40
-21.38
-24.01
-26.95
-29.78
-32.10
-33.60
-33.89
-32.61
-29.46
-24.29
-17.32
-9.05
-0.28
8.27
16.08
23.08
29.54
35.90
42.51
49.42
56.41
63.22
69.69
75.92
82.09
88.30
94.42
100.19
105.48
110.46
115.66
121.72
128.90
136.99
145.18
152.43
157.89
161.17
162.36
161.76
159.52
155.52
149.51
141.56
132.36
123.44
116.93
114.94
118.75
128.01
140.50
152.62
160.46
161.23
154.22
141.06
124.88
109.03
95.90
86.26
79.61
74.91
71.45
69.20
68.53
69.68
72.29
75.35
77.54
77.70
75.35
70.74
64.74
58.33
52.09
46.03
39.46
31.33
20.64
6.75
-10.51
-30.85
-53.56
-77.44
-100.68
-121.05
-136.46
-145.79
-149.54
-149.78
-149.37
-150.69
-154.55
-159.87
-164.31
-165.46
-162.00
-154.24
-143.88
-133.35
-124.90
-120.17
-120.05
-124.63
-133.30
-144.71
-157.01
-168.06
-176.03
-179.71
-178.80
-173.67
-164.96
-153.26
-139.06
-122.96
-105.96
-89.53
-75.16
-63.77
-55.26
-48.66
-42.79
-37.20
-32.64
-30.80
-33.39
-41.07
-53.03
-67.25
-81.56
-94.61
-106.24
-117.04
-127.41
-136.97
-144.59
-149.11
-150.09
-147.99
-143.45
-136.37
-125.48
-108.80
-84.95
-54.29
-19.32
16.06
47.90
73.43
91.58
102.79
108.41
110.09
109.39
107.53
105.25
102.62
99.29
94.88
89.46
84.03
80.16
79.35
82.08
87.24
92.17
93.35
87.56
72.97
49.65
19.55
-14.19
-48.06
-78.95
-104.45
-122.83
-132.99
-134.49
-127.79
-114.51
-97.24
-79.10
-62.94
-50.70
-43.05
-39.49
-38.73
-39.10
-38.90
-36.67
-31.56
-23.74
-14.59
-6.52
-2.26
-3.88
-12.08
-25.91
-43.25
-61.60
-78.65
-92.61
-102.15
-106.36
-104.93
-98.37
-88.17
-76.61
-66.09
-58.35
-53.91
-51.98
-50.97
-49.16
-45.26
-38.77
-29.92
-19.37
-7.92
3.82
15.39
26.49
36.74
45.55
52.04
55.30
54.82
50.93
44.89
38.80
34.77
34.07
36.52
40.44
43.27
42.60
37.21
27.28
14.10
-0.79
-16.32
-31.98
-47.25
-60.89
-70.81
-74.69
-71.36
-61.77
-49.08
-37.40
-30.17
-28.85
-32.68
-39.50
-47.03
-53.61
-58.30
-60.34
-58.72
-52.28
-40.31
-23.11
-2.05
20.90
43.93
65.71
85.16
101.00
111.56
115.30
111.65
101.85
88.95
76.98
69.63
69.24
76.55
91.08
111.45
135.48
159.77
179.71
190.24
187.33
169.72
139.66
102.16
63.19
27.74
-1.26
-22.93
-37.57
-46.03
-49.53
-49.81
-49.23
-50.20
-54.45
-62.31
-72.86
-84.50
-95.88
-106.23
-115.35
-123.19
-129.54
-134.16
-136.98
-138.01
-137.19
-134.09
-127.96
-118.05
-104.47
-88.73
-73.84
-63.49
-60.63
-66.01
-77.62
-91.32
-102.31
-107.07
-104.53
-96.02
-84.24
-71.73
-60.00
-49.51
-40.33
-32.89
-28.10
-26.80
-28.99
-33.68
-39.44
-45.25
-51.10
-57.89
-66.60
-77.38
-88.92
-98.82
-104.45
-104.12
-97.74
-86.78
-73.52
-60.11
-47.89
-37.16
-27.63
-19.11
-11.88
-6.66
-4.16
-4.72
-8.13
-13.92
-21.59
-30.76
-40.96
-51.40
-60.84
-67.92
-71.74
-72.21
-70.21
-67.15
-64.44
-63.03
-63.12
-64.26
-65.54
-65.89
-64.33
-60.16
-53.09
-43.20
-30.86
-16.50
-0.44
17.24
36.66
58.05
81.83
108.49
138.40
171.37
206.19
240.47
271.05
294.86
309.96
316.11
314.53
307.04
295.09
279.24
259.45
235.78
209.12
181.38
154.83
131.24
111.12
93.71
77.54
61.33
44.56
27.56
11.07
-4.38
-18.74
-32.37
-45.53
-57.98
-68.97
-77.51
-83.06
-85.96
-87.46
-89.36
-93.29
-100.25
-110.31
-122.65
-135.83
-148.05
-157.55
-162.82
-162.95
-157.67
-147.41
-133.03
-115.66
-96.41
-76.20
-55.63
-34.89
-13.76
8.08
30.78
53.93
76.60
97.49
115.49
130.04
141.20
149.43
155.09
158.18
158.39
155.41
149.25
140.39
129.60
117.72
105.41
93.14
81.26
70.15
60.12
51.45
44.20
38.23
33.17
28.50
23.64
18.12
11.89
5.25
-1.07
-6.34
-10.05
-12.22
-13.40
-14.46
-16.25
-19.30
-23.72
-29.17
-34.94
-40.12
-43.77
-45.19
-44.05
-40.54
-35.17
-28.60
-21.37
-13.85
-6.33
0.85
7.30
12.69
17.02
20.73
24.71
30.09
37.87
48.44
61.41
75.51
88.82
99.23
104.84
104.41
97.69
85.45
69.49
52.24
36.32
23.87
15.98
12.34
11.37
10.82
8.64
3.83
-3.22
-10.99
-17.57
-21.45
-22.05
-19.75
-15.61
-10.83
-6.38
-2.88
-0.64
0.17
-0.56
-2.87
-6.52
-10.85
-14.78
-16.96
-16.20
-11.85
-4.09
6.15
17.53
28.82
39.23
48.68
57.47
65.92
74.01
81.26
86.96
90.48
91.56
90.33
87.16
82.45
76.61
70.09
63.46
57.42
52.51
49.02
46.86
45.79
45.57
46.05
46.95
47.58
46.79
43.22
36.02
25.41
12.72
-0.01
-10.91
-19.00
-24.37
-27.85
-30.39
-32.55
-34.27
-35.15
-34.73
-32.86
-29.71
-25.64
-21.01
-16.05
-10.88
-5.59
-0.32
4.84
9.96
15.41
21.81
29.71
39.23
49.75
60.01
68.56
74.53
78.06
80.42
83.55
89.22
98.31
110.40
123.76
135.77
143.67
145.41
140.43
130.07
117.33
106.08
99.63
99.68
105.69
115.30
125.39
133.26
137.48
137.94
135.40
130.81
124.88
117.97
110.25
101.85
92.79
82.91
71.67
58.20
41.60
21.33
-2.45
-28.74
-55.91
-82.13
-105.85
-126.12
-142.67
-155.77
-165.98
-173.91
-180.12
-184.96
-188.56
-190.79
-191.08
-188.60
-182.46
-172.18
-158.21
-142.15
-126.49
-113.58
-104.48
-97.89
-90.01
-75.55
-49.37
-7.92
49.98
123.01
207.41
296.98
383.19
456.01
505.86
526.32
516.28
480.46
427.73
367.87
308.47
253.34
202.98
156.31
112.43
71.36
33.72
-0.06
-30.28
-57.82
-83.59
-108.10
-131.36
-153.10
-173.42
-193.00
-212.79
-233.34
-254.04
-272.87
-287.05
-294.13
-293.12
-285.03
-272.42
-258.35
-245.14
-233.71
-223.70
-214.03
-203.67
-192.12
-179.56
-166.61
-154.21
-143.27
-134.58
-128.64
-125.56
-125.04
-126.28
-128.16
-129.37
-128.77
-125.62
-119.87
-112.04
-102.99
-93.52
-84.01
-74.37
-64.17
-53.09
-41.20
-29.18
-18.00
-8.55
-1.26
4.05
8.01
11.32
14.36
17.12
19.28
20.48
20.66
19.98
18.84
17.54
16.22
14.83
13.33
11.78
10.43
9.58
9.41
9.89
10.79
11.78
12.52
12.78
12.43
11.41
9.79
7.69
5.40
3.22
1.43
0.20
-0.48
-0.79
-0.95
-1.12
-1.31
-1.41
-1.24
-0.63
0.46
1.96
3.65
5.19
6.31
6.76
6.51
5.67
4.48
3.25
2.18
1.36
0.72
0.16
-0.43
-1.08
-1.69
-2.16
-2.43
-2.57
-2.69
-2.90
-3.29
-3.82
-4.47
-5.27
-6.30
-7.69
-9.51
-11.69
-14.04
-16.27
-18.18
-19.69
-20.84
-21.76
-22.59
-23.46
-24.47
-25.67
-27.10
-28.70
-30.38
-31.98
-33.34
-34.41
-35.15
-35.58
-35.67
-35.32
-34.39
-32.72
-30.19
-26.77
-22.54
-17.68
-12.51
-7.39
-2.71
1.30
4.65
7.70
11.02
15.21
20.71
27.60
35.57
43.93
51.84
58.40
62.84
64.68
63.81
60.63
55.91
50.67
45.92
42.45
40.65
40.57
41.97
44.39
47.26
49.96
52.05
53.37
54.23
55.36
57.68
61.96
68.40
76.56
85.34
93.43
99.60
102.97
103.09
99.81
93.11
83.01
69.48
52.64
32.82
10.69
-12.70
-35.90
-57.23
-74.91
-87.38
-93.69
-93.78
-88.57
-79.71
-69.20
-58.85
-49.98
-43.23
-38.78
-36.41
-35.71
-36.20
-37.33
-38.59
-39.57
-40.10
-40.23
-40.15
-40.06
-40.07
-40.15
-40.11
-39.76
-38.92
-37.56
-35.71
-33.56
-31.32
-29.18
-27.30
-25.70
-24.37
-23.22
-22.13
-20.92
-19.41
-17.46
-15.05
-12.29
-9.39
-6.59
-3.98
-1.48
1.03
3.65
6.28
8.65
10.40
11.31
11.42
10.98
10.38
9.86
9.46
9.05
8.49
7.77
7.02
6.45
6.17
6.11
6.00
5.55
4.59
3.20
1.58
-0.00
-1.36
-2.48
-3.46
-4.45
-5.52
-6.59
-7.52
-8.07
-8.15
-7.80
-7.16
-6.39
-5.59
-4.74
-3.75
-2.60
-1.37
-0.26
0.52
0.84
0.72
0.30
-0.21
-0.62
-0.81
-0.74
-0.42
0.14
0.89
1.78
2.70
3.50
4.05
4.24
4.04
3.52
2.89
2.35
2.00
1.83
1.71
1.54
1.32
1.21
1.39
2.00
2.98
4.06
4.90
5.23
5.00
4.35
3.54
2.81
2.23
1.80
1.41
1.00
0.50
-0.06
-0.66
-1.27
-1.83
-2.27
-2.56
-2.72
-2.80
-2.95
-3.24
-3.66
-4.09
-4.33
-4.21
-3.68
-2.87
-1.97
-1.17
-0.61
-0.31
-0.26
-0.40
-0.72
-1.17
-1.68
-2.12
-2.41
-2.47
-2.31
-2.05
-1.78
-1.55
-1.32
-0.94
-0.31
0.61
1.72
2.83
3.70
4.19
4.26
4.04
3.73
3.50
3.45
3.49
3.52
3.40
3.12
2.71
2.27
1.83
1.34
0.74
-0.00
-0.82
-1.54
-2.03
-2.29
-2.48
-2.86
-3.60
-4.68
-5.83
-6.64
-6.79
-6.16
-4.89
-3.32
-1.73
-0.29
1.05
2.35
3.63
4.79
5.55
5.77
5.44
4.79
4.16
3.83
3.90
4.25
4.68
4.95
4.94
4.63
4.09
3.43
2.76
2.22
1.85
1.68
1.64
1.63
1.56
1.37
1.04
0.56
-0.07
-0.87
-1.75
-2.53
-3.06
-3.23
-3.11
-2.91
-2.87
-3.18
-3.86
-4.83
-5.91
-6.96
-7.80
-8.32
-8.38
-7.87
-6.76
-5.17
-3.33
-1.48
0.14
1.43
2.35
2.92
3.22
3.37
3.51
3.76
4.15
4.57
4.81
4.66
4.04
3.10
2.16
1.53
1.39
1.68
2.17
2.58
2.78
2.75
2.60
2.44
2.28
2.09
1.80
1.37
0.86
0.37
-0.01
-0.24
-0.36
-0.45
-0.57
-0.73
-0.89
-0.93
-0.80
-0.50
-0.13
0.14
0.15
-0.20
-0.87
-1.74
-2.56
-3.14
-3.26
-2.80
-1.75
-0.24
1.49
3.13
4.43
5.26
5.59
5.48
5.04
4.38
3.63
2.86
2.14
1.47
0.81
0.09
-0.74
-1.66
-2.59
-3.39
-3.93
-4.10
-3.86
-3.27
-2.46
-1.67
-1.05
-0.70
-0.51
-0.28
0.14
0.83
1.66
2.40
2.85
2.97
2.87
2.68
2.47
2.19
1.69
0.88
-0.15
-1.16
-1.88
-2.18
-2.13
-1.95
-1.88
-2.05
-2.37
-2.65
-2.64
-2.19
-1.27
0.02
1.50
2.99
4.31
5.30
5.84
5.87
5.42
4.57
3.40
2.08
0.68
-0.63
-1.74
-2.50
-2.79
-2.63
-2.14
-1.55
-1.05
-0.70
-0.37
0.12
0.93
2.07
3.31
4.33
4.87
4.81
4.23
3.37
2.45
1.65
1.04
0.63
0.39
0.29
0.27
0.26
0.21
0.06
-0.21
-0.57
-1.01
-1.46
-1.89
-2.25
-2.52
-2.69
-2.81
-2.96
-3.20
-3.55
-3.90
-4.02
-3.69
-2.75
-1.28
0.46
2.02
3.03
3.34
3.07
2.53
2.03
1.72
1.56
1.40
1.17
0.94
0.85
1.04
1.51
2.07
2.49
2.59
2.42
2.14
2.01
2.13
2.46
2.81
2.97
2.79
2.27
1.49
0.57
-0.35
-1.17
-1.77
-2.04
-1.94
-1.45
-0.64
0.34
1.29
1.98
2.23
1.96
1.28
0.39
-0.37
-0.71
-0.44
0.41
1.68
3.13
4.50
5.61
6.32
6.56
6.29
5.54
4.38
2.92
1.38
-0.03
-1.04
-1.48
-1.36
-0.94
-0.64
-0.81
-1.60
-2.79
-3.91
-4.45
-4.16
-3.13
-1.71
-0.38
0.55
0.97
0.99
0.80
0.60
0.49
0.52
0.73
1.03
1.36
1.61
1.70
1.63
1.41
1.13
0.83
0.59
0.38
0.18
-0.10
-0.49
-0.98
-1.52
-2.02
-2.38
-2.48
-2.29
-1.81
-1.15
-0.47
0.08
0.36
0.41
0.34
0.37
0.61
1.11
1.78
2.42
2.92
3.26
3.54
3.90
4.41
4.99
5.44
5.52
5.06
4.07
2.72
1.30
0.09
-0.74
-1.19
-1.43
-1.67
-2.08
-2.72
-3.51
-4.29
-4.87
-5.11
-4.89
-4.19
-2.97
-1.27
0.82
3.16
5.53
7.60
9.01
9.46
8.81
7.23
5.19
3.29
2.06
1.70
2.04
2.51
2.40
1.07
-1.79
-6.04
-11.07
-15.93
-19.68
-21.63
-21.63
-20.04
-17.65
-15.29
-13.59
-12.87
-13.14
-14.33
-16.29
-18.89
-21.93
-25.07
-27.91
-30.10
-31.44
-32.01
-32.15
-32.30
-32.85
-33.94
-35.38
-36.61
-36.79
-35.11
-30.95
-24.26
-15.55
-5.77
3.99
12.82
20.29
26.39
31.33
35.39
38.61
40.88
41.91
41.49
39.55
36.31
32.27
28.14
24.83
23.20
23.86
26.92
31.94
38.04
44.09
49.07
52.16
52.94
51.30
47.40
41.63
34.58
27.01
19.72
13.36
8.38
4.83
2.54
1.19
0.41
-0.08
-0.53
-1.15
-2.09
-3.51
-5.49
-7.97
-10.77
-13.55
-15.87
-17.29
-17.50
-16.37
-14.07
-10.94
-7.45
-4.03
-0.90
1.90
4.42
6.73
8.82
10.62
11.99
12.93
13.57
14.21
15.18
16.77
19.03
21.72
24.30
26.07
26.30
24.49
20.43
14.30
6.61
-1.89
-10.33
-17.77
-23.34
-26.44
-26.85
-24.83
-21.08
-16.58
-12.32
-9.04
-7.07
-6.34
-6.55
-7.23
-7.98
-8.51
-8.69
-8.57
-8.29
-8.14
-8.33
-9.06
-10.30
-11.93
-13.68
-15.25
-16.36
-16.82
-16.51
-15.43
-13.67
-11.39
-8.87
-6.39
-4.24
-2.63
-1.68
-1.35
-1.48
-1.88
-2.30
-2.53
-2.38
-1.70
-0.48
1.17
2.98
4.60
5.75
6.29
6.30
6.00
5.64
5.39
5.33
5.44
5.72
6.21
7.02
8.28
10.07
12.39
15.13
18.01
20.70
22.87
24.22
24.65
24.21
23.09
21.58
19.95
18.34
16.84
15.50
14.37
13.50
12.93
12.57
12.31
11.99
11.58
11.21
11.22
11.95
13.66
16.43
20.10
24.34
28.72
32.78
36.05
38.06
38.49
37.35
35.12
32.72
31.27
31.50
33.33
35.65
36.59
34.24
27.39
16.08
1.59
-14.02
-28.66
-40.84
-49.90
-56.07
-60.07
-62.95
-65.72
-69.13
-73.41
-78.15
-82.35
-84.74
-84.27
-80.48
-73.72
-64.90
-55.08
-45.04
-35.03
-24.96
-14.61
-3.95
6.70
16.73
25.33
31.70
35.19
35.46
32.50
26.76
19.07
10.59
2.64
-3.50
-6.83
-6.83
-3.60
2.17
9.37
16.62
22.70
26.66
27.95
26.41
22.15
15.60
7.42
-1.45
-9.95
-17.10
-22.26
-25.27
-26.52
-26.71
-26.55
-26.52
-26.65
-26.65
-26.12
-24.83
-22.86
-20.63
-18.71
-17.61
-17.53
-18.29
-19.36
-20.19
-20.33
-19.65
-18.25
-16.36
-14.18
-11.82
-9.42
-7.20
-5.44
-4.42
-4.20
-4.59
-5.17
-5.52
-5.40
-4.88
-4.26
-3.90
-4.01
-4.58
-5.39
-6.13
-6.54
-6.46
-5.89
-4.96
-3.91
-3.07
-2.75
-3.27
-4.80
-7.42
-11.03
-15.41
-20.14
-24.79
-28.87
-32.08
-34.37
-36.02
-37.54
-39.48
-42.20
-45.75
-49.93
-54.43
-58.96
-63.31
-67.33
-70.83
-73.59
-75.44
-76.35
-76.43
-75.88
-74.72
-72.66
-69.02
-62.96
-53.73
-41.05
-25.28
-7.32
11.71
31.02
50.53
71.05
94.00
120.74
151.67
185.57
219.57
249.65
271.74
282.88
281.99
269.88
248.88
222.08
192.58
163.07
135.52
111.10
89.96
71.29
53.59
35.40
16.02
-3.95
-22.71
-37.97
-47.90
-51.92
-50.80
-46.23
-40.08
-33.80
-28.20
-23.62
-20.29
-18.41
-18.16
-19.44
-21.83
-24.56
-26.90
-28.47
-29.36
-30.03
-31.01
-32.48
-34.21
-35.65
-36.30
-35.93
-34.74
-33.22
-31.88
-31.14
-31.16
-31.92
-33.23
-34.79
-36.24
-37.24
-37.50
-36.97
-35.74
-33.99
-31.92
-29.66
-27.29
-24.97
-22.84
-21.08
-19.77
-18.83
-18.12
-17.47
-16.76
-15.90
-14.87
-13.70
-12.51
-11.48
-10.82
-10.63
-10.80
-11.12
-11.31
-11.22
-10.91
-10.56
-10.34
-10.24
-10.04
-9.53
-8.67
-7.64
-6.85
-6.55
-6.77
-7.16
-7.27
-6.76
-5.58
-4.01
-2.42
-1.09
-0.05
0.87
1.89
3.01
4.02
4.59
4.45
3.66
2.53
1.60
1.32
1.89
3.15
4.67
6.00
6.79
6.94
6.54
5.74
4.65
3.33
1.84
0.33
-0.96
-1.76
-1.96
-1.61
-0.95
-0.23
0.44
1.16
2.12
3.47
5.11
6.64
7.62
7.70
6.89
5.48
3.90
2.44
1.17
0.01
-1.12
-2.17
-3.01
-3.46
-3.45
-3.02
-2.28
-1.29
-0.04
1.44
3.06
4.56
5.65
6.12
5.97
5.42
4.72
4.07
3.47
2.82
2.07
1.25
0.54
0.08
-0.12
-0.20
-0.43
-1.05
-2.07
-3.32
-4.53
-5.46
-6.00
-6.23
-6.32
-6.40
-6.49
-6.51
-6.26
-5.61
-4.53
-3.09
-1.47
0.14
1.60
2.84
3.81
4.49
4.81
4.63
3.88
2.57
0.86
-0.97
-2.66
-4.04
-5.05
-5.78
-6.27
-6.56
-6.60
-6.35
-5.84
-5.17
-4.48
-3.89
-3.41
-3.02
-2.68
-2.35
-2.05
-1.79
-1.62
-1.61
-1.84
-2.47
-3.52
-4.93
-6.47
-7.83
-8.68
-8.84
-8.24
-6.95
-5.13
-2.99
-0.84
0.99
2.22
2.74
2.70
2.47
2.45
2.90
3.81
4.86
5.63
5.78
5.20
4.08
2.74
1.51
0.55
-0.19
-0.87
-1.70
-2.69
-3.71
-4.55
-5.06
-5.25
-5.38
-5.80
-6.81
-8.56
-10.95
-13.73
-16.56
-19.04
-20.82
-21.60
-21.17
-19.50
-16.77
-13.36
-9.77
-6.44
-3.66
-1.52
0.19
1.74
3.48
5.65
8.34
11.48
14.87
18.43
22.11
26.01
30.12
34.30
38.16
41.16
42.81
42.88
41.49
39.04
36.05
32.85
29.47
25.60
20.81
14.72
7.36
-0.76
-8.79
-15.85
-21.33
-25.14
-27.67
-29.54
-31.28
-33.19
-35.30
-37.49
-39.64
-41.75
-43.89
-46.13
-48.41
-50.61
-52.60
-54.42
-56.38
-58.98
-62.73
-67.99
-74.73
-82.58
-90.90
-99.10
-106.57
-112.74
-116.73
-117.14
-112.11
-99.67
-78.52
-48.65
-11.65
29.61
71.76
111.83
147.80
178.63
203.82
222.94
235.42
240.78
239.02
230.94
217.90
201.41
182.58
161.96
139.83
116.65
93.40
71.44
52.09
36.11
23.46
13.48
5.27
-1.84
-8.20
-13.88
-18.84
-23.07
-26.46
-28.72
-29.38
-27.95
-24.20
-18.41
-11.30
-3.92
2.76
8.00
11.50
13.31
13.51
12.23
9.51
5.44
0.38
-5.12
-10.30
-14.61
-17.95
-20.86
-24.32
-29.47
-36.99
-46.88
-58.35
-70.02
-80.38
-88.09
-92.41
-93.24
-91.07
-86.83
-81.52
-75.98
-70.74
-66.08
-62.11
-58.92
-56.54
-54.86
-53.52
-51.98
-49.76
-46.70
-43.15
-39.86
-37.62
-36.84
-37.42
-38.70
-39.91
-40.56
-40.71
-41.06
-42.57
-46.15
-52.24
-60.62
-70.43
-80.34
-88.84
-94.68
-97.20
-96.58
-93.80
-90.30
-87.29
-85.15
-83.15
-79.69
-73.04
-62.19
-47.37
-30.09
-12.44
3.75
17.55
29.04
38.87
47.64
55.47
61.95
66.56
69.07
69.81
69.50
68.92
68.38
67.68
66.21
63.29
58.61
52.42
45.43
38.54
32.47
27.52
23.48
19.77
15.69
10.65
4.36
-3.24
-12.04
-21.77
-31.96
-41.68
-49.54
-53.90
-53.32
-47.17
-36.07
-21.79
-6.73
6.94
17.92
25.98
31.73
36.09
39.77
43.12
46.28
49.34
52.46
55.72
59.03
61.98
64.05
64.81
64.21
62.58
60.50
58.47
56.71
55.09
53.28
50.98
48.07
44.65
40.96
37.19
33.45
29.64
25.68
21.43
16.84
11.95
6.85
1.65
-3.49
-8.45
-13.14
-17.64
-22.23
-27.43
-33.68
-41.07
-48.94
-55.87
-60.04
-59.88
-54.71
-45.07
-32.53
-19.01
-6.10
5.36
15.25
23.80
31.11
37.04
41.29
43.78
44.81
45.06
45.25
45.89
46.99
48.20
49.03
49.12
48.49
47.40
46.30
45.48
45.04
44.74
44.21
43.04
41.07
38.38
35.29
32.29
29.79
28.02
26.91
26.08
25.01
23.18
20.30
16.56
12.62
9.46
8.01
8.62
10.72
12.79
12.74
8.67
-0.50
-14.50
-31.75
-49.73
-65.59
-76.83
-81.90
-80.35
-72.99
-61.56
-48.20
-34.94
-23.09
-13.17
-5.01
1.83
7.69
12.59
16.35
18.82
20.07
20.45
20.48
20.61
21.09
21.89
22.80
23.53
23.96
24.13
24.24
24.44
24.76
24.93
24.46
22.90
20.09
16.32
12.29
8.83
6.54
5.54
5.36
5.18
4.14
1.73
-1.97
-6.39
-10.67
-14.09
-16.33
-17.56
-18.39
-19.62
-21.99
-25.98
-31.62
-38.36
-44.95
-49.62
-50.49
-46.23
-36.60
-22.75
-6.92
8.33
20.86
29.65
34.81
37.30
38.48
39.52
41.11
43.31
45.62
47.27
47.63
46.51
44.20
41.29
38.28
35.33
32.20
28.60
24.48
20.17
16.25
13.12
10.79
8.74
6.27
2.87
-1.50
-6.39
-11.10
-15.00
-17.78
-19.59
-20.93
-22.38
-24.39
-27.02
-29.93
-32.60
-34.52
-35.58
-36.09
-36.75
-38.28
-41.14
-45.22
-49.81
-53.77
-55.82
-54.96
-50.67
-43.08
-32.86
-21.08
-8.91
2.56
12.45
20.23
25.69
29.00
30.59
31.03
30.91
30.62
30.34
30.04
29.67
29.21
28.68
28.07
27.32
26.30
24.90
23.18
21.34
19.62
18.12
16.77
15.38
13.71
11.69
9.46
7.20
5.08
3.13
1.31
-0.47
-2.23
-3.96
-5.65
-7.26
-8.70
-9.90
-10.84
-11.65
-12.60
-14.04
-16.29
-19.20
-22.13
-23.92
-23.25
-18.99
-10.54
1.98
17.83
35.60
53.73
70.86
85.97
98.38
107.77
114.34
118.76
122.15
125.52
129.95
136.41
145.45
156.60
168.32
178.36
184.31
184.34
177.00
162.03
140.24
112.92
80.84
43.97
2.02
-45.10
-96.55
-151.32
-207.32
-261.34
-309.49
-348.31
-375.58
-390.61
-394.69
-385.65
-364.86
-337.86
-311.75
-290.93
-275.91
-265.67
-257.40
-249.45
-240.84
-231.50
-220.78
-207.99
-192.07
-172.47
-149.45
-123.77
-96.65
-69.22
-42.98
-19.08
1.98
20.22
35.69
48.20
57.73
64.25
68.03
69.14
67.95
65.29
62.33
60.19
59.92
62.94
70.63
84.00
102.71
124.85
147.14
165.72
177.12
179.33
172.85
159.89
143.51
126.55
111.29
99.19
90.88
85.71
81.71
77.14
69.81
57.79
40.42
19.18
-2.16
-18.64
-25.95
-22.10
-5.33
22.93
58.13
93.76
123.68
144.22
154.69
156.58
152.12
147.92
149.17
157.85
172.59
190.46
209.19
228.08
247.52
267.95
295.75
335.43
387.03
445.37
502.32
550.25
584.23
602.21
572.61
480.69
332.86
156.73
-14.55
-159.09
-270.56
-352.99
-410.63
-454.58
-485.68
-501.98
-502.73
-490.67
-470.92
-448.52
-425.95
-404.86
-386.59
-367.01
-343.31
-315.97
-288.70
-265.57
-247.73
-232.48
-215.35
-193.48
-164.37
-130.20
-96.72
-70.28
-54.11
-46.74
-43.25
-38.51
-29.96
-16.51
0.75
20.15
40.73
62.79
87.08
113.87
142.17
170.05
195.94
219.30
241.02
263.32
289.29
321.53
361.71
409.89
463.79
517.79
564.57
596.92
609.71
601.70
574.01
530.25
475.39
413.79
346.51
273.88
197.13
119.34
45.86
-20.64
-79.32
-130.65
-176.34
-221.20
-268.36
-317.38
-364.40
-402.32
-429.01
-445.14
-452.78
-455.20
-459.24
-469.57
-486.42
-505.56
-518.38
-522.16
-517.16
-505.12
-462.80
-378.70
-259.08
-126.48
-22.48
52.41
105.28
141.85
170.25
191.92
202.29
197.26
175.97
141.70
102.99
64.55
30.60
5.77
-6.67
-8.25
-2.28
7.75
19.64
34.35
50.03
65.26
80.11
95.00
108.49
118.76
124.12
123.71
118.70
108.73
94.17
76.62
57.83
38.27
17.74
-3.91
-26.10
-46.86
-65.06
-80.05
-91.81
-101.14
-109.63
-118.79
-129.57
-142.05
-155.20
-167.61
-177.31
-182.13
-180.45
-171.83
-157.21
-138.67
-118.62
-98.96
-80.75
-64.19
-49.24
-35.98
-24.81
-16.21
-10.36
-6.81
-4.46
-2.01
1.63
6.79
12.98
19.09
23.95
26.83
27.69
27.16
26.13
25.29
24.83
24.48
23.82
22.56
20.87
19.27
18.34
18.40
19.33
20.64
21.77
22.31
22.15
21.41
20.30
18.97
17.53
16.07
14.78
13.93
13.82
14.61
16.20
18.32
20.53
22.47
23.94
24.96
25.74
26.50
27.36
28.21
28.79
28.85
28.29
27.27
26.10
25.07
24.27
23.57
22.71
21.45
19.71
17.60
15.38
13.29
11.48
9.93
8.54
7.17
5.75
4.31
2.88
1.48
0.07
-1.43
-3.07
-4.84
-6.66
-8.40
-9.95
-11.34
-12.71
-14.29
-16.31
-18.96
-22.21
-25.84
-29.50
-32.75
-35.18
-36.50
-36.58
-35.38
-32.96
-29.42
-24.87
-19.47
-13.38
-6.84
-0.13
6.40
12.40
17.54
21.66
24.76
27.08
28.91
30.52
32.05
33.44
34.57
35.27
35.49
35.21
34.49
33.37
31.88
30.04
27.92
25.62
23.24
20.83
18.41
15.93
13.39
10.82
8.30
5.93
3.75
1.77
-0.06
-1.76
-3.33
-4.78
-6.07
-7.30
-8.65
-10.33
-12.54
-15.36
-18.65
-22.07
-25.12
-27.30
-28.21
-27.69
-25.87
-23.07
-19.82
-16.57
-13.66
-11.19
-8.97
-6.69
-4.03
-0.88
2.59
5.97
8.79
10.71
11.66
11.83
11.51
11.00
10.44
9.86
9.29
8.80
8.53
8.58
8.95
9.41
9.63
9.26
8.20
6.59
4.83
3.31
2.20
1.41
0.60
-0.51
-2.05
-3.86
-5.65
-7.14
-8.23
-9.04
-9.82
-10.84
-12.24
-14.01
-15.99
-17.88
-19.38
-20.21
-20.14
-19.07
-17.02
-14.14
-10.71
-7.04
-3.49
-0.30
2.40
4.63
6.58
8.43
10.29
12.12
13.73
14.86
15.37
15.23
14.61
13.78
13.06
12.62
12.48
12.53
12.55
12.34
11.81
10.93
9.72
8.27
6.63
4.88
3.09
1.40
-0.04
-1.14
-1.83
-2.24
-2.53
-2.96
-3.70
-4.85
-6.33
-7.96
-9.47
-10.56
-11.06
-11.00
-10.66
-10.46
-10.86
-12.16
-14.29
-16.81
-19.06
-20.38
-20.39
-19.03
-16.48
-13.09
-9.16
-4.98
-0.81
3.03
6.28
8.78
10.55
11.79
12.79
13.70
14.56
15.17
15.36
15.01
14.24
13.28
12.40
11.72
11.19
10.59
9.71
8.50
7.02
5.53
4.26
3.24
2.42
1.51
0.32
-1.26
-3.09
-4.92
-6.51
-7.77
-8.76
-9.66
-10.66
-11.86
-13.26
-14.73
-16.12
-17.35
-18.37
-19.27
-20.18
-21.24
-22.55
-24.17
-26.16
-28.58
-31.45
-34.64
-37.77
-40.18
-41.06
-39.77
-36.07
-30.33
-23.33
-15.97
-8.91
-2.43
3.48
8.95
13.95
18.24
21.53
23.63
24.62
24.87
24.86
25.01
25.47
26.07
26.42
26.07
24.78
22.58
19.78
16.93
14.62
13.53
14.50
