1680851931.00
64.000000
-0.00
-0.00
-0.00
-0.00
-0.00
-0.00
-0.00
-0.00
-0.00
-0.00
0.00
0.01
0.01
-0.00
-0.03
-0.05
-0.05
0.00
0.13
0.36
0.66
1.01
1.37
1.72
2.06
2.40
2.79
3.24
3.80
4.42
5.06
5.66
6.20
6.68
7.15
7.68
8.31
9.14
10.09
11.04
11.88
12.56
13.14
13.76
14.65
15.96
17.91
20.32
22.90
25.38
27.58
29.57
31.68
34.32
37.81
42.54
48.15
54.10
59.83
64.97
69.58
74.14
79.34
85.71
93.76
103.00
112.62
121.73
129.77
136.75
143.30
150.75
157.77
166.64
177.95
191.79
206.97
220.57
228.25
225.36
208.53
176.87
132.76
80.05
23.07
-34.94
-92.44
-149.16
-205.23
-260.37
-313.74
-363.86
-409.81
-450.87
-486.44
-515.65
-537.11
-549.06
-549.76
-538.11
-513.89
-478.30
-433.44
-381.95
-326.45
-269.20
-211.92
-155.87
-102.09
-51.43
-4.87
36.71
72.66
102.70
126.97
145.98
160.45
171.08
178.49
183.09
185.15
184.91
182.64
178.70
173.48
167.40
160.81
153.95
146.97
139.94
132.90
125.89
118.98
112.24
105.74
99.54
93.66
88.12
82.94
78.12
73.66
69.59
65.90
62.62
59.74
57.26
55.18
53.47
52.11
51.04
50.17
49.40
48.56
47.48
45.99
43.90
41.10
37.49
33.05
27.81
21.89
15.48
8.83
2.20
-4.11
-9.86
-14.81
-18.81
-21.78
-23.68
-24.58
-24.61
-23.90
-22.65
-21.03
-19.20
-17.29
-15.39
-13.54
-11.78
-10.09
-8.44
-6.79
-5.07
-3.22
-1.19
1.06
3.58
6.34
9.31
12.46
15.79
19.30
22.97
26.85
30.95
35.35
39.95
44.71
49.61
54.63
59.80
65.14
70.67
76.45
82.55
88.83
95.17
101.50
107.77
113.92
119.92
125.77
131.47
137.09
142.35
147.07
151.06
154.08
155.87
156.06
154.17
149.52
143.46
136.51
129.01
121.21
113.25
105.22
97.20
89.30
81.66
74.49
67.68
61.20
55.03
49.09
43.29
37.59
31.96
26.51
21.43
16.74
12.46
8.54
4.79
0.98
-3.16
-7.76
-12.74
-17.81
-22.73
-27.31
-31.54
-35.73
-40.35
-45.88
-52.56
-60.24
-68.38
-76.37
-83.70
-90.29
-96.57
-103.33
-111.40
-121.26
-132.83
-145.51
-158.51
-171.17
-183.31
-195.31
-207.95
-222.31
-239.58
-260.89
-286.76
-316.44
-347.34
-375.11
-394.59
-401.54
-394.19
-373.99
-345.02
-312.31
-280.12
-250.76
-224.69
-201.35
-180.20
-161.27
-144.93
-131.40
-120.38
-111.08
-102.65
-94.60
-86.92
-79.87
-73.64
-67.88
-61.70
-53.89
-43.44
-29.98
-13.98
3.38
20.59
36.35
49.83
60.80
69.48
76.28
81.59
85.66
88.57
90.31
90.85
90.20
88.46
85.85
82.69
79.37
76.25
73.61
71.55
69.96
68.62
67.22
65.49
63.34
60.78
57.95
54.92
51.71
48.18
44.23
39.78
34.89
29.65
24.14
18.40
12.48
6.57
1.18
-2.87
-4.54
-2.89
2.60
11.83
24.03
38.00
52.27
65.43
76.15
83.32
86.10
84.14
77.76
68.08
56.76
45.60
36.04
28.77
23.74
20.43
18.29
16.98
16.35
16.35
16.76
17.21
17.24
16.48
14.76
12.11
8.76
4.98
1.09
-2.62
-5.93
-8.80
-11.38
-14.07
-17.36
-21.71
-27.29
-33.80
-40.48
-46.24
-49.91
-50.56
-47.71
-41.38
-32.06
-20.57
-7.85
5.06
17.21
27.73
35.97
41.66
44.87
46.08
45.94
45.13
44.10
43.03
41.87
40.45
38.61
36.38
33.96
31.68
29.84
28.61
27.92
27.52
27.01
26.03
24.33
21.78
18.42
14.33
9.68
4.62
-0.74
-6.38
-12.40
-18.89
-25.85
-32.96
-39.53
-44.59
-47.13
-46.42
-42.27
-35.06
-25.63
-15.06
-4.40
5.51
14.10
21.07
26.32
29.96
32.16
33.19
33.27
32.57
31.22
29.33
27.02
24.42
21.66
18.85
16.05
13.34
10.80
8.54
6.59
4.85
3.07
0.89
-2.03
-5.81
-10.33
-15.21
-20.06
-24.63
-28.95
-33.32
-38.23
-44.18
-51.48
-60.10
-69.61
-79.20
-87.83
-94.47
-98.36
-99.24
-97.46
-93.86
-89.57
-85.62
-82.83
-81.57
-81.89
-83.59
-86.40
-89.97
-93.84
-97.42
-99.89
-100.21
-97.31
-90.29
-78.64
-62.37
-41.98
-18.33
7.49
34.32
60.94
86.18
108.82
127.76
142.08
151.26
155.24
154.54
150.12
143.14
134.69
125.57
116.10
106.26
95.82
84.58
72.56
60.09
47.84
36.68
27.62
21.55
19.04
20.11
24.20
30.25
36.99
43.28
48.36
51.89
53.92
54.64
54.28
53.04
51.05
48.43
45.30
41.79
38.02
34.15
30.29
26.59
23.20
20.22
17.77
15.89
14.53
13.62
12.93
12.21
11.21
9.78
7.90
5.75
3.66
1.91
0.65
-0.26
-1.31
-3.13
-6.33
-11.22
-17.67
-25.11
-32.61
-39.07
-43.42
-44.82
-42.81
-37.45
-29.39
-19.67
-9.60
-0.35
7.20
12.74
16.35
18.42
19.38
19.51
19.01
18.03
16.74
15.34
14.04
13.01
12.25
11.65
11.10
10.50
9.82
9.17
8.58
8.10
7.61
6.94
5.92
4.41
2.41
-0.02
-2.73
-5.63
-8.62
-11.74
-15.08
-18.74
-22.78
-27.09
-31.39
-35.15
-37.67
-38.29
-36.56
-32.36
-25.97
-18.03
-9.32
-0.61
7.51
14.56
20.31
24.58
27.30
28.48
28.25
26.87
24.72
22.23
19.80
17.66
15.87
14.30
12.83
11.37
9.97
8.70
7.64
6.64
5.49
3.93
1.84
-0.67
-3.32
-5.80
-7.85
-9.41
-10.60
-11.70
-13.11
-15.21
-18.36
-22.69
-27.99
-33.69
-38.89
-42.55
-43.73
-41.88
-36.94
-29.45
-20.34
-10.76
-1.69
6.27
12.92
18.38
22.82
26.25
28.50
29.36
28.75
26.90
24.36
21.74
19.54
17.91
16.69
15.54
14.19
12.54
10.72
8.98
7.54
6.47
5.63
4.74
3.51
1.82
-0.24
-2.40
-4.40
-6.17
-7.83
-9.74
-12.27
-15.65
-19.86
-24.71
-29.90
-35.07
-39.83
-43.60
-45.64
-45.18
-41.69
-35.16
-26.16
-15.78
-5.28
4.28
12.28
18.54
23.19
26.44
28.45
29.31
29.10
28.01
26.37
24.49
22.65
20.95
19.30
17.58
15.66
13.50
11.25
9.15
7.47
6.40
5.96
5.97
6.04
5.72
4.64
2.60
-0.32
-3.89
-7.76
-11.69
-15.59
-19.54
-23.72
-28.30
-33.41
-39.10
-45.36
-52.05
-58.84
-65.18
-70.25
-73.22
-73.40
-70.58
-65.11
-57.86
-49.99
-42.69
-36.83
-32.89
-30.93
-30.76
-32.04
-34.41
-37.57
-41.34
-45.66
-50.58
-56.16
-62.32
-68.60
-74.06
-77.17
-76.04
-68.90
-54.58
-33.04
-5.49
25.69
57.55
87.23
112.64
132.93
148.51
160.81
171.76
183.04
195.40
208.13
218.78
223.83
219.67
203.89
176.18
138.49
94.40
48.02
3.07
-37.58
-71.87
-98.33
-116.04
-124.88
-125.75
-120.65
-112.07
-102.24
-92.45
-82.77
-72.53
-60.94
-47.63
-32.95
-17.75
-3.03
10.32
21.72
30.92
38.04
43.49
47.75
51.05
53.20
53.50
51.19
46.00
38.66
30.88
24.69
21.42
21.00
21.93
21.99
19.45
13.88
6.26
-1.57
-7.87
-11.75
-13.47
-14.19
-15.48
-18.79
-25.05
-34.37
-45.82
-57.33
-65.83
-67.92
-60.84
-43.56
-17.42
14.04
46.01
73.87
94.48
106.90
112.16
112.50
110.33
107.57
105.51
104.97
106.60
110.90
118.01
127.34
137.46
146.27
151.61
151.90
146.67
136.58
123.08
107.85
92.24
77.15
62.96
49.71
37.26
25.39
13.64
1.40
-11.88
-26.23
-40.67
-53.35
-62.29
-66.46
-66.51
-64.62
-63.39
-64.59
-68.34
-73.28
-77.62
-80.29
-81.51
-82.31
-83.59
-85.24
-86.16
-84.95
-80.84
-74.31
-66.82
-60.13
-55.61
-53.70
-53.97
-55.57
-57.65
-59.71
-61.66
-63.55
-65.26
-66.43
-66.46
-64.85
-61.45
-56.54
-50.79
-44.93
-39.56
-34.99
-31.27
-28.23
-25.65
-23.29
-21.03
-18.88
-17.06
-15.88
-15.67
-16.66
-18.84
-22.04
-25.97
-30.39
-35.06
-39.70
-43.78
-46.59
-47.32
-45.42
-40.81
-34.06
-26.10
-17.94
-10.30
-3.41
2.80
8.49
13.59
17.70
20.28
20.97
19.84
17.43
14.53
11.94
10.17
9.42
9.66
10.78
12.61
14.97
17.54
19.86
21.47
22.02
21.42
19.83
17.57
14.94
12.10
9.09
5.91
2.64
-0.63
-3.74
-6.62
-9.29
-11.95
-14.83
-18.15
-22.00
-26.23
-30.41
-33.90
-35.97
-36.04
-33.83
-29.48
-23.50
-16.63
-9.68
-3.33
1.96
5.94
8.59
10.00
10.42
10.16
9.57
9.01
8.79
9.08
9.90
11.07
12.33
13.28
13.72
13.58
13.01
12.24
11.45
10.61
9.56
8.08
6.05
3.53
0.79
-1.84
-4.07
-5.80
-7.13
-8.30
-9.65
-11.55
-14.25
-17.84
-22.13
-26.59
-30.39
-32.63
-32.58
-29.95
-25.00
-18.41
-11.11
-3.96
2.45
7.85
12.17
15.47
17.82
19.23
19.77
19.53
18.67
17.42
15.94
14.35
12.74
11.10
9.54
8.20
7.28
6.92
7.11
7.61
7.95
7.66
6.38
4.05
0.94
-2.51
-5.82
-8.65
-10.89
-12.71
-14.45
-16.58
-19.49
-23.30
-27.70
-31.99
-35.15
-36.20
-34.54
-30.06
-23.17
-14.58
-5.10
4.50
13.49
21.21
27.17
31.07
32.98
33.24
32.30
30.55
28.16
25.16
21.58
17.70
13.98
10.94
8.97
8.11
8.06
8.33
8.43
8.09
7.25
5.99
4.40
2.52
0.34
-2.21
-5.04
-8.04
-11.08
-14.11
-17.26
-20.80
-24.99
-29.91
-35.28
-40.41
-44.37
-46.24
-45.40
-41.72
-35.61
-27.81
-19.22
-10.66
-2.73
4.27
10.29
15.43
19.82
23.49
26.37
28.33
29.22
29.05
27.99
26.33
24.38
22.36
20.45
18.79
17.50
16.67
16.26
16.07
15.75
14.98
13.59
11.65
9.43
7.23
5.27
3.54
1.88
0.06
-2.16
-4.98
-8.59
-13.11
-18.44
-24.15
-29.47
-33.40
-34.99
-33.64
-29.33
-22.67
-14.65
-6.38
1.27
7.81
13.11
17.34
20.74
23.57
26.01
28.06
29.60
30.29
29.81
27.89
24.54
20.10
15.20
10.50
6.54
3.52
1.31
-0.42
-2.09
-3.96
-6.14
-8.56
-11.10
-13.64
-16.11
-18.54
-21.00
-23.67
-26.73
-30.43
-34.95
-40.24
-45.91
-51.22
-55.21
-56.94
-55.86
-51.87
-45.39
-37.13
-27.85
-18.22
-8.77
0.07
7.89
14.34
19.19
22.42
24.26
25.11
25.41
25.50
25.54
25.50
25.22
24.56
23.55
22.32
21.13
20.16
19.45
18.85
18.09
16.87
15.01
12.45
9.34
5.91
2.40
-0.99
-4.19
-7.29
-10.56
-14.37
-19.07
-24.87
-31.67
-39.01
-46.05
-51.73
-54.99
-55.10
-51.81
-45.46
-36.85
-26.94
-16.68
-6.74
2.38
10.42
17.25
22.81
27.10
30.18
32.23
33.42
34.02
34.25
34.30
34.24
34.05
33.60
32.74
31.41
29.70
27.88
26.25
25.02
24.16
23.43
22.41
20.79
18.42
15.36
11.86
8.15
4.39
0.62
-3.20
-7.17
-11.38
-15.93
-20.86
-26.21
-31.85
-37.39
-42.13
-45.11
-45.45
-42.57
-36.51
-27.93
-17.92
-7.65
1.99
10.53
17.86
24.11
29.40
33.70
36.92
38.95
39.79
39.56
38.51
36.99
35.33
33.77
32.47
31.46
30.67
29.97
29.27
28.50
27.67
26.78
25.82
24.73
23.32
21.42
18.90
15.75
12.14
8.32
4.54
0.98
-2.33
-5.46
-8.62
-12.08
-16.09
-20.79
-26.13
-31.74
-36.90
-40.74
-42.38
-41.19
-37.04
-30.31
-21.78
-12.40
-3.07
5.56
13.12
19.47
24.62
28.57
31.36
33.03
33.66
33.41
32.53
31.30
29.95
28.60
27.28
25.90
24.39
22.76
21.08
19.51
18.13
16.91
15.64
14.08
12.02
9.40
6.35
3.15
0.03
-2.85
-5.49
-8.03
-10.68
-13.66
-17.19
-21.39
-26.27
-31.60
-36.91
-41.44
-44.33
-44.75
-42.22
-36.82
-29.20
-20.35
-11.34
-2.99
4.27
10.37
15.46
19.68
23.11
25.74
27.50
28.37
28.40
27.78
26.75
25.55
24.44
23.55
22.93
22.54
22.30
22.14
21.97
21.70
21.22
20.39
19.08
17.20
14.80
12.02
9.08
6.15
3.33
0.62
-2.01
-4.64
-7.35
-10.19
-13.29
-16.81
-20.95
-25.79
-31.16
-36.56
-41.20
-44.17
-44.77
-42.64
-37.93
-31.14
-22.99
-14.30
-5.81
1.89
8.41
13.59
17.51
20.39
22.47
23.92
24.75
24.99
24.70
24.09
23.45
22.99
22.77
22.65
22.43
21.99
21.31
20.54
19.80
19.13
18.43
17.53
16.26
14.58
12.54
10.25
7.82
5.32
2.78
0.20
-2.41
-5.02
-7.65
-10.32
-13.12
-16.23
-19.79
-23.90
-28.47
-33.13
-37.21
-39.93
-40.49
-38.45
-33.86
-27.25
-19.48
-11.41
-3.74
3.18
9.22
14.34
18.49
21.64
23.82
25.14
25.81
26.01
25.85
25.30
24.29
22.85
21.09
19.31
17.80
16.74
16.08
15.61
15.04
14.16
12.90
11.38
9.78
8.23
6.75
5.28
3.71
2.02
0.24
-1.59
-3.47
-5.45
-7.62
-10.04
-12.70
-15.61
-18.81
-22.37
-26.36
-30.65
-34.76
-37.99
-39.51
-38.69
-35.33
-29.76
-22.72
-15.11
-7.71
-0.99
4.86
9.80
13.81
16.80
18.60
19.12
18.43
16.87
14.92
13.12
11.85
11.25
11.20
11.38
11.44
11.17
10.56
9.81
9.20
8.93
8.95
8.99
8.66
7.61
5.73
3.16
0.18
-2.89
-5.85
-8.62
-11.22
-13.75
-16.32
-19.10
-22.24
-25.84
-29.84
-33.91
-37.38
-39.46
-39.39
-36.78
-31.73
-24.85
-16.99
-9.05
-1.73
4.60
9.78
13.78
16.61
18.35
19.10
19.08
18.57
17.82
16.99
16.06
14.97
13.67
12.26
10.94
9.98
9.58
9.70
10.13
10.50
10.42
9.67
8.22
6.27
4.09
1.94
-0.06
-1.93
-3.77
-5.68
-7.73
-9.91
-12.23
-14.73
-17.56
-20.90
-24.87
-29.37
-34.00
-38.11
-40.90
-41.69
-40.12
-36.28
-30.60
-23.73
-16.36
-9.04
-2.20
3.91
9.12
13.34
16.57
18.87
20.29
20.92
20.85
20.24
19.30
18.29
17.42
16.80
16.37
15.99
15.49
14.81
13.98
13.06
12.11
11.09
9.96
8.64
7.14
5.50
3.78
1.96
-0.01
-2.25
-4.84
-7.74
-10.84
-13.98
-17.06
-20.11
-23.33
-26.95
-31.00
-35.22
-38.96
-41.36
-41.60
-39.25
-34.38
-27.55
-19.64
-11.55
-4.00
2.57
7.99
12.25
15.46
17.78
19.33
20.21
20.51
20.31
19.75
18.99
18.18
17.39
16.57
15.65
14.57
13.37
12.22
11.26
10.58
10.09
9.60
8.90
7.82
6.25
4.25
1.90
-0.66
-3.22
-5.63
-7.82
-9.86
-11.89
-14.14
-16.82
-20.05
-23.85
-28.10
-32.52
-36.64
-39.82
-41.39
-40.80
-37.82
-32.66
-26.00
-18.66
-11.40
-4.69
1.32
6.67
11.41
15.39
18.36
20.07
20.46
19.77
18.44
16.94
15.63
14.63
13.90
13.34
12.85
12.41
12.01
11.63
11.22
10.69
9.92
8.78
7.19
5.18
2.85
0.43
-1.87
-3.95
-5.87
-7.84
-10.11
-12.89
-16.26
-20.17
-24.56
-29.23
-33.87
-37.94
-40.78
-41.66
-40.13
-36.11
-29.98
-22.45
-14.37
-6.44
0.83
7.14
12.35
16.37
19.12
20.63
20.95
20.33
19.07
17.58
16.20
15.14
14.45
14.03
13.73
13.42
13.12
12.93
12.93
13.14
13.42
13.55
13.27
12.41
10.84
8.59
5.72
2.38
-1.24
-4.92
-8.45
-11.71
-14.66
-17.47
-20.37
-23.70
-27.66
-32.32
-37.44
-42.49
-46.66
-49.05
-48.91
-45.86
-40.03
-32.06
-22.92
-13.66
-5.18
2.00
7.74
12.25
15.89
19.00
21.69
23.92
25.51
26.30
26.29
25.65
24.71
23.79
23.13
22.78
22.61
22.47
22.23
21.82
21.30
20.67
19.87
18.75
17.15
15.01
12.41
9.57
6.75
4.14
1.73
-0.64
-3.15
-5.99
-9.16
-12.58
-16.14
-19.85
-23.84
-28.31
-33.27
-38.46
-43.24
-46.76
-48.19
-46.97
-42.99
-36.64
-28.61
-19.72
-10.73
-2.18
5.62
12.47
18.26
22.92
26.36
28.58
29.67
29.81
29.31
28.46
27.50
26.55
25.66
24.80
23.97
23.19
22.51
21.93
21.41
20.87
20.19
19.34
18.33
17.21
15.95
14.50
12.76
10.62
8.09
5.28
2.39
-0.43
-3.16
-5.88
-8.80
-12.14
-16.08
-20.76
-26.15
-32.03
-37.90
-42.98
-46.40
-47.36
-45.44
-40.68
-33.64
-25.15
-16.12
-7.30
0.83
8.02
14.17
19.25
23.21
26.00
27.55
27.89
27.15
25.70
23.96
22.44
21.43
21.08
21.25
21.67
22.04
22.14
21.84
21.11
20.03
18.69
17.27
15.90
14.64
13.46
12.18
10.58
8.51
5.94
2.98
-0.17
-3.32
-6.37
-9.32
-12.27
-15.42
-19.03
-23.30
-28.29
-33.75
-39.07
-43.38
-45.69
-45.22
-41.68
-35.32
-26.90
-17.39
-7.81
1.05
8.67
14.79
19.40
22.62
24.69
25.91
26.55
26.84
26.94
26.87
26.64
26.17
25.45
24.55
23.61
22.82
22.31
22.09
22.02
21.85
21.35
20.38
18.93
17.10
15.07
12.96
10.80
8.61
6.34
4.01
1.63
-0.76
-3.14
-5.55
-8.05
-10.73
-13.72
-17.13
-21.01
-25.40
-30.24
-35.35
-40.38
-44.82
-48.03
-49.34
-48.21
-44.41
-38.11
-29.90
-20.67
-11.36
-2.75
4.71
10.88
15.86
19.83
22.89
25.13
26.61
27.47
27.93
28.26
28.59
28.91
29.03
28.79
28.15
27.30
26.58
26.26
26.39
26.71
26.77
26.14
24.63
22.36
19.72
17.07
14.63
12.39
10.21
7.95
5.55
3.03
0.42
-2.35
-5.34
-8.58
-11.99
-15.37
-18.55
-21.52
-24.58
-28.16
-32.59
-37.88
-43.54
-48.65
-52.14
-53.13
-51.17
-46.35
-39.15
-30.37
-20.86
-11.41
-2.67
4.87
10.99
15.72
19.28
22.06
24.36
26.39
28.15
29.47
30.16
30.14
29.43
28.27
26.91
25.63
24.62
23.98
23.71
23.69
23.68
23.41
22.62
21.19
19.21
16.93
14.63
12.52
10.64
8.86
6.98
4.89
2.53
-0.06
-2.79
-5.62
-8.56
-11.65
-15.00
-18.78
-23.10
-27.98
-33.20
-38.23
-42.34
-44.72
-44.74
-42.18
-37.23
-30.46
-22.61
-14.39
-6.40
0.99
7.50
12.96
17.25
20.32
22.22
23.10
23.17
22.63
21.70
20.51
19.19
17.82
16.52
15.37
14.42
13.67
13.06
12.55
12.05
11.53
10.89
10.02
8.71
6.85
4.41
1.58
-1.31
-3.94
-6.08
-7.72
-9.07
-10.49
-12.31
-14.82
-18.23
-22.58
-27.75
-33.35
-38.69
-42.83
-44.84
-44.06
-40.28
-33.90
-25.70
-16.65
-7.68
0.54
7.61
13.35
17.73
20.86
22.87
23.97
24.36
24.18
23.53
22.46
21.07
19.52
18.02
16.74
15.76
15.04
14.43
13.78
13.01
12.11
11.13
10.11
9.03
7.82
6.36
4.58
2.43
-0.01
-2.66
-5.42
-8.20
-11.03
-13.95
-17.09
-20.59
-24.57
-29.11
-34.06
-39.11
-43.67
-47.01
-48.40
-47.32
-43.59
-37.47
-29.58
-20.72
-11.67
-3.09
4.58
11.11
16.42
20.56
23.61
25.65
26.75
26.96
26.36
25.14
23.59
22.03
20.69
19.69
18.94
18.25
17.45
16.45
15.34
14.21
13.15
12.12
10.95
9.46
7.54
5.23
2.72
0.20
-2.19
-4.45
-6.70
-9.07
-11.65
-14.45
-17.49
-20.86
-24.67
-29.02
-33.73
-38.25
-41.73
-43.20
-41.97
-37.85
-31.28
-23.11
-14.37
-5.93
1.61
7.96
13.07
17.03
19.95
21.99
23.30
24.01
24.21
23.97
23.41
22.62
21.73
20.86
20.09
19.47
18.92
18.39
17.82
17.14
16.31
15.33
14.19
12.86
11.32
9.49
7.35
4.89
2.18
-0.61
-3.33
-5.88
-8.32
-10.85
-13.75
-17.24
-21.40
-26.07
-30.83
-35.07
-38.12
-39.38
-38.49
-35.37
-30.26
-23.67
-16.23
-8.55
-1.09
5.82
11.96
17.18
21.31
24.19
25.79
26.26
25.94
25.28
24.65
24.21
23.95
23.70
23.31
22.75
22.10
21.48
21.01
20.69
20.49
20.30
20.01
19.46
18.44
16.72
14.13
10.65
6.46
1.89
-2.69
-7.03
-11.11
-15.13
-19.38
-24.04
-29.06
-34.11
-38.71
-42.33
-44.58
-45.22
-44.22
-41.62
-37.50
-32.01
-25.38
-18.06
-10.62
-3.69
2.28
7.07
10.72
13.37
15.12
16.03
16.17
15.69
14.96
14.34
14.15
14.41
14.93
15.41
15.64
15.58
15.36
15.10
14.78
14.26
13.31
11.82
9.87
7.60
5.22
2.80
0.27
-2.48
-5.54
-8.90
-12.51
-16.33
-20.47
-25.04
-30.04
-35.17
-39.79
-43.04
-44.13
-42.63
-38.54
-32.34
-24.73
-16.47
-8.24
-0.52
6.36
12.21
16.99
20.69
23.38
25.16
26.09
26.27
25.83
24.95
23.85
22.80
21.98
21.44
21.16
21.01
20.82
20.44
19.78
18.81
17.54
15.98
14.18
12.12
9.84
7.35
4.73
2.06
-0.56
-3.07
-5.44
-7.73
-10.05
-12.57
-15.51
-19.04
-23.28
-28.20
-33.54
-38.80
-43.22
-46.00
-46.42
-44.14
-39.24
-32.26
-24.01
-15.37
-7.05
0.45
6.88
12.14
16.27
19.38
21.62
23.13
24.10
24.64
24.83
24.72
24.32
23.67
22.85
21.98
21.16
20.45
19.87
19.32
18.71
17.91
16.89
15.71
14.48
13.26
12.06
10.74
9.12
7.03
4.41
1.33
-2.00
-5.34
-8.54
-11.57
-14.63
-17.96
-21.81
-26.23
-31.08
-35.92
-40.13
-43.03
-44.01
-42.64
-38.83
-32.81
-25.14
-16.62
-8.16
-0.56
5.69
10.45
13.92
16.48
18.47
20.14
21.52
22.57
23.21
23.43
23.26
22.78
22.06
21.18
20.20
19.21
18.28
17.55
17.10
16.94
17.04
17.27
17.48
17.52
17.18
16.33
14.84
12.64
9.80
6.45
2.82
-0.89
-4.49
-7.89
-11.13
-14.32
-17.67
-21.35
-25.50
-30.14
-35.02
-39.65
-43.29
-45.20
-44.77
-41.80
-36.48
-29.41
-21.39
-13.22
-5.58
1.08
6.54
10.80
14.00
16.38
18.10
19.29
20.02
20.28
20.15
19.72
19.14
18.57
18.07
17.68
17.40
17.17
17.00
16.84
16.62
16.23
15.53
14.42
12.87
10.95
8.76
6.42
3.97
1.44
-1.20
-3.97
-6.88
-9.94
-13.14
-16.54
-20.17
-24.07
-28.24
-32.51
-36.54
-39.81
-41.66
-41.48
-38.88
-33.86
-26.85
-18.60
-10.02
-1.92
5.13
10.88
15.38
18.80
21.39
23.28
24.54
25.14
25.09
24.53
23.70
22.83
22.11
21.59
21.21
20.84
20.39
19.80
19.07
18.19
17.17
16.01
14.78
13.55
12.37
11.20
9.93
8.38
6.44
4.02
1.15
-2.10
-5.56
-9.10
-12.53
-15.78
-18.94
-22.25
-26.00
-30.36
-35.26
-40.26
-44.66
-47.63
-48.44
-46.63
-42.11
-35.24
-26.70
-17.44
-8.43
-0.46
6.08
11.12
14.95
17.90
20.22
22.05
23.35
24.12
24.38
24.25
23.89
23.41
22.90
22.38
21.85
21.33
20.83
20.34
19.79
19.11
18.21
17.09
15.79
14.40
13.00
11.58
10.05
8.26
6.15
3.70
1.03
-1.70
-4.33
-6.83
-9.31
-11.97
-15.08
-18.86
-23.32
-28.34
-33.53
-38.35
-42.14
-44.28
-44.23
-41.72
-36.77
-29.79
-21.50
-12.78
-4.46
2.82
8.72
13.21
16.44
18.62
19.95
20.67
21.00
21.19
21.43
21.81
22.32
22.86
23.34
23.70
23.95
24.10
24.15
23.96
23.47
22.59
21.39
19.99
18.51
16.99
15.37
13.53
11.35
8.77
5.85
2.70
-0.47
-3.46
-6.18
-8.60
-10.89
-13.31
-16.15
-19.61
-23.77
-28.43
-33.23
-37.65
-41.07
-42.87
-42.53
-39.77
-34.64
-27.62
-19.46
-11.07
-3.19
3.77
9.64
14.42
18.03
20.24
20.83
19.80
17.54
14.80
12.40
10.93
10.51
10.87
11.51
11.98
12.10
11.87
11.45
10.97
10.52
10.10
9.62
8.96
7.96
6.51
4.55
2.17
-0.47
-3.18
-5.80
-8.26
-10.56
-12.77
-15.03
-17.54
-20.52
-24.15
-28.41
-33.03
-37.42
-40.79
-42.30
-41.30
-37.54
-31.27
-23.16
-14.20
-5.38
2.49
8.95
13.91
17.54
20.16
22.06
23.44
24.35
24.75
24.58
23.82
22.55
20.98
19.39
18.01
16.99
16.34
15.95
15.63
15.20
14.51
13.46
12.03
10.20
7.98
5.45
2.69
-0.16
-2.94
-5.52
-7.87
-10.04
-12.20
-14.51
-17.14
-20.15
-23.59
-27.52
-31.92
-36.63
-41.23
-45.00
-47.05
-46.58
-43.22
-37.17
-29.14
-20.16
-11.20
-2.96
4.17
10.11
14.88
18.56
21.26
23.12
24.28
24.88
25.01
24.71
24.04
23.10
22.10
21.28
20.81
20.74
20.94
21.21
21.30
21.04
20.36
19.28
17.83
16.04
13.93
11.51
8.90
6.22
3.64
1.25
-0.99
-3.25
-5.77
-8.75
-12.28
-16.31
-20.70
-25.31
-30.06
-34.88
-39.58
-43.75
-46.77
-47.95
-46.69
-42.76
-36.33
-27.94
-18.41
-8.62
0.60
8.61
15.04
19.81
23.06
25.10
26.24
26.78
26.87
26.64
26.17
25.51
24.74
23.90
22.99
22.06
21.18
20.48
20.02
19.75
19.46
18.82
17.61
15.75
13.48
11.16
9.14
7.53
6.14
4.57
2.43
-0.50
-4.09
-7.98
-11.72
-14.99
-17.82
-20.58
-23.81
-27.93
-32.96
-38.31
-42.92
-45.54
-45.20
-41.54
-34.92
-26.31
-16.87
-7.64
0.78
8.21
14.74
20.51
25.50
29.49
32.15
33.25
32.81
31.25
29.30
27.76
27.22
27.85
29.34
31.07
32.45
33.19
33.39
33.40
33.58
34.09
34.83
35.55
36.11
36.55
37.01
37.59
38.17
38.35
37.67
35.68
32.14
27.00
20.28
12.05
2.47
-8.03
-18.58
-27.97
-34.87
-38.33
-38.20
-35.23
-30.81
-26.36
-22.89
-20.67
-19.36
-18.41
-17.42
-16.28
-15.19
-14.37
-13.86
-13.47
-12.94
-12.11
-11.03
-9.96
-9.19
-8.85
-8.87
-9.06
-9.18
-9.10
-8.79
-8.24
-7.41
-6.21
-4.55
-2.54
-0.50
1.03
1.56
0.72
-1.54
-5.00
-9.25
-13.74
-17.89
-21.19
-23.38
-24.59
-25.39
-26.60
-28.97
-32.76
-37.50
-42.08
-45.09
-45.35
-42.33
-36.28
-28.07
-18.87
-9.76
-1.55
5.34
10.87
15.21
18.62
21.32
23.45
25.04
26.02
26.32
25.92
24.87
23.31
21.50
19.69
18.13
16.97
16.25
15.85
15.53
14.99
13.98
12.43
10.48
8.43
6.59
5.21
4.26
3.54
2.64
1.17
-1.10
-4.18
-7.89
-11.98
-16.26
-20.66
-25.22
-29.95
-34.72
-39.19
-42.81
-44.94
-44.97
-42.49
-37.48
-30.24
-21.46
-12.07
-3.00
4.96
11.31
15.94
19.09
21.22
22.83
24.25
25.55
26.54
26.91
26.43
25.13
23.27
21.31
19.73
18.82
18.61
18.89
19.30
19.48
19.22
18.49
17.39
16.08
14.67
13.17
11.45
9.26
6.36
2.63
-1.79
-6.52
-11.03
-14.84
-17.80
-20.13
-22.44
-25.44
-29.57
-34.75
-40.28
-45.01
-47.76
-47.63
-44.34
-38.22
-30.04
-20.79
-11.36
-2.48
5.42
12.04
17.21
20.89
23.13
24.09
24.07
23.41
22.39
21.20
19.91
18.55
17.12
15.73
14.53
13.68
13.31
13.43
13.87
14.37
14.55
14.06
12.65
10.28
7.15
3.62
0.13
-3.07
-5.90
-8.56
-11.32
-14.44
-18.03
-22.06
-26.40
-30.88
-35.34
-39.51
-43.07
-45.57
-46.51
-45.47
-42.17
-36.57
-28.91
-19.68
-9.58
0.56
9.90
17.75
23.67
27.48
29.32
29.57
28.76
27.52
26.32
25.48
25.05
24.85
24.59
24.05
23.14
21.93
20.64
19.49
18.62
18.03
17.58
17.04
16.14
14.62
12.39
9.48
6.13
2.70
-0.43
-3.01
-4.95
-6.42
-7.78
-9.46
-11.91
-15.45
-20.29
-26.33
-33.23
-40.34
-46.71
-51.26
-53.04
-51.49
-46.61
-39.05
-29.83
-20.14
-10.96
-2.90
3.93
9.70
14.77
19.40
23.72
27.62
30.91
33.31
34.63
34.80
33.91
32.17
29.94
27.60
25.48
23.84
22.72
22.02
21.49
20.88
20.04
18.96
17.76
16.56
15.39
14.13
12.59
10.51
7.75
4.30
0.31
-3.95
-8.17
-12.01
-15.24
-17.84
-20.05
-22.41
-25.52
-29.84
-35.36
-41.45
-46.95
-50.57
-51.25
-48.55
-42.77
-34.81
-25.81
-16.83
-8.59
-1.38
4.79
10.08
14.63
18.48
21.57
23.80
25.10
25.45
24.96
23.82
22.32
20.76
19.44
18.57
18.25
18.43
18.92
19.47
19.80
19.70
19.06
17.95
16.48
14.77
12.90
10.85
8.51
5.81
2.72
-0.70
-4.25
-7.78
-11.11
-14.20
-17.06
-19.83
-22.71
-25.94
-29.72
-34.05
-38.62
-42.78
-45.70
-46.54
-44.78
-40.36
-33.63
-25.26
-16.08
-6.88
1.66
9.03
14.94
19.35
22.38
24.31
25.36
25.66
25.25
24.21
22.72
21.09
19.68
18.73
18.31
18.28
18.42
18.47
18.27
17.75
16.91
15.74
14.27
12.45
10.27
7.74
4.92
1.89
-1.22
-4.31
-7.34
-10.29
-13.20
-16.14
-19.20
-22.43
-25.91
-29.69
-33.72
-37.81
-41.53
-44.21
-45.13
-43.70
-39.66
-33.21
-24.95
-15.68
-6.23
2.68
10.56
17.05
21.99
25.35
27.28
28.05
27.96
27.29
26.23
24.91
23.43
21.93
20.55
19.42
18.62
18.18
18.04
18.13
18.36
18.55
18.48
17.94
16.75
14.92
12.56
9.88
7.08
4.25
1.39
-1.55
-4.54
-7.52
-10.35
-12.96
-15.34
-17.63
-20.10
-23.05
-26.75
-31.28
-36.36
-41.37
-45.34
-47.30
-46.45
-42.50
-35.73
-26.91
-17.06
-7.20
1.83
9.48
15.53
19.99
23.03
24.94
25.99
26.42
26.44
26.17
25.68
24.98
24.00
22.70
21.15
19.58
18.27
17.52
17.36
17.57
17.77
17.56
16.75
15.45
13.89
12.30
10.77
9.18
7.35
5.13
2.51
-0.41
-3.44
-6.42
-9.23
-11.83
-14.31
-16.84
-19.73
-23.27
-27.62
-32.64
-37.82
-42.31
-45.15
-45.53
-42.97
-37.52
-29.71
-20.42
-10.69
-1.47
6.56
13.04
17.98
21.60
24.19
25.95
26.95
27.15
26.59
25.37
23.76
22.07
20.59
19.49
18.83
18.52
18.43
18.42
18.39
18.26
17.97
17.44
16.59
15.31
13.53
11.28
8.72
6.06
3.49
1.03
-1.41
-4.02
-6.91
-10.07
-13.31
-16.45
-19.48
-22.59
-26.12
-30.33
-35.19
-40.22
-44.52
-47.00
-46.78
-43.43
-37.16
-28.70
-19.13
-9.50
-0.69
6.82
12.87
17.53
20.92
23.18
24.42
24.69
24.14
22.97
21.48
19.95
18.65
17.68
17.01
16.52
16.00
15.39
14.60
13.67
12.67
11.59
10.43
9.10
7.53
5.65
3.43
0.90
-1.83
-4.59
-7.22
-9.65
-11.93
-14.25
-16.88
-20.09
-23.98
-28.52
-33.40
-38.13
-42.08
-44.52
-44.80
-42.52
-37.59
-30.37
-21.58
-12.15
-3.02
5.11
11.82
17.06
20.94
23.73
25.62
26.71
27.05
26.65
25.64
24.17
22.50
20.81
19.26
17.93
16.82
15.95
15.26
14.69
14.12
13.42
12.51
11.34
9.93
8.28
6.42
4.32
1.95
-0.69
-3.59
-6.71
-9.96
-13.29
-16.65
-20.03
-23.53
-27.34
-31.52
-35.99
-40.32
-43.80
-45.59
-44.96
-41.58
-35.63
-27.76
-18.88
-9.93
-1.62
5.56
11.46
16.06
19.42
21.63
22.76
22.99
22.59
21.84
21.04
20.33
19.70
19.04
18.28
17.42
16.56
15.81
15.18
14.58
13.89
12.98
11.90
10.73
9.48
8.08
6.33
4.07
1.30
-1.75
-4.75
-7.45
-9.82
-12.12
-14.74
-18.14
-22.55
-27.91
-33.79
-39.47
-44.05
-46.67
-46.73
-43.98
-38.68
-31.41
-22.94
-14.05
-5.35
2.65
9.59
15.24
19.48
22.35
24.03
24.78
24.88
24.52
23.86
22.99
22.00
20.95
19.91
18.89
17.87
16.84
15.78
14.68
13.56
12.41
11.23
9.92
8.43
6.64
4.51
2.04
-0.73
-3.73
-6.85
-10.02
-13.14
-16.17
-19.10
-21.99
-25.00
-28.33
-32.15
-36.43
-40.79
-44.53
-46.69
-46.42
-43.21
-37.15
-28.87
-19.37
-9.66
-0.55
7.48
14.22
19.59
23.56
26.08
27.17
26.97
25.82
24.15
22.41
20.93
19.81
18.97
18.22
17.36
16.30
15.06
13.77
12.62
11.67
10.89
10.14
9.12
7.57
5.33
2.43
-0.93
-4.37
-7.57
-10.34
-12.68
-14.86
-17.25
-20.17
-23.86
-28.35
-33.43
-38.67
-43.38
-46.69
-47.74
-45.93
-41.10
-33.66
-24.50
-14.72
-5.30
3.15
10.37
16.41
21.41
25.41
28.37
30.22
30.96
30.74
29.83
28.57
27.25
26.07
25.17
24.54
24.17
23.98
23.89
23.81
23.62
23.21
22.44
21.22
19.55
17.52
15.26
12.90
10.51
8.02
5.31
2.28
-1.08
-4.69
-8.38
-12.01
-15.48
-18.86
-22.29
-26.01
-30.17
-34.82
-39.66
-44.03
-46.99
-47.62
-45.24
-39.77
-31.72
-22.13
-12.15
-2.79
5.33
12.00
17.29
21.40
24.51
26.77
28.28
29.20
29.68
29.88
29.95
29.92
29.77
29.49
29.05
28.49
27.84
27.11
26.25
25.17
23.82
22.20
20.40
18.52
16.66
14.80
12.92
10.94
8.83
6.61
4.26
1.78
-0.88
-3.78
-6.89
-10.14
-13.43
-16.71
-20.02
-23.56
-27.50
-31.88
-36.42
-40.44
-43.00
-43.18
-40.39
-34.67
-26.65
-17.34
-7.88
0.87
8.42
14.62
19.53
23.28
25.91
27.43
27.88
27.35
26.14
24.58
23.05
21.81
20.95
20.32
19.71
18.98
18.15
17.40
16.92
16.74
16.71
16.55
16.01
14.98
13.50
11.69
9.68
7.50
5.19
2.75
0.26
-2.20
-4.62
-7.07
-9.69
-12.62
-16.00
-19.90
-24.25
-28.84
-33.21
-36.71
-38.60
-38.29
-35.50
-30.40
-23.52
-15.60
-7.43
0.38
7.36
13.21
17.76
20.97
22.92
23.85
24.00
23.64
22.94
22.01
20.86
19.57
18.23
17.00
16.01
15.33
14.95
14.82
14.81
14.83
14.77
14.47
13.83
12.73
11.10
8.92
6.22
3.13
-0.19
-3.52
-6.59
-9.21
-11.35
-13.21
-15.22
-17.91
-21.66
-26.48
-31.91
-37.02
-40.77
-42.25
-40.97
-36.93
-30.60
-22.72
-14.08
-5.46
2.52
9.39
14.86
18.83
21.44
22.94
23.68
23.96
23.93
23.64
23.01
22.00
20.63
19.03
17.42
16.05
15.12
14.70
14.72
14.94
15.03
14.67
13.69
12.13
10.17
8.08
6.05
4.12
2.24
0.33
-1.61
-3.50
-5.22
-6.77
-8.25
-9.90
-12.05
-14.95
-18.76
-23.37
-28.42
-33.29
-37.10
-39.00
-38.34
-34.96
-29.16
-21.70
-13.46
-5.31
2.18
8.69
14.09
18.37
21.52
23.57
24.61
24.80
24.34
23.39
22.04
20.35
18.46
16.58
15.07
14.18
14.05
14.49
15.11
15.50
15.36
14.62
13.31
11.54
9.35
6.78
3.96
1.17
-1.27
-3.14
-4.51
-5.73
-7.26
-9.43
-12.24
-15.46
-18.75
-21.90
-24.96
-28.09
-31.34
-34.40
-36.61
-37.12
-35.26
-30.84
-24.27
-16.42
-8.30
-0.76
5.68
10.87
14.86
17.71
19.46
20.10
19.69
18.41
16.60
14.62
12.79
11.29
10.18
9.38
8.73
8.07
7.34
6.53
5.73
5.03
4.51
4.16
3.87
3.48
2.83
1.81
0.33
-1.59
-3.85
-6.31
-8.76
-11.00
-12.97
-14.81
-16.82
-19.41
-22.80
-26.87
-31.06
-34.41
-35.91
-34.80
-30.88
-24.60
-16.82
-8.64
-0.96
5.62
10.81
14.53
16.84
17.89
17.95
17.37
16.52
15.70
14.99
14.34
13.62
12.76
11.78
10.79
9.95
9.34
8.97
8.78
8.65
8.44
7.95
7.01
5.49
3.43
1.00
-1.56
-4.02
-6.23
-8.20
-10.06
-11.97
-14.16
-16.82
-20.10
-24.05
-28.59
-33.37
-37.87
-41.37
-43.09
-42.49
-39.33
-33.78
-26.36
-17.85
-9.05
-0.74
6.51
12.33
16.58
19.37
20.97
21.74
21.99
21.89
21.47
20.67
19.45
17.89
16.19
14.60
13.34
12.52
12.12
11.98
11.96
11.90
11.71
11.30
10.60
9.52
7.99
6.00
3.58
0.85
-2.05
-4.94
-7.76
-10.49
-13.26
-16.26
-19.72
-23.76
-28.41
-33.41
-38.27
-42.29
-44.66
-44.71
-42.08
-36.78
-29.30
-20.42
-11.06
-2.08
5.83
12.27
17.12
20.52
22.79
24.25
25.17
25.66
25.65
25.08
23.93
22.34
20.59
18.98
17.72
16.88
16.37
16.04
15.73
15.33
14.76
13.91
12.69
10.99
8.74
5.96
2.76
-0.61
-3.87
-6.81
-9.34
-11.56
-13.66
-15.95
-18.69
-22.06
-26.08
-30.58
-35.20
-39.32
-42.20
-43.12
-41.60
-37.53
-31.30
-23.64
-15.42
-7.40
-0.08
6.32
11.78
16.27
19.69
21.88
22.72
22.27
20.79
18.75
16.67
14.93
13.71
12.97
12.58
12.38
12.27
12.21
12.10
11.75
10.91
9.35
6.96
3.92
0.59
-2.58
-5.23
-7.20
-8.63
-9.85
-11.22
-13.06
-15.54
-18.73
-22.59
-27.01
-31.68
-36.07
-39.44
-40.95
-39.92
-36.08
-29.71
-21.61
-12.75
-4.08
3.71
10.27
15.46
19.29
21.79
23.04
23.21
22.59
21.53
20.38
19.40
18.72
18.34
18.16
18.10
17.99
17.68
17.05
16.06
14.76
13.30
11.82
10.39
8.95
7.33
5.29
2.66
-0.57
-4.23
-8.03
-11.64
-14.84
-17.61
-20.20
-22.97
-26.35
-30.52
-35.27
-39.99
-43.68
-45.32
-44.18
-40.04
-33.28
-24.76
-15.58
-6.72
1.10
7.53
12.55
16.35
19.22
21.46
23.25
24.69
25.81
26.51
26.76
26.53
25.88
24.98
23.99
23.10
22.39
21.87
21.46
21.01
20.42
19.62
18.56
17.22
15.53
13.43
10.89
8.03
5.03
2.11
-0.65
-3.27
-5.99
-9.03
-12.58
-16.67
-21.22
-26.09
-31.07
-35.92
-40.22
-43.39
-44.72
-43.59
-39.68
-33.14
-24.63
-15.13
-5.66
2.93
10.14
15.85
20.17
23.31
25.51
26.95
27.77
28.12
28.10
27.84
27.42
26.92
26.39
25.90
25.45
25.06
24.69
24.29
23.86
23.33
22.66
21.73
20.44
18.65
16.31
13.50
10.39
7.21
4.15
1.30
-1.33
-3.85
-6.45
-9.28
-12.49
-16.16
-20.20
-24.33
-28.12
-31.03
-32.59
-32.61
-31.23
-28.80
-25.75
-22.35
-18.71
-14.73
-10.32
-5.49
-0.44
4.50
8.97
12.65
15.36
17.02
17.67
17.41
16.49
15.19
13.87
12.87
12.38
12.44
12.90
13.49
13.94
14.09
13.88
13.34
12.47
11.22
9.50
7.23
4.50
1.47
-1.58
-4.46
-7.11
-9.62
-12.21
-15.11
-18.52
-22.50
-26.93
-31.44
-35.45
-38.24
-39.16
-37.73
-33.85
-27.78
-20.07
-11.45
-2.64
5.67
12.94
18.82
23.13
25.90
27.33
27.72
27.38
26.61
25.64
24.67
23.83
23.18
22.69
22.23
21.63
20.79
19.69
18.41
17.10
15.89
14.79
13.72
12.48
10.87
8.77
6.14
3.08
-0.21
-3.51
-6.64
-9.50
-12.17
-14.85
-17.80
-21.29
-25.42
-30.07
-34.87
-39.20
-42.35
-43.63
-42.54
-38.89
-32.87
-25.01
-16.16
-7.20
1.09
8.23
14.03
18.48
21.71
23.83
24.98
25.29
25.00
24.39
23.74
23.26
23.05
23.10
23.30
23.54
23.67
23.58
23.16
22.31
21.00
19.23
17.09
14.69
12.14
9.52
6.87
4.17
1.40
-1.44
-4.33
-7.21
-10.02
-12.70
-15.25
-17.82
-20.64
-24.03
-28.19
-33.00
-37.93
-42.08
-44.42
-44.15
-40.93
-35.05
-27.23
-18.39
-9.38
-0.89
6.64
12.98
18.02
21.81
24.52
26.39
27.61
28.28
28.37
27.80
26.54
24.74
22.67
20.65
18.95
17.71
16.88
16.34
15.91
15.47
14.90
14.09
12.97
11.44
9.43
6.94
4.08
1.05
-1.95
-4.76
-7.35
-9.81
-12.38
-15.34
-18.93
-23.24
-28.15
-33.26
-37.95
-41.46
-43.08
-42.34
-39.07
-33.51
-26.23
-18.01
-9.64
-1.82
4.99
10.55
14.80
17.81
19.69
20.59
20.69
20.16
19.26
18.21
17.19
16.29
15.51
14.80
14.10
13.44
12.83
12.35
12.00
11.72
11.36
10.73
9.63
7.97
5.73
2.99
-0.12
-3.45
-6.87
-10.29
-13.64
-16.98
-20.45
-24.28
-28.63
-33.41
-38.14
-41.94
-43.77
-42.74
-38.52
-31.43
-22.38
-12.55
-3.05
5.34
12.21
17.46
21.12
23.33
24.29
24.24
23.52
22.45
21.30
20.23
19.29
18.50
17.86
17.38
17.03
16.73
16.37
15.88
15.19
14.37
13.48
12.55
11.49
10.14
8.30
5.89
2.96
-0.27
-3.56
-6.70
-9.59
-12.32
-15.10
-18.16
-21.73
-25.90
-30.57
-35.38
-39.76
-42.96
-44.27
-43.18
-39.58
-33.77
-26.43
-18.34
-10.25
-2.65
4.18
10.14
15.22
19.42
22.69
25.02
26.38
26.86
26.59
25.79
24.68
23.55
22.56
21.74
21.03
20.29
19.42
18.46
17.54
16.79
16.26
15.78
15.08
13.90
12.10
9.71
6.94
4.00
1.03
-1.92
-4.84
-7.75
-10.62
-13.53
-16.63
-20.15
-24.24
-28.85
-33.54
-37.56
-39.94
-39.87
-36.96
-31.39
-23.87
-15.44
-7.07
0.50
6.95
12.25
16.57
20.03
22.65
24.41
25.29
25.41
25.01
24.34
23.55
22.67
21.66
20.49
19.27
18.17
17.33
16.78
16.36
15.79
14.83
13.40
11.54
9.40
7.11
4.72
2.28
-0.14
-2.41
-4.37
-5.98
-7.35
-8.82
-10.82
-13.71
-17.66
-22.52
-27.74
-32.52
-36.00
-37.42
-36.36
-32.82
-27.20
-20.17
-12.46
-4.80
2.24
8.29
13.11
16.63
18.89
20.01
20.17
19.56
18.40
16.91
15.31
13.80
12.53
11.55
10.82
10.25
9.71
9.16
8.61
8.08
7.54
6.88
5.88
4.40
2.33
-0.20
-2.94
-5.57
-7.86
-9.76
-11.43
-13.19
-15.42
-18.40
-22.26
-26.82
-31.58
-35.75
-38.44
-38.83
-36.47
-31.44
-24.32
-16.08
-7.75
-0.19
6.12
11.08
14.86
17.77
20.07
21.83
22.99
23.39
22.98
21.90
20.43
18.95
17.76
16.90
16.27
15.65
14.91
14.05
13.23
12.59
12.17
11.83
11.34
10.42
8.91
6.78
4.14
1.20
-1.82
-4.69
-7.27
-9.51
-11.49
-13.54
-16.08
-19.58
-24.27
-29.96
-35.98
-41.26
-44.66
-45.27
-42.68
-37.11
-29.33
-20.40
-11.43
-3.31
3.36
8.38
11.84
14.04
15.33
16.01
16.31
16.37
16.32
16.23
16.18
16.15
16.11
15.98
15.71
15.28
14.73
14.10
13.49
12.92
12.40
11.90
11.35
10.61
9.50
7.83
5.54
2.70
-0.44
-3.61
-6.58
-9.30
-11.88
-14.51
-17.38
-20.65
-24.39
-28.49
-32.70
-36.52
-39.22
-40.04
-38.37
-34.00
-27.28
-18.98
-10.13
-1.69
5.64
11.51
15.90
18.96
20.87
21.85
22.12
21.92
21.44
20.86
20.20
19.44
18.54
17.52
16.50
15.62
14.99
14.62
14.38
14.12
13.70
13.04
12.12
10.95
9.51
7.85
5.99
3.96
1.78
-0.52
-2.94
-5.45
-8.01
-10.62
-13.35
-16.34
-19.77
-23.73
-28.10
-32.55
-36.44
-39.05
-39.67
-37.82
-33.44
-26.92
-19.04
-10.80
-3.07
3.55
8.82
12.81
15.70
17.68
18.90
19.43
19.35
18.80
17.96
16.99
16.05
15.21
14.48
13.83
13.22
12.65
12.22
12.04
12.21
12.67
13.20
13.41
12.90
11.41
8.90
5.62
1.95
-1.72
-5.12
-8.18
-10.98
-13.72
-16.59
-19.78
-23.43
-27.53
-31.91
-36.08
-39.32
-40.75
-39.62
-35.66
-29.19
-21.08
-12.46
-4.37
2.57
8.15
12.53
15.96
18.64
20.67
22.06
22.85
23.11
22.89
22.24
21.19
19.85
18.42
17.13
16.17
15.61
15.33
15.16
14.90
14.45
13.76
12.84
11.69
10.31
8.66
6.79
4.77
2.68
0.53
-1.72
-4.17
-6.91
-9.87
-12.91
-15.84
-18.55
-21.16
-23.95
-27.24
-31.17
-35.50
-39.59
-42.52
-43.40
-41.60
-37.08
-30.25
-21.94
-13.14
-4.75
2.62
8.65
13.35
16.89
19.55
21.57
23.10
24.19
24.84
25.04
24.77
24.09
23.06
21.81
20.50
19.34
18.53
18.24
18.53
19.24
20.06
20.62
20.58
19.81
18.35
16.38
14.19
11.94
9.69
7.38
4.90
2.17
-0.82
-3.98
-7.21
-10.37
-13.38
-16.25
-19.05
-21.96
-25.20
-28.90
-33.06
-37.40
-41.40
-44.31
-45.35
-43.96
-39.94
-33.61
-25.68
-17.03
-8.51
-0.74
5.89
11.27
15.45
18.59
20.90
22.60
23.88
24.91
25.72
26.26
26.42
26.11
25.32
24.18
22.93
21.87
21.20
21.04
21.24
21.55
21.69
21.43
20.67
19.44
17.81
15.87
13.72
11.44
9.10
6.70
4.17
1.40
-1.65
-4.95
-8.29
-11.40
-14.08
-16.31
-18.31
-20.43
-23.04
-26.27
-30.03
-33.88
-37.22
-39.31
-39.50
-37.40
-33.00
-26.67
-19.14
-11.28
-3.88
2.44
7.42
11.06
13.55
15.13
16.03
16.46
16.52
16.33
15.93
15.36
14.67
13.95
13.34
13.00
13.02
13.41
14.08
14.82
15.41
15.66
15.46
14.76
13.53
11.75
9.45
6.73
3.82
0.94
-1.69
-3.99
-6.02
-7.98
-10.05
-12.44
-15.27
-18.63
-22.53
-26.87
-31.39
-35.63
-38.99
-40.76
-40.39
-37.62
-32.62
-25.91
-18.20
-10.23
-2.65
4.09
9.74
14.21
17.58
20.02
21.81
23.16
24.15
24.73
24.76
24.15
23.00
21.58
20.27
19.35
18.88
18.67
18.43
17.94
17.16
16.19
15.18
14.18
13.10
11.77
10.01
7.82
5.27
2.56
-0.17
-2.83
-5.44
-8.05
-10.71
-13.49
-16.45
-19.72
-23.45
-27.78
-32.68
-37.88
-42.77
-46.57
-48.44
-47.81
-44.50
-38.79
-31.35
-22.99
-14.44
-6.33
0.91
7.02
11.93
15.68
18.48
20.60
22.21
23.38
24.05
24.09
23.48
22.33
20.92
19.53
18.34
17.43
16.73
16.14
15.56
14.96
14.26
13.47
12.55
11.49
10.29
8.89
7.25
5.36
3.23
0.92
-1.50
-4.00
-6.63
-9.44
-12.52
-15.95
-19.76
-24.02
-28.73
-33.82
-39.01
-43.77
-47.37
-48.98
-47.93
-43.92
-37.14
-28.23
-18.18
-8.07
1.23
9.15
15.47
20.23
23.56
25.58
26.42
26.25
25.37
24.17
23.00
22.09
21.44
20.96
20.49
19.98
19.49
19.06
18.70
18.27
17.61
16.60
15.28
13.76
12.13
10.42
8.53
6.31
3.68
0.66
-2.59
-5.85
-8.95
-11.78
-14.42
-17.06
-19.99
-23.52
-27.79
-32.69
-37.77
-42.25
-45.22
-45.88
-43.78
-38.94
-31.92
-23.60
-14.99
-6.92
0.03
5.66
10.04
13.41
16.03
18.06
19.54
20.42
20.62
20.14
19.15
17.94
16.84
16.07
15.68
15.52
15.37
15.01
14.34
13.40
12.28
11.05
9.69
8.07
6.04
3.53
0.56
-2.65
-5.84
-8.76
-11.24
-13.31
-15.18
-17.18
-19.68
-22.96
-27.11
-31.93
-36.86
-41.08
-43.66
-43.84
-41.23
-35.96
-28.61
-20.02
-11.12
-2.64
4.89
11.22
16.23
19.87
22.15
23.11
22.96
21.96
20.51
19.01
17.79
17.07
16.90
17.19
17.77
18.43
19.00
19.36
19.50
19.44
19.17
18.67
17.84
16.56
14.74
12.37
9.58
6.53
3.39
0.27
-2.82
-5.94
-9.21
-12.69
-16.44
-20.47
-24.88
-29.70
-34.84
-39.95
-44.38
-47.26
-47.76
-45.39
-40.20
-32.76
-23.99
-14.86
-6.14
1.66
8.33
13.84
18.27
21.77
24.47
26.47
27.84
28.60
28.82
28.62
28.23
27.87
27.71
27.79
28.00
28.16
28.10
27.75
27.12
26.29
25.32
24.17
22.74
20.86
18.39
15.31
11.75
7.93
4.08
0.40
-3.02
-6.11
-8.89
-11.42
-13.84
-16.38
-19.34
-23.00
-27.45
-32.50
-37.57
-41.82
-44.25
-44.06
-40.91
-35.03
-27.21
-18.53
-10.03
-2.43
4.04
9.45
14.06
18.06
21.51
24.31
26.39
27.67
28.19
28.04
27.39
26.39
25.21
23.99
22.80
21.72
20.77
19.97
19.31
18.71
18.06
17.16
15.85
14.02
11.70
9.01
6.16
3.37
0.75
-1.68
-4.03
-6.43
-9.04
-11.99
-15.41
-19.36
-23.85
-28.74
-33.61
-37.80
-40.50
-40.90
-38.53
-33.42
-26.16
-17.72
-9.14
-1.24
5.56
11.13
15.59
19.06
21.65
23.44
24.50
24.94
24.87
24.40
23.58
22.49
21.19
19.81
18.48
17.33
16.41
15.74
15.30
15.01
14.80
14.53
14.03
13.17
11.83
10.02
7.78
5.21
2.39
-0.63
-3.77
-6.96
-10.12
-13.25
-16.44
-19.90
-23.86
-28.44
-33.53
-38.61
-42.88
-45.42
-45.47
-42.65
-37.12
-29.54
-20.87
-12.11
-4.03
2.91
8.61
13.20
16.87
19.76
21.96
23.43
24.18
24.31
24.00
23.52
23.10
22.83
22.65
22.47
22.23
21.93
21.63
21.35
21.02
20.49
19.63
18.33
16.62
14.58
12.32
9.89
7.30
4.51
1.50
-1.69
-4.97
-8.18
-11.24
-14.15
-17.09
-20.37
-24.28
-28.91
-33.95
-38.73
-42.30
-43.74
-42.46
-38.34
-31.84
-23.78
-15.13
-6.75
0.78
7.20
12.49
16.80
20.33
23.21
25.43
26.94
27.67
27.66
27.02
25.97
24.75
23.53
22.38
21.30
20.24
19.18
18.15
17.19
16.28
15.39
14.42
13.21
11.65
9.68
7.33
4.75
2.14
-0.27
-2.32
-4.02
-5.55
-7.16
-9.14
-11.71
-14.97
-18.96
-23.55
-28.46
-33.21
-37.08
-39.24
-38.99
-36.00
-30.52
-23.29
-15.37
-7.75
-1.09
4.35
8.66
12.03
14.60
16.42
17.51
17.93
17.88
17.59
17.26
16.95
16.67
16.35
16.04
15.81
15.76
15.88
16.07
16.10
15.76
14.91
13.52
11.69
9.54
7.16
4.58
1.84
-1.02
-3.90
-6.67
-9.24
-11.65
-14.08
-16.83
-20.20
-24.33
-29.03
-33.75
-37.65
-39.80
-39.50
-36.48
-31.01
-23.82
-15.84
-7.92
-0.70
5.49
10.56
14.53
17.49
19.52
20.75
21.32
21.41
21.13
20.58
19.80
18.87
17.88
16.96
16.22
15.71
15.43
15.25
15.06
14.74
14.24
13.57
12.74
11.76
10.57
9.09
7.25
5.04
2.56
-0.05
-2.67
-5.24
-7.79
-10.39
-13.13
-16.11
-19.43
-23.20
-27.47
-32.11
-36.74
-40.66
-43.03
-43.09
-40.42
-35.10
-27.72
-19.21
-10.58
-2.66
4.09
9.52
13.77
17.04
19.51
21.29
22.38
22.85
22.86
22.59
22.22
21.78
21.16
20.25
19.03
17.69
16.60
16.11
16.35
17.14
17.99
18.35
17.85
16.45
14.40
12.14
10.03
8.18
6.45
4.58
2.38
-0.21
-3.05
-5.93
-8.73
-11.48
-14.33
-17.50
-21.19
-25.48
-30.25
-35.13
-39.48
-42.49
-43.36
-41.52
-36.91
-29.98
-21.62
-12.88
-4.71
2.31
7.94
12.27
15.48
17.80
19.37
20.32
20.81
20.96
20.91
20.71
20.33
19.69
18.76
17.60
16.40
15.39
14.73
14.42
14.30
14.10
13.62
12.74
11.49
9.98
8.26
6.38
4.32
2.06
-0.35
-2.85
-5.35
-7.79
-10.24
-12.78
-15.52
-18.58
-22.02
-25.79
-29.80
-33.73
-37.14
-39.45
-40.07
-38.58
-34.89
-29.30
-22.40
-14.95
-7.61
-0.85
5.07
9.99
13.86
16.62
18.29
19.00
19.03
18.72
18.36
18.06
17.73
17.26
16.59
15.84
15.23
14.94
14.97
15.13
15.13
14.75
13.97
12.93
11.76
10.49
8.94
6.90
4.23
1.04
-2.36
-5.56
-8.27
-10.42
-12.17
-13.88
-15.93
-18.65
-22.18
-26.48
-31.26
-36.00
-40.01
-42.56
-43.02
-41.06
-36.70
-30.40
-22.86
-14.89
-7.19
-0.22
5.78
10.72
14.61
17.45
19.33
20.37
20.79
20.79
20.56
20.17
19.65
18.99
18.29
17.67
17.25
17.05
16.96
16.81
16.43
15.81
15.02
14.21
13.47
12.76
11.92
10.74
9.08
6.91
4.33
1.52
-1.36
-4.18
-6.87
-9.40
-11.82
-14.26
-16.96
-20.19
-24.17
-28.87
-33.92
-38.60
-41.98
-43.21
-41.72
-37.49
-30.98
-23.01
-14.55
-6.40
0.87
6.99
11.93
15.77
18.64
20.68
22.00
22.71
22.92
22.73
22.22
21.49
20.64
19.76
18.91
18.14
17.43
16.77
16.10
15.40
14.63
13.74
12.71
11.47
9.98
8.21
6.16
3.84
1.27
-1.45
-4.23
-6.99
-9.66
-12.20
-14.63
-17.02
-19.53
-22.33
-25.60
-29.36
-33.31
-36.83
-39.09
-39.24
-36.79
-31.75
-24.68
-16.51
-8.20
-0.52
6.09
11.46
15.60
18.55
20.37
21.18
21.17
20.59
19.72
18.74
17.74
16.74
15.73
14.77
13.95
13.36
13.05
12.97
12.97
12.86
12.43
11.52
10.06
8.11
5.78
3.27
0.71
-1.79
-4.20
-6.57
-8.94
-11.36
-13.90
-16.67
-19.82
-23.49
-27.69
-32.22
-36.59
-40.14
-42.14
-42.08
-39.71
-35.12
-28.73
-21.15
-13.12
-5.29
1.79
7.75
12.41
15.79
18.04
19.36
19.96
20.06
19.79
19.29
18.64
17.92
17.22
16.69
16.42
16.44
16.66
16.91
16.97
16.73
16.17
15.37
14.43
13.37
12.10
10.44
8.24
5.44
2.16
-1.33
-4.74
-7.86
-10.63
-13.16
-15.74
-18.70
-22.32
-26.73
-31.77
-36.97
-41.59
-44.76
-45.65
-43.72
-38.93
-31.78
-23.19
-14.24
-5.90
1.22
6.91
11.31
14.68
17.30
19.32
20.79
21.73
22.15
22.15
21.82
21.29
20.62
19.89
19.15
18.51
18.03
17.69
17.37
16.92
16.24
15.34
14.32
13.29
12.26
11.10
9.57
7.46
4.73
1.55
-1.77
-4.94
-7.79
-10.36
-12.80
-15.32
-18.16
-21.43
-25.18
-29.25
-33.29
-36.72
-38.80
-38.84
-36.40
-31.51
-24.72
-16.90
-9.06
-1.94
4.06
8.91
12.81
15.89
18.16
19.48
19.82
19.30
18.31
17.28
16.54
16.12
15.75
15.14
14.14
12.88
11.69
10.92
10.67
10.78
10.86
10.58
9.77
8.49
6.90
5.13
3.23
1.11
-1.26
-3.85
-6.55
-9.24
-11.93
-14.77
-18.06
-22.02
-26.65
-31.60
-36.17
-39.50
-40.79
-39.54
-35.71
-29.74
-22.41
-14.61
-7.06
-0.21
5.74
10.78
14.91
18.14
20.45
21.92
22.69
22.94
22.84
22.47
21.91
21.22
20.48
19.81
19.27
18.88
18.56
18.20
17.73
17.11
16.30
15.28
13.94
12.20
9.98
7.29
4.30
1.23
-1.65
-4.20
-6.49
-8.74
-11.30
-14.45
-18.38
-23.05
-28.24
-33.61
-38.71
-42.97
-45.80
-46.65
-45.15
-41.26
-35.27
-27.83
-19.67
-11.51
-3.89
2.92
8.78
13.77
17.97
21.50
24.42
26.71
28.29
29.12
29.21
28.74
27.98
27.24
26.69
26.44
26.37
26.32
26.10
25.60
24.74
23.50
21.92
20.04
17.93
15.69
13.38
11.03
8.66
6.26
3.85
1.48
-0.77
-2.82
-4.67
-6.39
-8.25
-10.59
-13.72
-17.77
-22.56
-27.51
-31.77
-34.44
-34.75
-32.30
-27.16
-19.91
-11.65
-3.74
2.49
6.22
7.43
6.89
5.82
5.35
6.05
7.82
10.07
12.19
13.81
14.94
15.81
16.61
17.37
18.01
18.44
18.67
18.76
18.81
18.81
18.61
18.05
16.96
15.25
12.97
10.30
7.49
4.81
2.48
0.52
-1.17
-2.81
-4.63
-6.76
-9.20
-11.85
-14.65
-17.58
-20.70
-24.01
-27.35
-30.37
-32.52
-33.25
-32.16
-29.15
-24.45
-18.56
-12.15
-5.86
-0.24
4.43
8.06
10.74
12.59
13.72
14.22
14.16
13.70
13.09
12.66
12.61
13.05
13.86
14.79
15.58
16.09
16.32
16.39
16.42
16.41
16.23
15.63
14.36
12.36
9.76
6.85
3.98
1.34
-1.01
-3.22
-5.41
-7.68
-10.06
-12.60
-15.39
-18.61
-22.30
-26.27
-29.97
-32.64
-33.47
-31.96
-28.14
-22.49
-15.89
-9.21
-3.14
2.00
6.19
9.59
12.44
14.85
16.84
18.35
19.33
19.79
19.83
19.56
19.13
18.61
18.08
17.59
17.21
16.93
16.74
16.50
16.04
15.23
14.01
12.45
10.66
8.77
6.82
4.84
2.83
0.82
-1.16
-3.06
-4.91
-6.75
-8.65
-10.65
-12.79
-15.09
-17.63
-20.52
-23.80
-27.31
-30.63
-33.10
-34.02
-32.85
-29.42
-24.00
-17.23
-9.96
-3.01
3.01
7.80
11.34
13.82
15.49
16.59
17.30
17.69
17.83
17.73
17.40
16.89
16.21
15.43
14.63
13.93
13.49
13.40
13.68
14.21
14.78
15.13
15.10
14.60
13.67
12.42
10.93
9.23
7.28
5.10
2.71
0.22
-2.22
-4.51
-6.60
-8.54
-10.49
-12.63
-15.14
-18.15
-21.61
-25.25
-28.58
-30.98
-31.83
-30.74
-27.63
-22.80
-16.83
-10.43
-4.24
1.26
5.85
9.51
12.30
14.31
15.59
16.17
16.15
15.70
15.04
14.34
13.68
13.07
12.46
11.82
11.18
10.57
10.06
9.65
9.39
9.30
9.38
9.55
9.69
9.60
9.12
8.18
6.77
5.00
2.93
0.68
-1.60
-3.80
-5.81
-7.68
-9.60
-11.89
-14.80
-18.40
-22.43
-26.34
-29.46
-31.12
-30.87
-28.59
-24.48
-19.06
-13.00
-7.01
-1.68
2.69
6.02
8.47
10.25
11.53
12.41
12.91
13.01
12.77
12.25
11.61
11.00
10.54
10.26
10.11
9.95
9.59
8.91
7.86
6.56
5.16
3.82
2.58
1.39
0.13
-1.24
-2.66
-4.04
-5.26
-6.38
-7.53
-8.91
-10.64
-12.73
-15.16
-17.87
-20.86
-24.01
-27.09
-29.60
-30.95
-30.55
-28.09
-23.70
-17.89
-11.47
-5.16
0.46
5.15
8.91
11.88
14.17
15.89
17.08
17.78
18.02
17.87
17.37
16.56
15.52
14.37
13.25
12.31
11.61
11.15
10.85
10.63
10.40
10.11
9.70
9.10
8.18
6.81
4.91
2.54
-0.10
-2.73
-5.07
-6.97
-8.52
-9.97
-11.65
-13.79
-16.51
-19.79
-23.50
-27.44
-31.29
-34.58
-36.71
-37.13
-35.46
-31.68
-26.16
-19.50
-12.44
-5.57
0.66
5.96
10.20
13.34
15.47
16.76
17.42
17.66
17.59
17.24
16.63
15.81
14.90
14.07
13.46
13.11
12.96
12.83
12.60
12.24
11.82
11.44
11.15
10.88
10.40
9.49
7.94
5.74
3.05
0.14
-2.71
-5.29
-7.54
-9.56
-11.46
-13.35
-15.28
-17.29
-19.46
-21.93
-24.76
-27.84
-30.81
-32.99
-33.66
-32.29
-28.73
-23.39
-17.00
-10.40
-4.28
0.98
5.29
8.73
11.41
13.43
14.89
15.86
16.46
16.82
16.99
17.00
16.84
16.54
16.15
15.81
15.61
15.56
15.58
15.54
15.31
14.80
14.00
12.97
11.79
10.52
9.22
7.89
6.48
4.91
3.09
0.94
-1.54
-4.25
-6.98
-9.56
-11.83
-13.82
-15.72
-17.85
-20.50
-23.81
-27.62
-31.41
-34.43
-35.89
-35.23
-32.33
-27.50
-21.37
-14.74
-8.28
-2.47
2.48
6.51
9.69
12.06
13.65
14.53
14.78
14.58
14.13
13.58
13.02
12.44
11.83
11.20
10.68
10.38
10.41
10.72
11.09
11.30
11.17
10.65
9.85
8.84
7.62
6.14
4.34
2.25
0.03
-2.02
-3.72
-5.00
-6.08
-7.40
-9.42
-12.49
-16.63
-21.48
-26.38
-30.53
-33.21
-33.95
-32.62
-29.40
-24.64
-18.80
-12.41
-6.04
-0.25
4.53
8.09
10.46
11.93
12.83
13.43
13.82
13.97
13.81
13.42
12.92
12.51
12.24
12.06
11.77
11.18
10.22
8.98
7.68
6.47
5.43
4.52
3.60
2.54
1.26
-0.29
-2.04
-3.90
-5.76
-7.47
-8.98
-10.30
-11.55
-12.91
-14.60
-16.80
-19.62
-22.97
-26.58
-29.96
-32.52
-33.61
-32.75
-29.78
-24.95
-18.85
-12.26
-5.92
-0.39
4.12
7.64
10.36
12.51
14.20
15.52
16.45
17.00
17.25
17.31
17.29
17.25
17.14
16.89
16.47
15.87
15.20
14.51
13.82
13.09
12.23
11.24
10.14
8.99
7.81
6.53
4.95
2.91
0.31
-2.73
-5.94
-8.99
-11.62
-13.75
-15.55
-17.37
-19.63
-22.59
-26.23
-30.14
-33.57
-35.61
-35.55
-33.04
-28.28
-21.87
-14.63
-7.37
-0.67
5.15
9.96
13.74
16.54
18.47
19.72
20.48
20.94
21.18
21.20
20.90
20.23
19.23
17.99
16.64
15.34
14.16
13.17
12.42
11.91
11.57
11.24
10.68
9.65
8.02
5.85
3.37
0.88
-1.38
-3.32
-5.04
-6.73
-8.60
-10.79
-13.36
-16.34
-19.70
-23.39
-27.19
-30.72
-33.42
-34.69
-34.09
-31.41
-26.84
-20.87
-14.13
-7.25
-0.78
4.91
9.54
13.00
15.23
16.31
16.48
16.04
15.30
14.57
13.99
13.60
13.32
13.08
12.81
12.52
12.27
12.11
12.02
11.92
11.63
11.01
9.96
8.43
6.47
4.18
1.66
-0.96
-3.57
-6.06
-8.35
-10.43
-12.41
-14.51
-16.99
-20.05
-23.67
-27.49
-30.90
-33.18
-33.70
-32.12
-28.50
-23.15
-16.62
-9.50
-2.38
4.19
9.78
14.11
17.05
18.70
19.28
19.07
18.35
17.36
16.31
15.33
14.51
13.85
13.26
12.63
11.90
11.11
10.38
9.85
9.63
9.68
9.88
9.98
9.78
9.05
7.69
5.73
3.30
0.61
-2.13
-4.73
-7.12
-9.38
-11.70
-14.36
-17.61
-21.51
-25.92
-30.39
-34.20
-36.62
-37.00
-35.10
-31.07
-25.41
-18.79
-11.86
-5.15
0.98
6.28
10.63
14.01
16.50
18.27
19.49
20.29
20.72
20.82
20.67
20.42
20.24
20.21
20.28
20.24
19.85
19.00
17.81
16.52
15.38
14.51
13.79
12.96
11.74
10.00
7.77
5.23
2.57
-0.05
-2.58
-5.00
-7.33
-9.59
-11.81
-14.15
-16.82
-20.09
-24.07
-28.62
-33.22
-37.11
-39.38
-39.35
-36.70
-31.61
-24.71
-16.85
-8.85
-1.31
5.39
11.06
15.63
19.09
21.48
22.93
23.63
23.83
23.69
23.33
22.77
22.04
21.24
20.52
20.04
19.87
19.92
19.97
19.76
19.12
18.08
16.77
15.39
14.09
12.88
11.64
10.19
8.35
6.02
3.25
0.17
-3.02
-6.16
-9.18
-12.16
-15.32
-18.91
-23.12
-27.93
-33.08
-37.95
-41.79
-43.77
-43.30
-40.18
-34.67
-27.43
-19.38
-11.40
-4.15
2.00
7.00
10.93
13.92
16.08
17.48
18.22
18.45
18.33
18.05
17.73
17.47
17.29
17.14
17.00
16.85
16.67
16.43
16.10
15.64
14.98
14.05
12.84
11.29
9.40
7.17
4.64
1.91
-0.90
-3.63
-6.20
-8.60
-10.98
-13.61
-16.78
-20.65
-25.13
-29.84
-34.09
-37.09
-38.12
-36.76
-32.96
-27.14
-20.02
-12.42
-5.10
1.42
6.94
11.50
15.28
18.41
20.95
22.85
24.01
24.41
24.16
23.47
22.61
21.80
21.17
20.77
20.58
20.57
20.67
20.76
20.73
20.39
19.63
18.38
16.69
14.67
12.45
10.11
7.69
5.15
2.48
-0.39
-3.42
-6.62
-9.92
-13.33
-16.83
-20.51
-24.51
-28.91
-33.60
-38.24
-42.13
-44.40
-44.28
-41.30
-35.58
-27.81
-18.99
-10.18
-2.16
4.70
10.37
15.03
18.87
21.99
24.40
26.11
27.16
27.64
27.67
27.35
26.77
26.07
25.39
24.90
24.74
24.88
25.16
25.29
25.02
24.19
22.80
20.94
18.74
16.32
13.75
11.11
8.49
5.95
3.49
1.04
-1.52
-4.27
-7.26
-10.45
-13.83
-17.42
-21.33
-25.63
-30.19
-34.61
-38.18
-40.10
-39.72
-36.80
-31.54
-24.63
-16.92
-9.26
-2.26
3.77
8.80
12.93
16.31
19.04
21.15
22.65
23.55
23.91
23.84
23.47
22.94
22.31
21.64
20.93
20.23
19.54
18.90
18.28
17.64
16.92
16.04
14.95
13.58
11.86
9.77
7.33
4.65
1.90
-0.72
-3.09
-5.23
-7.26
-9.39
-11.82
-14.70
-18.07
-21.87
-25.90
-29.87
-33.26
-35.49
-35.97
-34.29
-30.45
-24.82
-18.11
-11.15
-4.62
1.08
5.81
9.64
12.66
14.86
16.22
16.71
16.38
15.45
14.20
12.86
11.54
10.19
8.63
6.73
4.38
1.63
-1.40
-4.54
-7.72
-10.97
-14.42
-18.26
-22.66
-27.72
-33.40
-39.55
-46.00
-52.60
-59.25
-65.96
-72.79
-79.87
-87.36
-95.40
-104.12
-113.49
-123.29
-132.99
-141.84
-148.95
-153.46
-154.78
-152.61
-146.91
-137.77
-125.23
-109.24
-89.78
-66.95
-41.21
-13.37
15.46
43.98
70.95
95.29
116.20
133.12
145.79
154.24
158.75
159.77
157.90
153.72
147.80
140.66
132.80
124.67
116.63
108.92
101.60
94.60
87.69
80.68
73.48
66.06
58.55
51.05
43.68
36.56
29.76
23.31
17.17
11.22
5.29
-0.82
-7.16
-13.61
-19.76
-24.98
-28.51
-29.67
-28.08
-23.84
-17.52
-10.02
-2.34
4.68
10.55
15.09
18.37
20.62
22.05
22.88
23.26
23.36
23.28
23.04
22.61
21.94
21.05
20.00
18.97
18.10
17.42
16.82
16.11
15.09
13.67
11.91
10.02
8.21
6.64
5.33
4.15
2.90
1.37
-0.56
-2.84
-5.32
-7.74
-9.94
-11.89
-13.76
-15.91
-18.73
-22.45
-27.03
-32.05
-36.84
-40.61
-42.65
-42.48
-39.90
-35.09
-28.51
-20.85
-12.83
-5.09
1.92
7.98
12.99
16.98
19.95
21.92
22.94
23.13
22.64
21.70
20.51
19.26
18.09
17.12
16.40
15.88
15.45
15.01
14.49
13.94
13.45
13.04
12.65
12.05
11.05
9.61
7.86
6.07
4.44
2.94
1.36
-0.54
-2.88
-5.53
-8.21
-10.70
-12.94
-15.16
-17.67
-20.78
-24.55
-28.78
-33.05
-36.80
-39.40
-40.28
-39.03
-35.55
-30.09
-23.28
-15.93
-8.81
-2.51
2.70
6.82
10.04
12.53
14.43
15.73
16.43
16.53
16.13
15.39
14.56
13.86
13.44
13.33
13.48
13.75
13.97
14.04
13.87
13.41
12.65
11.57
10.21
8.60
6.83
4.95
3.00
0.97
-1.16
-3.44
-5.81
-8.23
-10.63
-12.99
-15.35
-17.84
-20.62
-23.82
-27.41
-31.14
-34.52
-36.90
-37.58
-36.09
-32.30
-26.50
-19.31
-11.48
-3.80
3.14
8.98
13.57
16.90
19.08
20.26
20.62
20.40
19.82
19.10
18.41
17.84
17.36
16.94
16.60
16.41
16.53
17.01
17.80
18.64
19.20
19.16
18.36
16.85
14.79
12.37
9.75
7.02
4.20
1.34
-1.56
-4.48
-7.40
-10.29
-13.11
-15.79
-18.27
-20.62
-23.07
-25.93
-29.48
-33.72
-38.24
-42.32
-45.07
-45.78
-44.06
-39.97
-33.92
-26.54
-18.49
-10.38
-2.74
4.04
9.67
14.02
17.18
19.43
21.07
22.40
23.54
24.49
25.15
25.41
25.22
24.62
23.74
22.76
21.80
20.96
20.25
19.61
18.92
18.07
16.97
15.61
14.02
12.30
10.53
8.74
6.87
4.86
2.68
0.36
-2.02
-4.39
-6.70
-8.96
-11.19
-13.45
-15.83
-18.51
-21.68
-25.49
-29.85
-34.33
-38.20
-40.59
-40.82
-38.57
-33.99
-27.60
-20.15
-12.40
-5.04
1.47
6.85
11.01
14.04
16.06
17.21
17.61
17.40
16.74
15.86
15.00
14.35
14.00
13.89
13.89
13.82
13.55
13.06
12.43
11.76
11.18
10.73
10.32
9.77
8.85
7.46
5.58
3.36
0.95
-1.50
-3.97
-6.51
-9.15
-11.93
-14.86
-18.00
-21.42
-25.20
-29.25
-33.26
-36.63
-38.67
-38.73
-36.47
-31.95
-25.60
-18.13
-10.32
-2.84
3.85
9.52
14.07
17.48
19.73
20.83
20.86
20.03
18.71
17.31
16.18
15.45
15.08
14.87
14.62
14.23
13.72
13.14
12.59
12.05
11.52
10.96
10.30
9.46
8.33
6.75
4.60
1.88
-1.28
-4.62
-7.82
-10.67
-13.11
-15.31
-17.62
-20.39
-23.95
-28.34
-33.31
-38.25
-42.34
-44.72
-44.71
-42.07
-36.95
-29.87
-21.63
-13.04
-4.84
2.39
8.36
13.06
16.65
19.40
21.51
23.06
24.00
24.27
23.87
22.98
21.89
20.87
20.12
19.68
19.46
19.33
19.16
18.86
18.39
17.69
16.68
15.30
13.48
11.24
8.68
5.99
3.32
0.77
-1.69
-4.18
-6.78
-9.54
-12.35
-15.08
-17.72
-20.44
-23.55
-27.24
-31.45
-35.66
-39.03
-40.61
-39.71
-36.10
-30.10
-22.39
-13.85
-5.35
2.44
9.01
14.15
17.90
20.50
22.30
23.61
24.58
25.17
25.23
24.64
23.43
21.78
20.02
18.47
17.32
16.60
16.21
15.95
15.67
15.30
14.80
14.18
13.41
12.41
11.09
9.35
7.19
4.68
1.97
-0.78
-3.42
-5.89
-8.23
-10.61
-13.31
-16.61
-20.67
-25.35
-30.17
-34.43
-37.35
-38.31
-37.04
-33.65
-28.52
-22.22
-15.37
-8.54
-2.16
3.47
8.24
12.13
15.13
17.23
18.43
18.76
18.40
17.62
16.77
16.06
15.55
15.15
14.72
14.21
13.72
13.37
13.23
13.18
13.00
12.48
11.47
9.97
8.01
5.64
2.83
-0.36
-3.78
-7.15
-10.18
-12.78
-15.11
-17.62
-20.75
-24.67
-29.20
-33.76
-37.56
-39.86
-40.11
-38.06
-33.75
-27.50
-19.85
-11.45
-3.06
4.65
11.17
16.23
19.87
22.26
23.71
24.49
24.79
24.72
24.35
23.74
22.97
22.14
21.28
20.40
19.47
18.49
17.50
16.56
15.71
14.89
14.02
12.98
11.69
10.12
8.32
6.34
4.24
2.06
-0.21
-2.57
-4.99
-7.49
-10.11
-12.97
-16.21
-20.00
-24.43
-29.38
-34.46
-38.99
-42.15
-43.15
-41.53
-37.25
-30.75
-22.85
-14.48
-6.47
0.63
6.58
11.40
15.23
18.22
20.48
22.15
23.33
24.14
24.65
24.87
24.79
24.40
23.80
23.19
22.73
22.49
22.34
22.05
21.37
20.18
18.56
16.71
14.81
12.95
11.08
9.05
6.74
4.07
1.14
-1.89
-4.77
-7.33
-9.50
-11.37
-13.19
-15.28
-18.00
-21.54
-25.93
-30.88
-35.79
-39.76
-41.85
-41.29
-37.80
-31.72
-23.95
-15.62
-7.73
-0.91
4.72
9.34
13.22
16.52
19.23
21.29
22.65
23.37
23.61
23.55
23.30
22.95
22.49
21.92
21.25
20.51
19.71
18.88
18.03
17.14
16.20
15.19
14.09
12.86
11.46
9.83
7.90
5.62
2.98
0.04
-3.04
-6.09
-8.95
-11.59
-14.16
-16.92
-20.19
-24.13
-28.70
-33.47
-37.73
-40.57
-41.14
-38.90
-33.84
-26.54
-18.02
-9.46
-1.85
4.29
8.92
12.37
15.10
17.37
19.30
20.81
21.82
22.34
22.48
22.36
22.05
21.53
20.74
19.66
18.30
16.75
15.15
13.63
12.32
11.23
10.26
9.22
7.86
6.02
3.75
1.27
-1.10
-3.11
-4.73
-6.24
-7.97
-10.23
-13.12
-16.52
-20.24
-24.07
-27.90
-31.55
-34.73
-36.97
-37.69
-36.43
-33.03
-27.76
-21.25
-14.27
-7.51
-1.44
3.73
8.00
11.46
14.19
16.28
17.80
18.83
19.46
19.80
19.92
19.91
19.76
19.45
18.93
18.20
17.32
16.38
15.51
14.80
14.20
13.66
13.04
12.20
11.05
9.52
7.59
5.29
2.68
-0.11
-2.94
-5.61
-8.03
-10.15
-12.10
-14.11
-16.52
-19.63
-23.58
-28.10
-32.56
-36.02
-37.49
-36.35
-32.47
-26.35
-18.85
-10.93
-3.40
3.24
8.76
13.13
16.47
18.92
20.66
21.82
22.46
22.56
22.06
20.99
19.49
17.82
16.27
15.09
14.35
14.00
13.93
14.03
14.17
14.26
14.11
13.53
12.39
10.66
8.52
6.20
3.90
1.67
-0.61
-3.10
-5.89
-8.93
-12.07
-15.19
-18.33
-21.67
-25.39
-29.39
-33.26
-36.23
-37.47
-36.42
-32.96
-27.52
-20.84
-13.71
-6.80
-0.55
4.87
9.38
12.92
15.45
16.99
17.59
17.45
16.87
16.17
15.59
15.28
15.20
15.23
15.17
14.90
14.39
13.73
13.03
12.36
11.71
10.96
9.93
8.48
6.51
4.04
1.13
-2.06
-5.30
-8.33
-10.97
-13.14
-14.94
-16.66
-18.66
-21.25
-24.60
-28.60
-32.87
-36.77
-39.56
-40.53
-39.19
-35.42
-29.53
-22.16
-14.18
-6.44
0.45
6.19
10.75
14.26
16.92
18.86
20.12
20.70
20.61
19.97
18.94
17.77
16.62
15.58
14.64
13.75
12.87
12.03
11.35
10.92
10.75
10.77
10.79
10.60
10.05
9.09
7.69
5.87
3.65
1.11
-1.63
-4.41
-7.10
-9.67
-12.24
-15.07
-18.43
-22.51
-27.24
-32.23
-36.77
-39.98
-41.08
-39.54
-35.39
-29.10
-21.57
-13.80
-6.61
-0.55
4.29
8.06
11.04
13.51
15.63
17.46
19.03
20.33
21.37
22.11
22.48
22.38
21.77
20.77
19.64
18.68
18.15
18.03
18.15
18.17
17.83
16.99
15.66
13.97
12.02
9.88
7.54
5.05
2.46
-0.13
-2.69
-5.22
-7.80
-10.55
-13.61
-17.10
-21.07
-25.46
-30.01
-34.28
-37.62
-39.37
-39.01
-36.33
-31.53
-25.16
-17.93
-10.60
-3.73
2.32
7.39
11.46
14.53
16.61
17.75
18.00
17.54
16.62
15.57
14.68
14.14
13.93
13.92
13.92
13.77
13.44
13.00
12.57
12.20
11.85
11.37
10.59
9.40
7.79
5.80
3.50
0.97
-1.76
-4.67
-7.71
-10.84
-14.02
-17.30
-20.75
-24.50
-28.52
-32.57
-36.06
-38.23
-38.35
-36.01
-31.31
-24.85
-17.52
-10.23
-3.66
1.89
6.45
10.25
13.48
16.27
18.57
20.24
21.15
21.27
20.72
19.72
18.53
17.39
16.47
15.82
15.49
15.46
15.66
15.98
16.21
16.11
15.47
14.15
12.16
9.63
6.73
3.67
0.61
-2.31
-4.99
-7.42
-9.65
-11.83
-14.13
-16.77
-19.93
-23.71
-28.05
-32.68
-37.10
-40.61
-42.43
-41.98
-38.99
-33.72
-26.82
-19.17
-11.61
-4.70
1.33
6.50
10.92
14.63
17.62
19.86
21.33
22.14
22.47
22.52
22.42
22.20
21.83
21.26
20.49
19.65
18.90
18.35
18.02
17.77
17.36
16.60
15.41
13.89
12.19
10.44
8.66
6.75
4.58
2.05
-0.83
-3.94
-7.10
-10.16
-13.09
-15.94
-18.93
-22.27
-26.06
-30.19
-34.25
-37.60
-39.51
-39.43
-37.11
-32.71
-26.69
-19.67
-12.27
-4.99
1.80
7.86
13.01
17.16
20.26
22.34
23.52
23.94
23.81
23.31
22.58
21.73
20.84
19.97
19.18
18.51
17.97
17.56
17.20
16.79
16.22
15.44
14.46
13.30
11.99
10.55
8.99
7.32
5.55
3.71
1.82
-0.13
-2.15
-4.28
-6.57
-9.07
-11.86
-15.02
-18.65
-22.80
-27.41
-32.18
-36.59
-39.97
-41.58
-40.89
-37.74
-32.40
-25.51
-17.93
-10.50
-3.80
1.88
6.49
10.16
13.04
15.19
16.61
17.31
17.37
16.99
16.47
16.14
16.14
16.47
16.98
17.45
17.73
17.78
17.59
17.19
16.57
15.68
14.48
12.96
11.12
8.98
6.54
3.84
0.99
-1.81
-4.36
-6.53
-8.34
-9.95
-11.60
-13.58
-16.11
-19.34
-23.28
-27.70
-32.19
-36.08
-38.61
-39.15
-37.37
-33.36
-27.58
-20.71
-13.43
-6.30
0.25
5.92
10.55
14.07
16.55
18.24
19.43
20.36
21.16
21.78
22.08
21.97
21.47
20.74
20.01
19.44
19.08
18.86
18.61
18.17
17.43
16.32
14.86
13.16
11.36
9.64
8.10
6.67
5.17
3.33
0.97
-1.89
-4.97
-7.87
-10.24
-11.97
-13.28
-14.67
-16.70
-19.80
-24.06
-29.24
-34.73
-39.71
-43.29
-44.67
-43.37
-39.39
-33.17
-25.54
-17.46
-9.76
-2.96
2.75
7.43
11.26
14.38
16.90
18.90
20.40
21.45
22.03
22.14
21.78
21.04
20.07
19.10
18.35
17.98
18.00
18.33
18.78
19.10
19.06
18.49
17.38
15.85
14.11
12.37
10.74
9.15
7.37
5.18
2.48
-0.63
-3.86
-6.91
-9.56
-11.85
-14.01
-16.37
-19.23
-22.75
-26.84
-31.18
-35.25
-38.40
-39.98
-39.49
-36.70
-31.71
-25.00
-17.27
-9.35
-1.99
4.27
9.15
12.71
15.16
16.81
17.94
18.76
19.32
19.60
19.53
19.06
18.26
17.27
16.38
15.87
15.89
16.41
17.19
17.90
18.20
17.93
17.06
15.74
14.15
12.44
10.72
8.97
7.15
5.17
3.00
0.64
-1.83
-4.35
-6.84
-9.29
-11.77
-14.38
-17.30
-20.70
-24.62
-28.95
-33.33
-37.14
-39.63
-40.08
-38.02
-33.45
-26.82
-18.98
-10.91
-3.48
2.76
7.67
11.39
14.15
16.13
17.39
17.95
17.90
17.48
17.03
16.82
16.97
17.40
17.85
18.06
17.92
17.42
16.65
15.75
14.81
13.88
12.97
11.99
10.78
9.10
6.79
3.82
0.40
-3.13
-6.39
-9.15
-11.33
-13.17
-15.01
-17.28
-20.30
-24.18
-28.74
-33.50
-37.79
-40.85
-42.02
-40.90
-37.43
-31.89
-24.90
-17.20
-9.60
-2.78
2.85
7.23
10.53
13.07
15.14
16.87
18.26
19.23
19.76
19.86
19.65
19.21
18.65
18.11
17.69
17.49
17.53
17.71
17.87
17.83
17.45
16.67
15.55
14.12
12.42
10.45
8.18
5.64
2.88
-0.04
-3.07
-6.16
-9.29
-12.42
-15.53
-18.72
-22.08
-25.75
-29.69
-33.66
-37.17
-39.56
-40.24
-38.78
-35.14
-29.56
-22.59
-14.92
-7.23
-0.13
5.97
10.93
14.83
17.88
20.26
22.07
23.27
23.84
23.78
23.29
22.57
21.83
21.17
20.58
20.02
19.43
18.84
18.27
17.74
17.21
16.59
15.79
14.74
13.42
11.80
9.87
7.64
5.14
2.44
-0.35
-3.09
-5.68
-8.05
-10.21
-12.29
-14.49
-17.09
-20.31
-24.20
-28.54
-32.81
-36.28
-38.18
-37.94
-35.35
-30.61
-24.26
-17.02
-9.61
-2.63
3.50
8.54
12.41
15.19
17.02
18.09
18.58
18.60
18.19
17.41
16.36
15.24
14.27
13.62
13.33
13.32
13.44
13.55
13.59
13.52
13.29
12.79
11.90
10.52
8.67
6.45
4.08
1.71
-0.56
-2.73
-4.83
-6.93
-9.06
-11.31
-13.80
-16.71
-20.22
-24.37
-28.90
-33.30
-36.76
-38.49
-37.87
-34.70
-29.28
-22.25
-14.42
-6.59
0.60
6.75
11.67
15.36
17.94
19.63
20.67
21.31
21.72
21.99
22.12
22.02
21.61
20.88
19.93
18.97
18.22
17.82
17.69
17.60
17.25
16.39
14.98
13.15
11.13
9.11
7.14
5.14
2.96
0.47
-2.33
-5.31
-8.29
-11.05
-13.49
-15.69
-17.89
-20.48
-23.77
-27.91
-32.67
-37.48
-41.47
-43.77
-43.71
-41.00
-35.86
-28.83
-20.68
-12.18
-3.98
3.40
9.66
14.66
18.47
21.33
23.55
25.38
27.00
28.41
29.52
30.24
30.52
30.38
29.85
28.99
27.81
26.38
24.79
23.18
21.68
20.35
19.13
17.93
16.60
15.09
13.39
11.54
9.58
7.50
5.21
2.62
-0.28
-3.41
-6.58
-9.64
-12.52
-15.33
-18.35
-21.92
-26.26
-31.29
-36.50
-41.10
-44.17
-44.91
-42.94
-38.32
-31.56
-23.45
-14.83
-6.48
1.03
7.36
12.39
16.22
19.08
21.24
22.91
24.16
24.97
25.28
25.09
24.51
23.65
22.67
21.61
20.53
19.48
18.57
17.92
17.55
17.37
17.17
16.76
16.03
15.00
13.79
12.55
11.32
10.06
8.66
6.96
4.93
2.59
0.07
-2.52
-5.08
-7.60
-10.13
-12.83
-15.86
-19.37
-23.48
-28.10
-32.95
-37.51
-41.10
-42.98
-42.55
-39.56
-34.19
-27.07
-19.12
-11.27
-4.26
1.53
6.08
9.58
12.27
14.36
15.91
16.90
17.34
17.27
16.85
16.30
15.83
15.61
15.67
15.87
15.99
15.81
15.28
14.48
13.62
12.85
12.18
11.47
10.50
9.13
7.32
5.20
2.93
0.62
-1.72
-4.11
-6.55
-9.03
-11.47
-13.91
-16.48
-19.41
-22.86
-26.85
-31.09
-35.01
-37.90
-39.05
-38.02
-34.72
-29.44
-22.73
-15.29
-7.82
-0.84
5.29
10.39
14.39
17.35
19.35
20.54
21.12
21.27
21.17
20.88
20.42
19.77
19.01
18.26
17.67
17.35
17.26
17.20
16.91
16.21
15.07
13.64
12.11
10.58
9.10
7.60
5.97
4.13
2.03
-0.32
-2.90
-5.64
-8.45
-11.18
-13.75
-16.15
-18.49
-20.96
-23.80
-27.16
-31.02
-35.13
-39.00
-41.94
-43.25
-42.36
-39.04
-33.52
-26.40
-18.53
-10.76
-3.68
2.38
7.39
11.41
14.57
16.93
18.57
19.60
20.19
20.55
20.84
21.11
21.33
21.41
21.31
21.04
20.69
20.36
20.11
19.97
19.85
19.65
19.21
18.38
17.10
15.38
13.33
11.10
8.83
6.57
4.31
1.95
-0.55
-3.17
-5.77
-8.21
-10.37
-12.30
-14.21
-16.42
-19.29
-23.06
-27.72
-32.97
-38.14
-42.37
-44.84
-44.89
-42.29
-37.23
-30.28
-22.19
-13.79
-5.77
1.36
7.31
12.02
15.58
18.20
20.06
21.31
22.02
22.25
22.09
21.67
21.21
20.86
20.63
20.39
19.98
19.31
18.45
17.61
16.99
16.67
16.49
16.17
15.45
14.25
12.70
11.03
9.39
7.77
6.00
3.92
1.47
-1.24
-3.99
-6.57
-8.90
-11.05
-13.20
-15.56
-18.30
-21.51
-25.17
-29.09
-32.86
-35.89
-37.49
-37.05
-34.29
-29.31
-22.68
-15.21
-7.77
-1.07
4.52
8.93
12.31
14.83
16.64
17.75
18.16
17.92
17.18
16.20
15.25
14.52
14.05
13.76
13.54
13.30
12.97
12.53
11.97
11.24
10.34
9.29
8.17
7.01
5.80
4.45
2.85
0.94
-1.23
-3.53
-5.82
-8.02
-10.18
-12.47
-15.10
-18.21
-21.87
-25.98
-30.33
-34.52
-38.02
-40.16
-40.35
-38.19
-33.70
-27.28
-19.73
-11.92
-4.58
1.82
7.15
11.48
14.90
17.49
19.27
20.31
20.76
20.78
20.56
20.21
19.75
19.23
18.70
18.27
18.00
17.85
17.70
17.35
16.66
15.61
14.25
12.71
11.08
9.42
7.78
6.16
4.53
2.84
0.97
-1.12
-3.43
-5.87
-8.33
-10.75
-13.19
-15.83
-18.85
-22.37
-26.39
-30.74
-35.11
-39.04
-41.94
-43.19
-42.28
-38.95
-33.33
-25.93
-17.59
-9.21
-1.63
4.61
9.35
12.73
15.15
17.02
18.64
20.12
21.34
22.18
22.52
22.46
22.17
21.86
21.65
21.52
21.40
21.20
20.91
20.57
20.20
19.73
19.07
18.08
16.69
14.94
12.94
10.86
8.80
6.77
4.66
2.32
-0.35
-3.36
-6.55
-9.70
-12.60
-15.15
-17.48
-19.88
-22.74
-26.33
-30.66
-35.38
-39.85
-43.25
-44.82
-44.04
-40.74
-35.16
-27.85
-19.57
-11.12
-3.25
3.51
8.87
12.83
15.61
17.52
18.89
19.90
20.64
21.07
21.17
21.00
20.71
20.48
20.43
20.58
20.84
21.06
21.14
21.06
20.87
20.59
20.21
19.61
18.74
17.56
16.18
14.73
13.26
11.71
9.88
7.55
4.59
1.08
-2.71
-6.37
-9.53
-11.96
-13.67
-14.90
-16.06
-17.64
-20.05
-23.51
-27.89
-32.74
-37.28
-40.61
-41.91
-40.67
-36.81
-30.76
-23.30
-15.41
-7.97
-1.60
3.45
7.23
9.97
11.96
13.37
14.30
14.78
14.83
14.55
14.10
13.66
13.43
13.54
14.02
14.78
15.64
16.39
16.84
16.92
16.65
16.12
15.43
14.61
13.64
12.46
10.99
9.17
6.97
4.40
1.54
-1.47
-4.43
-7.15
-9.55
-11.71
-13.90
-16.43
-19.59
-23.46
-27.91
-32.53
-36.78
-40.01
-41.57
-40.98
-38.02
-32.82
-25.90
-18.01
-9.97
-2.47
4.03
9.32
13.38
16.33
18.33
19.55
20.19
20.37
20.22
19.80
19.22
18.60
18.10
17.87
17.95
18.27
18.69
19.08
19.32
19.33
19.08
18.44
17.33
15.72
13.70
11.48
9.27
7.18
5.20
3.23
1.14
-1.09
-3.43
-5.77
-8.09
-10.41
-12.81
-15.35
-18.10
-21.17
-24.66
-28.63
-33.00
-37.42
-41.22
-43.56
-43.72
-41.30
-36.44
-29.72
-21.97
-13.99
-6.35
0.57
6.62
11.70
15.72
18.63
20.49
21.51
21.96
22.14
22.25
22.34
22.36
22.21
21.83
21.21
20.42
19.59
18.80
18.09
17.44
16.76
16.00
15.12
14.14
13.05
11.83
10.39
8.65
6.56
4.20
1.73
-0.66
-2.83
-4.76
-6.57
-8.42
-10.50
-12.93
-15.73
-18.93
-22.52
-26.51
-30.84
-35.28
-39.35
-42.35
-43.56
-42.40
-38.71
-32.85
-25.53
-17.65
-10.01
-3.14
2.72
7.55
11.46
14.51
16.80
18.41
19.44
20.00
20.25
20.32
20.37
20.46
20.62
20.81
20.96
20.98
20.87
20.67
20.47
20.34
20.29
20.22
19.95
19.32
18.21
16.65
14.75
12.59
10.22
7.53
4.47
1.08
-2.43
-5.77
-8.67
-11.06
-13.11
-15.16
-17.57
-20.63
-24.42
-28.76
-33.28
-37.39
-40.41
-41.64
-40.60
-37.13
-31.48
-24.24
-16.21
-8.25
-1.06
4.86
9.28
12.24
13.94
14.69
14.74
14.32
13.61
12.77
11.98
11.42
11.17
11.18
11.33
11.43
11.35
11.08
10.69
10.25
9.76
9.17
8.40
7.42
6.25
4.92
3.37
1.51
-0.77
-3.41
-6.20
-8.79
-10.84
-12.32
-13.47
-14.84
-16.99
-20.25
-24.50
-29.17
-33.42
-36.39
-37.42
-36.18
-32.74
-27.40
-20.69
-13.25
-5.76
1.14
6.98
11.54
14.87
17.20
18.82
19.95
20.68
20.96
20.78
20.22
19.46
18.82
18.48
18.53
18.90
19.37
19.70
19.71
19.29
18.42
17.19
15.74
14.19
12.58
10.85
8.83
6.38
3.39
-0.02
-3.58
-7.01
-10.10
-12.87
-15.48
-18.20
-21.24
-24.73
-28.66
-32.85
-36.96
-40.45
-42.63
-42.84
-40.63
-35.98
-29.33
-21.51
-13.43
-5.85
0.73
6.18
10.54
13.96
16.57
18.54
20.01
21.12
21.97
22.58
22.86
22.71
22.08
21.09
19.97
19.07
18.59
18.56
18.83
19.12
19.15
18.71
17.70
16.16
14.18
11.86
9.33
6.67
3.95
1.23
-1.46
-4.11
-6.75
-9.43
-12.20
-15.13
-18.31
-21.79
-25.61
-29.69
-33.85
-37.67
-40.55
-41.82
-40.89
-37.48
-31.73
-24.21
-15.76
-7.30
0.44
6.96
12.05
15.72
18.15
19.56
20.26
20.54
20.67
20.80
20.94
20.98
20.76
20.18
19.30
18.30
17.44
16.94
16.85
17.06
17.36
17.50
17.37
16.93
16.22
15.21
13.81
11.85
9.23
5.98
2.34
-1.36
-4.81
-7.83
-10.45
-12.87
-15.37
-18.24
-21.67
-25.70
-30.14
-34.55
-38.28
-40.63
-41.00
-39.09
-34.97
-29.06
-22.01
-14.51
-7.15
-0.36
5.60
10.54
14.38
17.09
18.71
19.41
19.40
18.94
18.27
17.54
16.84
16.22
15.74
15.40
15.21
15.14
15.07
14.91
14.56
14.04
13.40
12.72
11.99
11.07
9.75
7.83
5.29
2.28
-0.89
-3.87
-6.47
-8.71
-10.82
-13.20
-16.21
-20.14
-24.99
-30.48
-35.99
-40.64
-43.46
-43.67
-40.92
-35.42
-27.89
-19.33
-10.69
-2.67
4.36
10.28
15.15
19.02
21.96
24.01
25.27
25.85
25.87
25.40
24.52
23.31
21.92
20.57
19.49
18.82
18.57
18.62
18.75
18.76
18.49
17.88
16.93
15.63
14.00
12.05
9.82
7.34
4.64
1.78
-1.20
-4.21
-7.15
-9.91
-12.49
-15.01
-17.73
-20.95
-24.88
-29.42
-34.14
-38.32
-41.12
-41.82
-39.98
-35.64
-29.23
-21.51
-13.33
-5.45
1.59
7.51
12.28
16.05
18.99
21.31
23.10
24.40
25.20
25.46
25.23
24.58
23.68
22.76
22.03
21.65
21.69
22.05
22.57
23.02
23.19
22.91
22.09
20.71
18.85
16.64
14.25
11.83
9.42
7.01
4.52
1.88
-0.94
-3.88
-6.87
-9.89
-13.00
-16.43
-20.32
-24.78
-29.60
-34.37
-38.39
-40.90
-41.24
-39.07
-34.44
-27.79
-19.88
-11.56
-3.54
3.66
9.79
14.80
18.74
21.69
23.68
24.79
25.10
24.77
24.02
23.04
21.97
20.90
19.84
18.81
17.85
17.05
16.47
16.07
15.72
15.21
14.30
12.93
11.12
9.04
6.86
4.64
2.36
-0.08
-2.71
-5.48
-8.25
-10.92
-13.51
-16.23
-19.31
-22.94
-27.06
-31.29
-35.04
-37.58
-38.26
-36.68
-32.77
-26.85
-19.53
-11.57
-3.70
3.46
9.59
14.54
18.28
20.91
22.52
23.30
23.44
23.12
22.47
21.57
20.44
19.21
18.02
17.07
16.48
16.20
16.02
15.64
14.89
13.78
12.50
11.27
10.14
8.94
7.40
5.28
2.55
-0.58
-3.78
-6.77
-9.41
-11.77
-14.00
-16.27
-18.72
-21.46
-24.59
-28.15
-32.05
-35.97
-39.31
-41.31
-41.22
-38.59
-33.40
-26.15
-17.75
-9.22
-1.37
5.33
10.82
15.28
18.92
21.84
24.02
25.41
26.01
25.95
25.45
24.71
23.91
23.13
22.38
21.67
20.94
20.14
19.24
18.23
17.17
16.11
15.11
14.14
13.11
11.87
10.29
8.29
5.88
3.10
0.04
-3.18
-6.38
-9.44
-12.29
-15.02
-17.86
-21.11
-24.96
-29.36
-33.93
-37.97
-40.66
-41.27
-39.34
-34.88
-28.35
-20.53
-12.37
-4.74
1.73
6.82
10.59
13.38
15.55
17.34
18.82
19.88
20.39
20.26
19.57
18.56
17.55
16.81
16.45
16.42
16.54
16.61
16.48
16.13
15.59
14.88
13.99
12.88
11.46
9.69
7.60
5.25
2.77
0.26
-2.16
-4.49
-6.78
-9.22
-12.01
-15.37
-19.39
-23.96
-28.76
-33.30
-36.92
-38.98
-38.93
-36.51
-31.82
-25.33
-17.79
-10.07
-2.95
3.03
7.60
10.77
12.76
13.81
14.19
14.07
13.58
12.84
12.02
11.33
10.93
10.84
10.97
11.08
10.99
10.65
10.18
9.82
9.71
9.83
9.94
9.71
8.84
7.14
4.71
1.73
-1.46
-4.60
-7.50
-10.16
-12.77
-15.58
-18.85
-22.74
-27.17
-31.82
-36.13
-39.44
-41.10
-40.64
-37.84
-32.80
-25.91
-17.84
-9.36
-1.20
6.04
12.05
16.69
20.01
22.10
23.06
23.05
22.27
21.04
19.72
18.61
17.84
17.39
17.02
16.54
15.80
14.85
13.87
13.06
12.51
12.12
11.62
10.73
9.23
7.10
4.51
1.66
-1.24
-4.07
-6.79
-9.40
-11.96
-14.57
-17.42
-20.78
-24.81
-29.50
-34.41
-38.78
-41.64
-42.13
-39.81
-34.77
-27.67
-19.46
-11.16
-3.56
2.91
8.15
12.31
15.64
18.31
20.40
21.88
22.68
22.81
22.36
21.52
20.56
19.66
18.94
18.41
17.98
17.54
17.04
16.48
15.91
15.40
14.96
14.45
13.65
12.35
10.42
7.91
5.07
2.17
-0.52
-2.90
-5.02
-7.10
-9.40
-12.23
-15.80
-20.15
-25.05
-29.95
-34.05
-36.45
-36.37
-33.37
-27.46
-19.23
-9.88
-1.02
5.76
9.46
10.02
8.40
6.12
4.62
4.70
6.22
8.48
10.65
12.26
13.29
13.93
14.30
14.22
13.41
11.75
9.53
7.36
5.86
5.35
5.65
6.14
6.06
4.92
2.65
-0.37
-3.51
-6.20
-8.21
-9.71
-11.16
-13.17
-16.18
-20.34
-25.35
-30.54
-34.95
-37.57
-37.62
-34.78
-29.26
-21.78
-13.31
-4.85
2.87
9.45
14.85
19.19
22.66
25.29
27.04
27.81
27.57
26.43
24.57
22.23
19.64
17.01
14.52
12.41
10.91
10.15
10.09
10.48
10.92
11.01
10.47
9.18
7.19
4.65
1.75
-1.34
-4.45
-7.52
-10.53
-13.54
-16.73
-20.30
-24.42
-29.15
-34.30
-39.39
-43.67
-46.21
-46.23
-43.33
-37.65
-29.91
-21.10
-12.21
-3.92
3.42
9.75
15.12
19.51
22.88
25.18
26.44
26.86
26.73
26.34
25.89
25.40
24.80
23.94
22.75
21.27
19.64
18.07
16.72
15.58
14.54
13.41
12.03
10.30
8.26
5.97
3.52
0.98
-1.64
-4.30
-7.06
-9.96
-13.16
-16.85
-21.17
-26.12
-31.40
-36.43
-40.40
-42.49
-42.05
-38.83
-33.02
-25.23
-16.36
-7.36
0.95
8.06
13.79
18.25
21.63
24.16
25.87
26.77
26.85
26.23
25.16
23.97
22.88
21.95
21.12
20.28
19.41
18.62
18.08
17.88
17.89
17.82
17.29
16.02
13.91
11.14
8.03
4.92
2.01
-0.69
-3.31
-6.03
-9.01
-12.36
-16.18
-20.58
-25.57
-30.90
-36.01
-40.02
-41.97
-41.15
-37.37
-31.07
-23.14
-14.63
-6.41
0.93
7.15
12.17
16.04
18.81
20.57
21.45
21.61
21.26
20.57
19.67
18.68
17.65
16.60
15.55
14.52
13.56
12.72
12.11
11.76
11.69
11.76
11.71
11.20
9.97
7.85
4.94
1.51
-2.05
-5.41
-8.44
-11.21
-14.01
-17.18
-21.00
-25.59
-30.72
-35.86
-40.14
-42.54
-42.20
-38.76
-32.48
-24.25
-15.31
-6.77
0.64
6.77
11.80
16.08
19.76
22.80
25.00
26.24
26.58
26.26
25.62
24.92
24.25
23.57
22.77
21.82
20.74
19.65
18.67
17.84
17.12
16.39
15.48
14.26
12.63
10.56
8.09
5.31
2.35
-0.67
-3.60
-6.35
-8.92
-11.42
-14.06
-17.08
-20.74
-25.16
-30.24
-35.58
-40.52
-44.18
-45.73
-44.66
-40.87
-34.79
-27.17
-18.89
-10.69
-3.07
3.73
9.61
14.59
18.65
21.85
24.30
26.13
27.45
28.32
28.76
28.73
28.29
27.57
26.75
25.98
25.33
24.78
24.20
23.51
22.66
21.67
20.54
19.25
17.70
15.80
13.51
10.88
8.02
5.05
1.99
-1.17
-4.48
-7.92
-11.38
-14.69
-17.76
-20.65
-23.62
-27.01
-31.02
-35.53
-39.98
-43.42
-44.85
-43.51
-39.18
-32.26
-23.61
-14.28
-5.20
2.97
9.86
15.37
19.53
22.47
24.38
25.50
26.07
26.26
26.19
25.91
25.41
24.75
24.01
23.28
22.63
22.09
21.64
21.21
20.74
20.08
19.13
17.81
16.14
14.22
12.22
10.23
8.27
6.24
4.03
1.60
-0.95
-3.47
-5.84
-8.02
-10.15
-12.40
-15.04
-18.26
-22.17
-26.72
-31.56
-36.06
-39.37
-40.59
-39.12
-34.86
-28.30
-20.31
-11.93
-4.07
2.76
8.35
12.80
16.23
18.75
20.40
21.17
21.15
20.50
19.45
18.20
16.87
15.47
13.98
12.45
11.01
9.83
9.04
8.64
8.49
8.40
8.18
7.75
7.06
6.12
4.88
3.32
1.44
-0.70
-2.95
-5.12
-7.12
-8.96
-10.84
-13.04
-15.89
-19.62
-24.22
-29.38
-34.49
-38.71
-41.14
-41.08
-38.18
-32.64
-25.07
-16.45
-7.75
0.22
6.97
12.40
16.58
19.70
21.88
23.24
23.85
23.80
23.24
22.29
21.10
19.80
18.54
17.44
16.61
16.05
15.72
15.47
15.16
14.73
14.14
13.41
12.55
11.55
10.30
8.69
6.63
4.08
1.13
-1.98
-4.98
-7.57
-9.61
-11.23
-12.86
-15.15
-18.70
-23.83
-30.34
-37.42
-43.83
-48.25
-49.60
-47.45
-41.99
-34.10
-24.92
-15.62
-7.09
0.19
6.15
10.96
14.79
17.78
19.90
21.07
21.30
20.66
19.43
17.87
16.28
14.83
13.69
12.93
12.61
12.68
13.00
13.32
13.37
13.00
12.19
11.10
9.91
8.67
7.31
5.64
3.47
0.78
-2.28
-5.35
-8.11
-10.39
-12.26
-14.00
-16.02
-18.63
-22.01
-26.05
-30.36
-34.34
-37.27
-38.45
-37.34
-33.78
-27.98
-20.56
-12.40
-4.42
2.66
8.41
12.73
15.80
17.90
19.29
20.19
20.72
20.90
20.73
20.17
19.26
18.08
16.77
15.53
14.50
13.76
13.29
13.01
12.78
12.52
12.14
11.55
10.60
9.16
7.16
4.66
1.87
-0.96
-3.58
-5.88
-7.90
-9.82
-11.81
-14.07
-16.76
-19.99
-23.78
-28.03
-32.41
-36.41
-39.32
-40.44
-39.23
-35.51
-29.53
-21.96
-13.67
-5.55
1.70
7.70
12.32
15.62
17.75
18.86
19.09
18.62
17.63
16.29
14.84
13.44
12.29
11.49
11.02
10.76
10.49
10.06
9.43
8.64
7.87
7.17
6.44
5.42
3.90
1.79
-0.78
-3.51
-6.11
-8.48
-10.72
-13.10
-15.91
-19.33
-23.36
-27.82
-32.31
-36.28
-39.07
-40.07
-38.84
-35.25
-29.57
-22.43
-14.58
-6.77
0.48
6.88
12.29
16.64
19.87
21.90
22.71
22.47
21.49
20.15
18.78
17.54
16.47
15.49
14.52
13.53
12.53
11.57
10.66
9.80
8.99
8.18
7.33
6.34
5.10
3.57
1.71
-0.39
-2.63
-4.88
-7.08
-9.18
-11.24
-13.40
-15.88
-18.95
-22.85
-27.61
-32.84
-37.77
-41.39
-42.73
-41.23
-36.93
-30.43
-22.69
-14.65
-7.01
-0.12
5.91
11.08
15.33
18.60
20.85
22.13
22.64
22.62
22.25
21.65
20.84
19.83
18.68
17.46
16.34
15.40
14.69
14.21
13.88
13.60
13.25
12.72
11.91
10.72
9.08
6.96
4.42
1.59
-1.30
-3.98
-6.27
-8.15
-9.89
-11.94
-14.82
-18.86
-23.97
-29.59
-34.78
-38.55
-40.11
-39.02
-35.29
-29.30
-21.70
-13.26
-4.81
2.86
9.19
13.86
16.91
18.69
19.69
20.35
20.87
21.24
21.27
20.78
19.74
18.27
16.67
15.25
14.24
13.76
13.73
13.97
14.25
14.30
13.93
12.98
11.42
9.26
6.63
3.73
0.82
-1.84
-4.06
-5.80
-7.23
-8.69
-10.62
-13.43
-17.32
-22.20
-27.61
-32.79
-36.84
-38.93
-38.49
-35.39
-29.88
-22.56
-14.21
-5.62
2.50
9.57
15.24
19.36
21.95
23.23
23.48
23.02
22.12
20.98
19.75
18.49
17.26
16.04
14.86
13.71
12.66
11.73
10.95
10.29
9.65
8.85
7.70
6.06
3.87
1.21
-1.76
-4.84
-7.82
-10.60
-13.15
-15.55
-17.98
-20.67
-23.86
-27.68
-32.02
-36.38
-39.95
-41.75
-40.94
-37.13
-30.55
-22.00
-12.59
-3.43
4.64
11.17
16.09
19.55
21.84
23.24
23.97
24.18
24.00
23.53
22.95
22.40
21.96
21.60
21.18
20.49
19.44
18.04
16.50
15.07
13.88
12.87
11.83
10.47
8.62
6.27
3.56
0.69
-2.16
-4.91
-7.59
-10.30
-13.21
-16.50
-20.35
-24.84
-29.87
-35.09
-39.88
-43.38
-44.75
-43.32
-38.88
-31.75
-22.77
-13.05
-3.68
4.53
11.25
16.49
20.48
23.39
25.29
26.17
26.12
25.42
24.46
23.65
23.18
23.02
22.89
22.49
21.70
20.60
19.47
18.64
18.23
18.18
18.20
17.93
17.06
15.46
13.18
10.40
7.34
4.16
1.01
-2.06
-5.02
-7.90
-10.78
-13.81
-17.17
-21.00
-25.39
-30.23
-35.25
-39.93
-43.55
-45.28
-44.37
-40.44
-33.67
-24.82
-15.07
-5.60
2.72
9.55
14.95
19.24
22.68
25.38
27.26
28.23
28.31
27.71
26.74
25.75
24.94
24.39
23.97
23.50
22.86
22.00
21.03
20.13
19.42
18.85
18.24
17.30
15.82
13.75
11.19
8.34
5.40
2.47
-0.42
-3.29
-6.15
-8.97
-11.77
-14.67
-17.90
-21.74
-26.38
-31.68
-37.13
-41.87
-44.93
-45.48
-43.09
-37.87
-30.42
-21.62
-12.44
-3.70
4.01
10.41
15.47
19.34
22.20
24.17
25.31
25.60
25.10
23.98
22.57
21.26
20.28
19.72
19.47
19.30
18.99
18.42
17.56
16.44
15.13
13.69
12.12
10.40
8.50
6.36
3.97
1.37
-1.29
-3.88
-6.28
-8.47
-10.60
-12.88
-15.58
-18.89
-22.96
-27.68
-32.74
-37.47
-41.02
-42.51
-41.30
-37.24
-30.73
-22.58
-13.82
-5.35
2.19
8.49
13.51
17.27
19.89
21.47
22.20
22.33
22.07
21.61
21.02
20.32
19.51
18.64
17.76
16.92
16.15
15.44
14.74
14.10
13.51
12.97
12.39
11.59
10.38
8.69
6.58
4.23
1.83
-0.54
-2.95
-5.53
-8.40
-11.63
-15.25
-19.32
-23.98
-29.27
-35.05
-40.77
-45.55
-48.35
-48.34
-45.21
-39.29
-31.41
-22.64
-13.92
-5.86
1.26
7.37
12.51
16.71
19.99
22.40
24.03
25.03
25.53
25.65
25.44
24.87
23.90
22.54
20.87
19.13
17.64
16.67
16.32
16.45
16.70
16.67
16.04
14.72
12.77
10.39
7.72
4.89
1.95
-1.03
-3.95
-6.78
-9.53
-12.38
-15.50
-19.10
-23.22
-27.81
-32.66
-37.43
-41.68
-44.82
-46.21
-45.26
-41.64
-35.41
-27.14
-17.76
-8.35
0.20
7.41
13.18
17.73
21.35
24.15
26.12
27.13
27.14
26.34
25.10
23.87
22.97
22.52
22.36
22.24
21.88
21.14
20.07
18.80
17.50
16.29
15.20
14.13
12.94
11.49
9.66
7.40
4.74
1.87
-1.01
-3.68
-6.03
-8.12
-10.17
-12.53
-15.58
-19.55
-24.45
-30.03
-35.71
-40.70
-44.12
-45.19
-43.43
-38.86
-31.95
-23.54
-14.64
-6.12
1.43
7.72
12.73
16.60
19.46
21.41
22.48
22.68
22.12
21.02
19.69
18.45
17.50
16.80
16.16
15.38
14.39
13.25
12.18
11.39
10.88
10.51
9.98
9.02
7.48
5.37
2.77
-0.12
-3.11
-6.01
-8.64
-11.00
-13.19
-15.49
-18.24
-21.71
-25.96
-30.73
-35.48
-39.41
-41.65
-41.49
-38.57
-32.97
-25.30
-16.49
-7.64
0.30
6.72
11.42
14.61
16.70
18.12
19.19
20.04
20.56
20.60
20.04
18.97
17.63
16.36
15.43
14.91
14.72
14.69
14.65
14.58
14.47
14.23
13.68
12.56
10.66
7.97
4.71
1.23
-2.13
-5.21
-8.03
-10.74
-13.53
-16.58
-20.05
-24.09
-28.75
-33.91
-39.14
-43.75
-46.87
-47.70
-45.78
-41.14
-34.28
-26.04
-17.27
-8.68
-0.72
6.37
12.44
17.35
20.95
23.18
24.13
24.07
23.43
22.62
21.90
21.31
20.73
20.00
18.99
17.72
16.34
15.05
14.05
13.43
13.14
13.03
12.80
12.21
11.05
9.26
6.92
4.18
1.28
-1.58
-4.29
-6.89
-9.56
-12.56
-16.18
-20.55
-25.62
-31.03
-36.16
-40.21
-42.37
-42.02
-38.91
-33.25
-25.67
-17.07
-8.41
-0.44
6.35
11.84
16.13
19.47
22.07
24.07
25.52
26.41
26.69
26.37
25.50
24.25
22.81
21.39
20.14
19.11
18.28
17.56
16.90
16.32
15.77
15.21
14.42
13.15
11.24
8.68
5.71
2.70
-0.04
-2.39
-4.51
-6.74
-9.49
-13.01
-17.40
-22.54
-28.15
-33.73
-38.67
-42.23
-43.75
-42.72
-39.04
-32.96
-25.13
-16.38
-7.56
0.60
7.65
13.37
17.77
20.96
23.09
24.31
24.74
24.48
23.64
22.36
20.84
19.24
17.71
16.33
15.09
13.97
12.97
12.08
11.32
10.72
10.22
9.68
8.89
7.61
5.69
3.12
0.06
-3.24
-6.47
-9.46
-12.13
-14.66
-17.33
-20.51
-24.42
-29.02
-33.89
-38.23
-41.14
-41.77
-39.73
-35.11
-28.45
-20.50
-12.03
-3.66
4.19
11.16
16.94
21.24
23.91
24.98
24.74
23.54
21.81
19.89
18.02
16.34
15.02
14.13
13.70
13.66
13.82
13.95
13.88
13.52
12.88
12.05
11.08
9.95
8.55
6.79
4.59
2.02
-0.79
-3.66
-6.50
-9.33
-12.32
-15.72
-19.81
-24.73
-30.39
-36.43
-42.19
-46.80
-49.38
-49.23
-46.01
-39.89
-31.52
-21.84
-11.90
-2.55
5.63
12.39
17.75
21.85
24.86
26.92
28.14
28.68
28.66
28.27
27.62
26.84
25.95
25.02
24.10
23.25
22.50
21.84
21.17
20.35
19.27
17.90
16.26
14.42
12.40
10.18
7.75
5.06
2.18
-0.77
-3.68
-6.43
-9.01
-11.51
-14.11
-17.03
-20.49
-24.63
-29.38
-34.39
-39.06
-42.61
-44.29
-43.54
-40.21
-34.52
-27.03
-18.51
-9.76
-1.47
5.84
11.89
16.59
20.09
22.58
24.37
25.64
26.50
26.98
27.05
26.76
26.19
25.48
24.78
24.22
23.86
23.67
23.57
23.41
23.01
22.29
21.18
19.72
18.00
16.08
13.95
11.53
8.72
5.50
2.00
-1.56
-4.95
-8.00
-10.71
-13.19
-15.67
-18.41
-21.67
-25.61
-30.26
-35.36
-40.36
-44.35
-46.35
-45.57
-41.69
-35.06
-26.53
-17.24
-8.24
-0.21
6.58
12.13
16.55
19.94
22.29
23.67
24.18
24.03
23.44
22.63
21.75
20.90
20.18
19.62
19.22
18.89
18.47
17.82
16.87
15.66
14.32
12.97
11.62
10.20
8.55
6.53
4.11
1.37
-1.52
-4.38
-7.09
-9.59
-11.89
-14.08
-16.34
-18.97
-22.26
-26.39
-31.25
-36.25
-40.47
-42.77
-42.24
-38.54
-31.99
-23.49
-14.22
-5.27
2.63
9.16
14.35
18.39
21.49
23.75
25.19
25.80
25.59
24.75
23.51
22.15
20.87
19.73
18.73
17.79
16.90
16.08
15.36
14.70
13.98
13.08
11.89
10.47
8.91
7.30
5.63
3.75
1.51
-1.18
-4.20
-7.32
-10.31
-13.03
-15.54
-18.13
-21.15
-24.94
-29.67
-35.17
-40.83
-45.71
-48.68
-48.77
-45.49
-39.00
-30.11
-19.95
-9.70
-0.30
7.70
14.07
18.85
22.24
24.55
26.16
27.38
28.41
29.21
29.60
29.34
28.33
26.69
24.78
23.03
21.82
21.32
21.40
21.74
21.85
21.34
20.02
17.97
15.53
13.07
10.88
9.01
7.21
5.13
2.50
-0.75
-4.40
-8.10
-11.50
-14.44
-16.98
-19.39
-22.02
-25.20
-29.14
-33.84
-38.96
-43.82
-47.48
-48.94
-47.53
-43.09
-36.08
-27.41
-18.14
-9.14
-0.98
6.10
12.09
17.00
20.87
23.73
25.68
26.88
27.50
27.68
27.54
27.14
26.56
25.94
25.41
25.13
25.14
25.36
25.58
25.52
24.91
23.65
21.79
19.58
17.29
15.13
13.12
11.13
8.90
6.25
3.13
-0.32
-3.83
-7.17
-10.15
-12.78
-15.22
-17.73
-20.61
-24.12
-28.40
-33.35
-38.56
-43.27
-46.55
-47.45
-45.34
-40.12
-32.28
-22.78
-12.76
-3.33
4.79
11.26
16.16
19.76
22.41
24.31
25.55
26.17
26.18
25.71
24.91
23.95
22.94
21.95
21.04
20.26
19.71
19.42
19.28
19.10
18.58
17.54
15.93
13.88
11.64
9.40
7.26
5.16
3.00
0.63
-1.99
-4.86
-7.84
-10.80
-13.64
-16.39
-19.22
-22.41
-26.20
-30.63
-35.37
-39.73
-42.78
-43.64
-41.70
-36.95
-29.90
-21.52
-12.90
-4.92
1.86
7.30
11.51
14.70
16.92
18.16
18.32
17.45
15.77
13.73
11.79
10.32
9.44
9.06
8.95
8.93
8.92
8.95
9.07
9.29
9.49
9.46
9.00
7.95
6.32
4.17
1.67
-1.04
-3.81
-6.56
-9.22
-11.75
-14.21
-16.76
-19.65
-23.11
-27.23
-31.80
-36.31
-39.96
-41.88
-41.41
-38.23
-32.54
-24.98
-16.47
-7.90
0.04
6.96
12.70
17.26
20.67
22.92
24.07
24.27
23.80
23.00
22.15
21.39
20.71
19.99
19.19
18.38
17.71
17.29
17.12
17.02
16.69
15.89
14.50
12.58
10.30
7.79
5.15
2.37
-0.57
-3.61
-6.63
-9.53
-12.27
-14.93
-17.76
-21.04
-25.00
-29.69
-34.88
-40.09
-44.60
-47.62
-48.42
-46.56
-41.98
-35.07
-26.59
-17.48
-8.65
-0.80
5.69
10.78
14.65
17.67
20.14
22.27
24.04
25.32
25.93
25.85
25.18
24.15
23.06
22.03
21.10
20.18
19.21
18.22
17.30
16.48
15.72
14.83
13.60
11.89
9.73
7.30
4.79
2.30
-0.16
-2.69
-5.33
-8.02
-10.60
-12.92
-14.95
-16.93
-19.20
-22.19
-26.12
-30.88
-36.01
-40.79
-44.37
-46.01
-45.16
-41.58
-35.41
-27.14
-17.62
-7.77
1.47
9.37
15.57
20.05
23.01
24.83
25.85
26.34
26.46
26.27
25.80
25.05
24.07
22.92
21.72
20.57
19.56
18.72
18.05
17.47
16.93
16.39
15.85
15.30
14.74
13.99
12.83
10.99
8.33
4.95
1.17
-2.52
-5.76
-8.38
-10.56
-12.69
-15.29
-18.75
-23.26
-28.70
-34.66
-40.42
-45.08
-47.76
-47.75
-44.77
-39.05
-31.26
-22.30
-13.12
-4.47
3.14
9.51
14.61
18.48
21.19
22.74
23.16
22.59
21.29
19.71
18.33
17.49
17.26
17.44
17.65
17.56
17.01
16.05
14.85
13.61
12.35
11.05
9.61
7.95
6.05
3.89
1.47
-1.22
-4.12
-7.17
-10.26
-13.37
-16.61
-20.23
-24.42
-29.23
-34.42
-39.39
-43.35
-45.46
-45.12
-42.06
-36.44
-28.80
-19.97
-10.85
-2.22
5.36
11.62
16.54
20.22
22.79
24.30
24.82
24.43
23.32
21.76
20.03
18.40
17.00
15.90
15.07
14.44
13.99
13.68
13.47
13.29
12.99
12.38
11.22
9.40
6.90
3.89
0.65
-2.51
-5.43
-8.08
-10.60
-13.18
-16.01
-19.24
-23.04
-27.54
-32.82
-38.65
-44.46
-49.26
-51.93
-51.59
-47.88
-41.18
-32.39
-22.63
-12.93
-3.98
3.90
10.66
16.31
20.86
24.28
26.60
27.92
28.49
28.59
28.43
28.14
27.71
27.14
26.43
25.65
24.88
24.19
23.55
22.94
22.29
21.56
20.72
19.70
18.35
16.47
13.94
10.72
6.98
3.00
-0.89
-4.52
-7.86
-11.11
-14.57
-18.53
-23.13
-28.27
-33.56
-38.31
-41.68
-42.89
-41.41
-37.13
-30.51
-22.40
-13.82
-5.71
1.32
7.09
11.74
15.55
18.77
21.48
23.61
25.03
25.64
25.52
24.84
23.80
22.56
21.15
19.59
17.95
16.40
15.15
14.39
14.11
14.07
13.88
13.11
11.48
8.96
5.78
2.30
-1.12
-4.23
-6.95
-9.33
-11.53
-13.80
-16.40
-19.63
-23.66
-28.45
-33.57
-38.22
-41.33
-41.96
-39.58
-34.32
-26.94
-18.49
-9.99
-2.13
4.79
10.73
15.71
19.73
22.67
24.46
25.15
24.93
24.11
23.01
21.86
20.74
19.65
18.55
17.46
16.45
15.63
15.09
14.78
14.55
14.09
13.14
11.53
9.28
6.56
3.61
0.61
-2.32
-5.15
-7.93
-10.72
-13.64
-16.86
-20.63
-25.17
-30.43
-36.01
-41.05
-44.47
-45.24
-42.81
-37.25
-29.30
-20.01
-10.47
-1.53
6.30
12.77
17.80
21.40
23.69
24.92
25.42
25.50
25.36
25.02
24.43
23.58
22.55
21.58
20.96
20.83
21.11
21.48
21.52
20.96
19.74
18.06
16.22
14.45
12.77
11.03
8.98
6.51
3.66
0.62
-2.43
-5.39
-8.35
-11.46
-14.92
-18.81
-23.18
-28.00
-33.12
-38.19
-42.60
-45.52
-46.04
-43.55
-37.94
-29.80
-20.22
-10.42
-1.46
6.13
12.26
17.18
21.15
24.31
26.67
28.16
28.83
28.85
28.51
28.05
27.62
27.17
26.59
25.80
24.81
23.77
22.83
22.06
21.38
20.58
19.44
17.87
15.94
13.82
11.73
9.75
7.89
6.05
4.09
1.96
-0.39
-2.97
-5.80
-8.88
-12.20
-15.72
-19.38
-23.21
-27.30
-31.71
-36.29
-40.50
-43.49
-44.30
-42.23
-37.23
-29.87
-21.17
-12.25
-3.99
3.09
8.86
13.42
16.96
19.72
21.91
23.66
25.01
25.87
26.13
25.74
24.79
23.54
22.31
21.39
20.90
20.81
20.92
21.01
20.86
20.33
19.33
17.85
15.94
13.74
11.39
9.11
7.05
5.22
3.50
1.68
-0.48
-3.04
-5.84
-8.58
-10.95
-12.91
-14.74
-16.99
-20.19
-24.56
-29.79
-35.07
-39.32
-41.55
-41.08
-37.79
-32.01
-24.49
-16.15
-7.91
-0.50
5.67
10.47
14.03
16.57
18.34
19.49
20.11
20.28
20.07
19.60
18.98
18.29
17.59
16.91
16.23
15.57
14.91
14.25
13.57
12.86
12.08
11.17
10.06
8.68
7.04
5.14
3.02
0.74
-1.71
-4.30
-6.99
-9.75
-12.54
-15.40
-18.48
-21.96
-25.99
-30.53
-35.31
-39.76
-43.14
-44.61
-43.54
-39.66
-33.14
-24.64
-15.15
-5.78
2.57
9.37
14.51
18.23
20.91
22.84
24.15
24.87
24.95
24.45
23.46
22.15
20.71
19.32
18.14
17.29
16.80
16.62
16.53
16.33
15.79
14.83
13.49
11.93
10.29
8.64
6.97
5.23
3.33
1.21
-1.13
-3.64
-6.24
-8.90
-11.60
-14.41
-17.42
-20.76
-24.57
-28.85
-33.48
-38.08
-42.07
-44.67
-45.13
-42.93
-37.98
-30.74
-22.07
-13.03
-4.57
2.72
8.64
13.31
16.94
19.78
21.90
23.36
24.15
24.30
23.89
23.06
21.94
20.70
19.49
18.47
17.75
17.39
17.35
17.46
17.49
17.18
16.34
14.89
12.91
10.59
8.13
5.70
3.32
0.91
-1.65
-4.39
-7.25
-10.10
-12.73
-15.06
-17.13
-19.13
-21.35
-24.08
-27.42
-31.18
-34.82
-37.61
-38.76
-37.76
-34.45
-29.11
-22.32
-14.79
-7.23
-0.22
5.84
10.72
14.35
16.80
18.21
18.76
18.62
17.97
16.96
15.79
14.65
13.68
12.94
12.39
11.91
11.41
10.84
10.28
9.79
9.38
8.99
8.39
7.34
5.70
3.47
0.86
-1.85
-4.46
-6.89
-9.20
-11.57
-14.16
-17.11
-20.51
-24.38
-28.61
-32.87
-36.63
-39.25
-40.11
-38.82
-35.30
-29.83
-22.93
-15.31
-7.67
-0.59
5.52
10.54
14.49
17.48
19.55
20.69
20.87
20.20
18.94
17.44
16.02
14.85
13.91
13.08
12.26
11.43
10.64
9.94
9.29
8.63
7.84
6.84
5.59
4.03
2.11
-0.20
-2.88
-5.80
-8.73
-11.46
-13.91
-16.22
-18.67
-21.58
-25.18
-29.48
-34.27
-39.08
-43.30
-46.20
-47.09
-45.49
-41.26
-34.71
-26.52
-17.58
-8.78
-0.79
6.03
11.56
15.84
18.98
21.08
22.28
22.72
22.60
22.13
21.47
20.70
19.88
19.02
18.15
17.34
16.69
16.28
16.11
16.03
15.86
15.40
14.57
13.36
11.88
10.21
8.37
6.36
4.12
1.61
-1.09
-3.90
-6.71
-9.46
-12.19
-15.05
-18.23
-21.90
-26.10
-30.69
-35.21
-38.98
-41.23
-41.28
-38.86
-34.09
-27.53
-19.96
-12.16
-4.69
2.13
8.25
13.66
18.32
22.15
25.07
27.09
28.35
29.05
29.33
29.19
28.56
27.40
25.77
23.88
21.97
20.26
18.83
17.63
16.54
15.42
14.14
12.61
10.75
8.48
5.82
2.87
-0.18
-3.11
-5.72
-7.96
-9.87
-11.68
-13.68
-16.18
-19.47
-23.68
-28.67
-34.03
-39.06
-42.87
-44.61
-43.67
-39.91
-33.70
-25.81
-17.21
-8.76
-1.03
5.70
11.32
15.83
19.17
21.34
22.40
22.52
22.00
21.14
20.19
19.27
18.46
17.73
17.06
16.45
15.87
15.28
14.69
14.06
13.37
12.54
11.47
10.01
8.08
5.68
2.91
-0.04
-2.96
-5.66
-8.00
-9.98
-11.73
-13.51
-15.73
-18.75
-22.82
-27.80
-33.18
-38.09
-41.52
-42.61
-40.90
-36.42
-29.67
-21.47
-12.73
-4.28
3.25
9.52
14.39
18.01
20.61
22.48
23.86
24.87
25.53
25.83
25.75
25.31
24.58
23.69
22.76
21.92
21.27
20.85
20.66
20.56
20.39
19.94
19.03
17.62
15.76
13.57
11.20
8.74
6.19
3.52
0.71
-2.21
-5.11
-7.89
-10.48
-12.93
-15.45
-18.29
-21.77
-26.07
-31.20
-36.87
-42.42
-46.96
-49.54
-49.44
-46.37
-40.59
-32.75
-23.76
-14.46
-5.52
2.63
9.70
15.55
20.12
23.43
25.61
26.88
27.55
27.88
28.08
28.23
28.31
28.21
27.85
27.21
26.41
25.61
24.99
24.62
24.44
24.30
23.95
23.19
21.90
20.09
17.91
15.59
13.35
11.33
9.53
7.79
5.88
3.59
0.85
-2.30
-5.66
-9.07
-12.33
-15.34
-18.11
-20.75
-23.54
-26.78
-30.70
-35.22
-39.86
-43.79
-45.93
-45.43
-41.85
-35.47
-27.09
-17.85
-8.80
-0.72
6.08
11.60
16.04
19.61
22.42
24.48
25.77
26.36
26.38
26.02
25.41
24.62
23.65
22.50
21.28
20.19
19.46
19.21
19.38
19.73
19.94
19.73
18.96
17.68
16.04
14.24
12.42
10.64
8.90
7.11
5.13
2.83
0.12
-2.99
-6.38
-9.79
-12.99
-15.77
-18.20
-20.56
-23.31
-26.83
-31.16
-35.87
-40.07
-42.65
-42.66
-39.66
-33.85
-25.96
-17.04
-8.14
-0.05
6.75
12.09
16.01
18.67
20.25
20.98
21.08
20.79
20.33
19.85
19.43
19.06
18.72
18.32
17.85
17.33
16.79
16.29
15.84
15.38
14.79
13.95
12.77
11.21
9.27
7.01
4.51
1.86
-0.85
-3.52
-6.08
-8.52
-10.88
-13.27
-15.86
-18.83
-22.28
-26.23
-30.55
-34.91
-38.81
-41.55
-42.47
-40.99
-36.92
-30.47
-22.33
-13.40
-4.63
3.22
9.78
14.92
18.79
21.61
23.60
24.95
25.79
26.20
26.27
26.02
25.51
24.76
23.85
22.87
21.94
21.18
20.60
20.22
19.94
19.61
19.10
18.29
17.10
15.50
13.55
11.32
8.94
6.52
4.11
1.72
-0.75
-3.40
-6.30
-9.40
-12.58
-15.74
-18.85
-22.12
-25.85
-30.31
-35.42
-40.71
-45.26
-48.02
-48.09
-45.04
-39.10
-31.01
-21.85
-12.63
-4.15
3.16
9.13
13.81
17.25
19.54
20.83
21.33
21.33
21.15
20.97
20.83
20.58
20.04
19.17
18.13
17.21
16.69
16.68
16.97
17.15
16.78
15.55
13.49
10.90
8.22
5.82
3.93
2.51
1.32
0.03
-1.62
-3.73
-6.21
-8.86
-11.47
-13.96
-16.47
-19.30
-22.77
-27.02
-31.85
-36.65
-40.57
-42.73
-42.45
-39.45
-33.92
-26.49
-18.01
-9.39
-1.38
5.56
11.29
15.90
19.61
22.58
24.85
26.37
27.03
26.87
26.07
24.99
23.98
23.30
23.00
22.94
22.88
22.62
22.13
21.56
21.12
20.96
21.08
21.30
21.36
20.99
20.01
18.37
16.19
13.70
11.23
9.17
8.03
8.18
9.58
11.39
11.99
9.45
2.28
-9.71
-25.18
-41.65
-56.35
-67.13
-72.93
-73.65
-69.77
-61.99
-51.12
-38.26
-24.83
-12.48
-2.58
4.18
7.92
9.43
9.67
9.46
9.26
9.16
9.02
8.73
8.27
7.77
7.45
7.47
7.89
8.59
9.33
9.87
10.05
9.86
9.30
8.35
6.95
5.01
2.53
-0.39
-3.44
-6.34
-8.90
-11.12
-13.22
-15.51
-18.31
-21.78
-25.90
-30.46
-35.01
-38.94
-41.52
-42.00
-39.92
-35.18
-28.22
-19.90
-11.27
-3.26
3.54
8.93
13.04
16.13
18.44
20.12
21.22
21.76
21.78
21.37
20.70
19.91
19.16
18.53
18.03
17.64
17.28
16.91
16.48
15.94
15.27
14.43
13.37
12.07
10.54
8.79
6.81
4.62
2.21
-0.38
-3.09
-5.86
-8.65
-11.46
-14.34
-17.36
-20.56
-24.08
-28.00
-32.39
-37.11
-41.70
-45.42
-47.31
-46.58
-42.86
-36.41
-27.99
-18.64
-9.36
-0.89
6.31
12.11
16.52
19.67
21.75
22.98
23.60
23.84
23.86
23.75
23.54
23.26
22.86
22.34
21.70
20.97
20.25
19.65
19.17
18.72
18.10
17.13
15.77
14.13
12.35
10.54
8.63
6.45
3.88
0.94
-2.22
-5.32
-8.15
-10.66
-12.98
-15.38
-18.14
-21.52
-25.66
-30.45
-35.52
-40.15
-43.40
-44.32
-42.29
-37.26
-29.79
-20.89
-11.65
-3.02
4.44
10.55
15.42
19.23
22.17
24.32
25.68
26.27
26.13
25.39
24.24
22.91
21.59
20.37
19.30
18.38
17.63
17.10
16.81
16.70
16.60
16.26
15.48
14.15
12.35
10.21
7.91
5.56
3.18
0.78
-1.63
-4.00
-6.27
-8.41
-10.53
-12.80
-15.46
-18.72
-22.69
-27.33
-32.40
-37.44
-41.76
-44.53
-45.00
-42.66
-37.48
-29.98
-21.09
-11.87
-3.17
4.49
10.97
16.33
20.64
23.89
25.97
26.85
26.65
25.69
24.40
23.17
22.22
21.55
21.04
20.50
19.84
19.07
18.30
17.62
16.99
16.26
15.24
13.75
11.74
9.34
6.75
4.18
1.76
-0.49
-2.64
-4.83
-7.15
-9.61
-12.15
-14.77
-17.51
-20.59
-24.30
-28.72
-33.55
-37.99
-40.95
-41.37
-38.67
-33.01
-25.23
-16.53
-8.08
-0.70
5.24
9.76
13.10
15.53
17.32
18.62
19.46
19.78
19.52
18.72
17.57
16.37
15.38
14.75
14.45
14.30
14.12
13.81
13.37
12.88
12.39
11.91
11.37
10.69
9.77
8.50
6.87
4.84
2.49
-0.05
-2.63
-5.15
-7.62
-10.12
-12.85
-15.98
-19.65
-23.89
-28.60
-33.50
-38.06
-41.61
-43.36
-42.69
-39.34
-33.49
-25.77
-17.10
-8.35
-0.24
6.84
12.78
17.61
21.41
24.26
26.26
27.50
28.11
28.33
28.30
28.16
27.92
27.48
26.71
25.57
24.13
22.57
21.09
19.86
18.87
18.04
17.21
16.26
15.10
13.71
12.08
10.23
8.15
5.90
3.56
1.22
-1.07
-3.29
-5.50
-7.77
-10.16
-12.78
-15.74
-19.15
-22.99
-26.97
-30.50
-32.74
-32.79
-30.02
-24.31
-16.08
-6.21
4.30
14.61
24.11
32.36
38.94
43.25
44.64
42.66
37.44
29.75
20.87
12.23
4.94
-0.42
-3.79
-5.42
-5.66
-4.91
-3.60
-2.19
-1.18
-0.90
-1.43
-2.53
-3.81
-4.88
-5.50
-5.69
-5.68
-5.79
-6.33
-7.48
-9.29
-11.62
-14.24
-16.93
-19.57
-22.26
-25.26
-28.82
-32.98
-37.39
-41.30
-43.74
-43.83
-41.11
-35.69
-28.21
-19.64
-10.89
-2.65
4.67
10.82
15.64
18.98
20.71
20.94
19.97
18.29
16.44
14.84
13.69
12.95
12.46
12.05
11.60
11.12
10.63
10.19
9.81
9.39
8.78
7.79
6.27
4.19
1.71
-0.94
-3.43
-5.58
-7.40
-9.10
-11.00
-13.44
-16.69
-20.79
-25.62
-30.75
-35.54
-39.19
-40.89
-40.08
-36.59
-30.77
-23.35
-15.22
-7.17
0.21
6.63
12.00
16.26
19.38
21.38
22.31
22.33
21.68
20.67
19.58
18.66
17.97
17.42
16.84
16.05
14.97
13.69
12.45
11.46
10.82
10.36
9.71
8.43
6.27
3.25
-0.29
-3.85
-7.03
-9.63
-11.83
-14.00
-16.65
-20.19
-24.81
-30.28
-36.06
-41.25
-44.86
-46.04
-44.35
-39.84
-33.06
-24.88
-16.20
-7.83
-0.31
6.06
11.22
15.26
18.38
20.78
22.61
23.89
24.55
24.49
23.71
22.36
20.69
19.05
17.73
16.89
16.57
16.66
16.95
17.22
17.23
16.77
15.76
14.21
12.17
9.72
6.92
3.78
0.42
-3.05
-6.46
-9.72
-12.93
-16.34
-20.34
-25.21
-30.97
-37.30
-43.54
-48.84
-52.32
-53.25
-51.20
-46.13
-38.51
-29.21
-19.27
-9.72
-1.26
5.76
11.37
15.76
19.18
21.83
23.89
25.43
26.51
27.11
27.19
26.70
25.69
24.36
22.95
21.72
20.78
20.09
19.51
18.96
18.43
17.98
17.61
17.17
16.32
14.72
12.17
8.77
4.88
1.00
-2.48
-5.44
-8.05
-10.74
-13.94
-18.04
-23.15
-29.12
-35.52
-41.66
-46.75
-49.99
-50.73
-48.67
-43.89
-36.82
-28.19
-18.84
-9.59
-1.08
6.30
12.41
17.33
21.20
24.23
26.55
28.24
29.38
30.01
30.20
30.05
29.64
29.08
28.42
27.72
27.02
26.37
25.75
25.14
24.42
23.52
22.35
20.88
19.08
16.95
14.47
11.67
8.58
5.30
1.94
-1.43
-4.75
-8.08
-11.48
-15.07
-18.99
-23.37
-28.31
-33.79
-39.59
-45.18
-49.69
-52.17
-51.76
-48.10
-41.44
-32.59
-22.65
-12.76
-3.71
4.13
10.71
16.22
20.80
24.59
27.62
29.93
31.64
32.88
33.79
34.47
34.92
35.10
34.97
34.53
33.88
33.17
32.59
32.23
32.02
31.75
31.13
29.94
28.15
25.91
23.50
21.09
18.73
16.25
13.45
10.20
6.58
2.79
-0.96
-4.53
-7.99
-11.53
-15.41
-19.76
-24.60
-29.69
-34.59
-38.68
-41.21
-41.54
-39.25
-34.36
-27.30
-18.86
-9.92
-1.29
6.44
12.96
18.20
22.20
25.12
27.11
28.35
29.00
29.16
28.91
28.29
27.36
26.22
25.02
23.91
23.06
22.54
22.35
22.36
22.42
22.34
22.02
21.39
20.39
18.96
17.03
14.57
11.60
8.27
4.77
1.34
-1.84
-4.71
-7.35
-9.94
-12.73
-15.91
-19.57
-23.67
-27.99
-32.13
-35.51
-37.51
-37.55
-35.25
-30.60
-23.98
-16.10
-7.79
0.14
7.12
12.85
17.30
20.55
22.77
24.09
24.67
24.64
24.11
23.24
22.21
21.22
20.44
19.94
19.66
19.44
19.07
18.45
17.56
16.57
15.66
14.94
14.41
13.89
13.13
11.93
10.17
7.91
5.30
2.53
-0.20
-2.77
-5.13
-7.38
-9.68
-12.25
-15.28
-18.90
-23.08
-27.63
-32.15
-36.05
-38.63
-39.26
-37.58
-33.64
-27.90
-21.12
-14.16
-7.65
-1.93
2.96
7.15
10.78
13.87
16.35
18.13
19.18
19.60
19.54
19.23
18.81
18.38
17.93
17.41
16.84
16.27
15.79
15.49
15.39
15.39
15.30
14.92
14.05
12.59
10.56
8.05
5.24
2.27
-0.71
-3.59
-6.34
-8.91
-11.31
-13.55
-15.69
-17.83
-20.12
-22.74
-25.75
-29.02
-32.15
-34.59
-35.72
-35.10
-32.60
-28.40
-22.90
-16.63
-10.10
-3.76
2.06
7.15
11.37
14.70
17.17
18.78
19.58
19.60
18.95
17.87
16.65
15.55
14.71
14.11
13.59
12.99
12.23
11.34
10.40
9.48
8.61
7.72
6.75
5.65
4.41
3.09
1.75
0.38
-1.09
-2.74
-4.63
-6.70
-8.82
-10.84
-12.71
-14.52
-16.52
-18.95
-21.90
-25.19
-28.43
-31.10
-32.72
-32.95
-31.64
-28.83
-24.73
-19.73
-14.28
-8.82
-3.73
0.79
4.67
7.90
10.52
12.51
13.90
14.76
15.19
15.35
15.33
15.17
14.86
14.41
13.88
13.30
12.72
12.16
11.56
10.87
10.04
9.04
7.88
6.63
5.31
3.95
2.51
0.88
-0.98
-3.06
-5.21
-7.25
-9.02
-10.52
-11.86
-13.26
-14.93
-17.01
-19.51
-22.36
-25.41
-28.38
-30.85
-32.29
-32.15
-30.10
-26.16
-20.75
-14.56
-8.36
-2.73
2.03
5.92
9.07
11.62
13.63
15.03
15.72
15.63
14.83
13.50
11.99
10.58
9.45
8.62
7.92
7.19
6.31
5.33
4.37
3.58
3.06
2.78
2.63
2.49
2.24
1.82
1.12
0.06
-1.38
-3.20
-5.31
-7.54
-9.77
-11.91
-14.01
-16.20
-18.69
-21.65
-25.12
-28.94
-32.69
-35.78
-37.53
-37.44
-35.27
-31.14
-25.49
-18.94
-12.16
-5.71
0.01
4.76
8.46
11.09
12.70
13.41
13.36
12.77
11.87
10.81
9.76
8.79
7.98
7.43
7.19
7.28
7.53
7.70
7.51
6.80
5.61
4.12
2.57
1.08
-0.35
-1.86
-3.56
-5.48
-7.54
-9.63
-11.64
-13.57
-15.42
-17.30
-19.29
-21.56
-24.26
-27.42
-30.84
-34.01
-36.17
-36.58
-34.80
-30.87
-25.28
-18.76
-12.05
-5.67
0.07
5.02
9.06
12.07
14.05
15.11
15.51
15.56
15.55
15.61
15.74
15.82
15.74
15.46
15.00
14.42
13.80
13.17
12.53
11.86
11.16
10.39
9.51
8.40
6.93
4.99
2.60
-0.10
-2.87
-5.48
-7.82
-9.96
-12.07
-14.37
-16.99
-20.01
-23.38
-27.01
-30.70
-34.15
-36.87
-38.32
-37.94
-35.43
-30.84
-24.62
-17.52
-10.38
-3.93
1.37
5.36
8.14
10.02
11.32
12.37
13.36
14.40
15.49
16.55
17.47
18.12
18.41
18.31
17.85
17.14
16.34
15.58
14.97
14.49
14.04
13.44
12.50
11.06
9.06
6.58
3.79
0.94
-1.78
-4.30
-6.67
-9.00
-11.40
-13.94
-16.64
-19.54
-22.68
-26.10
-29.73
-33.26
-36.17
-37.82
-37.63
-35.30
-30.92
-24.95
-18.05
-11.01
-4.45
1.23
5.89
9.63
12.61
15.02
16.95
18.42
19.41
19.92
20.04
19.87
19.56
19.20
18.84
18.46
18.06
17.58
17.05
16.49
15.97
15.51
15.05
14.43
13.42
11.86
9.70
7.07
4.27
1.52
-1.04
-3.41
-5.64
-7.85
-10.13
-12.63
-15.57
-19.18
-23.60
-28.65
-33.81
-38.19
-40.90
-41.20
-38.85
-34.10
-27.62
-20.22
-12.65
-5.47
0.99
6.61
11.34
15.22
18.25
20.50
22.03
22.97
23.42
23.50
23.26
22.77
22.04
21.14
20.12
19.03
17.95
16.94
16.06
15.32
14.76
14.37
14.07
13.72
13.10
12.02
10.31
7.96
5.10
1.96
-1.21
-4.20
-6.96
-9.58
-12.22
-15.08
-18.33
-22.05
-26.17
-30.46
-34.45
-37.55
-39.08
-38.54
-35.73
-30.85
-24.45
-17.24
-9.92
-3.01
3.13
8.30
12.43
15.58
17.84
19.40
20.42
21.02
21.30
21.31
21.14
20.91
20.71
20.60
20.56
20.49
20.30
19.95
19.49
18.96
18.44
17.94
17.38
16.61
15.46
13.75
11.43
8.62
5.55
2.50
-0.35
-3.01
-5.61
-8.38
-11.52
-15.18
-19.39
-24.08
-29.08
-34.02
-38.31
-41.22
-41.99
-40.15
-35.64
-28.92
-20.80
-12.24
-4.08
3.11
9.09
13.87
17.60
20.43
22.52
23.95
24.79
25.09
24.92
24.38
23.65
22.89
22.23
21.73
21.38
21.07
20.73
20.28
19.72
19.03
18.22
17.21
15.90
14.24
12.24
10.01
7.71
5.46
3.33
1.26
-0.84
-3.15
-5.78
-8.82
-12.32
-16.29
-20.74
-25.58
-30.54
-35.11
-38.53
-40.00
-38.96
-35.27
-29.32
-21.91
-13.99
-6.36
0.47
6.33
11.21
15.15
18.15
20.18
21.29
21.56
21.20
20.43
19.46
18.47
17.59
16.91
16.47
16.24
16.12
15.99
15.74
15.33
14.77
14.13
13.38
12.46
11.19
9.38
6.96
4.02
0.81
-2.37
-5.28
-7.87
-10.29
-12.77
-15.61
-19.00
-23.02
-27.59
-32.41
-36.87
-40.26
-41.72
-40.65
-36.82
-30.54
-22.59
-14.02
-5.83
1.32
7.15
11.75
15.40
18.38
20.82
22.70
23.90
24.38
24.19
23.50
22.53
21.46
20.43
19.53
18.82
18.36
18.16
18.14
18.10
17.86
17.22
16.07
14.42
12.29
9.79
7.06
4.28
1.64
-0.70
-2.68
-4.39
-6.06
-7.99
-10.47
-13.76
-17.90
-22.77
-27.98
-32.87
-36.65
-38.51
-37.88
-34.63
-29.08
-21.99
-14.30
-6.90
-0.38
5.06
9.50
13.15
16.18
18.63
20.45
21.60
22.15
22.27
22.18
22.04
21.87
21.64
21.27
20.71
19.98
19.17
18.39
17.72
17.19
16.71
16.11
15.14
13.58
11.35
8.56
5.49
2.40
-0.49
-3.16
-5.72
-8.39
-11.37
-14.88
-19.05
-23.93
-29.37
-34.96
-40.04
-43.77
-45.42
-44.49
-40.95
-35.20
-28.01
-20.22
-12.54
-5.44
0.91
6.46
11.31
15.50
19.02
21.82
23.83
25.00
25.35
24.99
24.12
22.98
21.85
20.95
20.37
20.10
19.97
19.77
19.35
18.66
17.73
16.62
15.37
13.95
12.28
10.33
8.16
5.89
3.63
1.45
-0.76
-3.19
-6.02
-9.34
-13.15
-17.41
-22.04
-26.96
-31.98
-36.67
-40.38
-42.38
-42.01
-39.01
-33.54
-26.25
-18.00
-9.67
-1.91
4.96
10.86
15.82
19.85
22.84
24.67
25.31
24.91
23.77
22.30
20.82
19.47
18.27
17.17
16.17
15.38
14.92
14.78
14.80
14.69
14.12
12.91
11.03
8.62
5.96
3.30
0.84
-1.33
-3.28
-5.15
-7.12
-9.39
-12.09
-15.32
-19.10
-23.38
-27.98
-32.55
-36.61
-39.52
-40.69
-39.66
-36.29
-30.80
-23.75
-15.91
-8.15
-1.14
4.76
9.55
13.48
16.84
19.75
22.08
23.59
24.08
23.63
22.58
21.36
20.32
19.58
19.00
18.40
17.64
16.80
16.02
15.48
15.18
14.95
14.49
13.52
11.90
9.63
6.89
3.94
1.03
-1.70
-4.22
-6.64
-9.14
-11.96
-15.32
-19.38
-24.16
-29.52
-35.01
-39.96
-43.47
-44.76
-43.27
-38.98
-32.40
-24.44
-16.12
-8.25
-1.31
4.63
9.68
13.99
17.60
20.46
22.46
23.55
23.83
23.44
22.61
21.58
20.51
19.56
18.79
18.22
17.79
17.41
16.98
16.46
15.88
15.27
14.63
13.89
12.87
11.42
9.44
7.00
4.29
1.51
-1.18
-3.74
-6.26
-8.90
-11.88
-15.37
-19.52
-24.32
-29.50
-34.49
-38.52
-40.80
-40.73
-38.08
-33.12
-26.47
-18.93
-11.28
-4.12
2.18
7.45
11.68
14.98
17.49
19.40
20.84
21.93
22.68
23.08
23.12
22.80
22.24
21.56
20.95
20.51
20.24
20.04
19.75
19.23
18.41
17.30
16.00
14.57
12.98
11.11
8.87
6.26
3.40
0.52
-2.15
-4.54
-6.69
-8.81
-11.11
-13.79
-16.99
-20.75
-25.04
-29.60
-33.93
-37.27
-38.76
-37.72
-33.92
-27.74
-20.04
-11.96
-4.47
1.81
6.72
10.41
13.22
15.40
17.10
18.34
19.10
19.37
19.21
18.78
18.26
17.84
17.59
17.53
17.61
17.77
17.95
18.11
18.21
18.12
17.70
16.84
15.50
13.79
11.88
9.90
7.88
5.75
3.37
0.68
-2.31
-5.43
-8.52
-11.50
-14.45
-17.61
-21.17
-25.21
-29.52
-33.64
-36.91
-38.70
-38.45
-35.94
-31.25
-24.82
-17.34
-9.59
-2.30
4.01
9.04
12.73
15.20
16.70
17.54
17.98
18.19
18.15
17.78
16.94
15.62
14.01
12.43
11.21
10.53
10.36
10.48
10.65
10.67
10.43
9.88
8.95
7.56
5.61
3.15
0.32
-2.59
-5.33
-7.74
-9.87
-11.87
-14.02
-16.64
-19.94
-23.99
-28.57
-33.22
-37.28
-39.99
-40.76
-39.21
-35.31
-29.36
-21.92
-13.70
-5.51
1.94
8.14
12.87
16.23
18.54
20.13
21.24
21.95
22.25
22.12
21.64
20.92
20.07
19.10
18.03
16.83
15.63
14.58
13.85
13.49
13.42
13.39
13.08
12.25
10.81
8.82
6.45
3.91
1.36
-1.11
-3.45
-5.67
-7.82
-10.03
-12.49
-15.42
-18.97
-23.19
-27.87
-32.54
-36.54
-39.13
-39.72
-37.97
-33.96
-28.14
-21.21
-13.91
-6.86
-0.43
5.21
10.01
14.00
17.18
19.54
21.13
22.03
22.39
22.35
22.10
21.76
21.44
21.19
20.96
20.67
20.19
19.42
18.37
17.10
15.75
14.47
13.32
12.30
11.26
10.01
8.34
6.17
3.56
0.73
-2.05
-4.61
-6.95
-9.24
-11.76
-14.75
-18.28
-22.24
-26.39
-30.39
-33.83
-36.22
-37.01
-35.74
-32.25
-26.74
-19.85
-12.42
-5.30
0.87
5.84
9.64
12.50
14.71
16.45
17.79
18.69
19.09
18.97
18.48
17.81
17.22
16.86
16.74
16.73
16.66
16.41
15.97
15.41
14.73
13.90
12.80
11.32
9.43
7.22
4.82
2.38
-0.05
-2.46
-4.95
-7.64
-10.61
-13.94
-17.66
-21.76
-26.14
-30.55
-34.59
-37.68
-39.24
-38.78
-36.12
-31.47
-25.32
-18.38
-11.33
-4.69
1.21
6.17
10.12
12.98
14.76
15.58
15.68
15.36
14.95
14.66
14.55
14.54
14.45
14.16
13.67
13.10
12.63
12.38
12.35
12.38
12.25
11.72
10.67
9.06
6.97
4.55
1.95
-0.64
-3.11
-5.45
-7.75
-10.19
-13.02
-16.42
-20.49
-25.15
-30.15
-35.05
-39.25
-42.08
-42.97
-41.56
-37.86
-32.27
-25.43
-18.08
-10.83
-4.06
2.03
7.36
11.87
15.47
18.10
19.77
20.63
20.89
20.74
20.37
19.85
19.25
18.62
18.03
17.57
17.25
17.06
16.89
16.62
16.08
15.19
13.91
12.25
10.26
8.02
5.60
3.08
0.54
-2.00
-4.57
-7.27
-10.28
-13.75
-17.76
-22.27
-27.07
-31.87
-36.23
-39.70
-41.76
-41.89
-39.75
-35.29
-28.86
-21.15
-13.02
-5.27
1.62
7.44
12.25
16.17
19.29
21.63
23.22
24.13
24.54
24.69
24.72
24.68
24.47
23.94
22.96
21.58
19.99
18.49
17.33
16.63
16.23
15.81
15.04
13.72
11.89
9.71
7.38
4.96
2.39
-0.43
-3.59
-7.10
-10.95
-15.12
-19.67
-24.61
-29.74
-34.61
-38.49
-40.62
-40.41
-37.70
-32.77
-26.32
-19.16
-12.04
-5.46
0.38
5.48
9.87
13.50
16.22
17.87
18.40
18.05
17.27
16.53
16.14
16.08
16.16
16.08
15.75
15.26
14.80
14.47
14.28
14.04
13.57
12.73
11.46
9.79
7.70
5.17
2.20
-1.15
-4.71
-8.31
-11.85
-15.37
-19.04
-23.06
-27.51
-32.21
-36.63
-40.01
-41.55
-40.65
-37.19
-31.53
-24.47
-16.87
-9.47
-2.70
3.33
8.65
13.25
17.06
19.91
21.66
22.36
22.24
21.66
21.00
20.50
20.23
20.10
20.01
19.85
19.63
19.38
19.11
18.78
18.25
17.37
16.06
14.30
12.18
9.81
7.28
4.65
1.92
-0.93
-3.89
-6.96
-10.11
-13.35
-16.70
-20.28
-24.19
-28.44
-32.85
-36.99
-40.18
-41.72
-41.06
-38.03
-32.86
-26.16
-18.63
-10.98
-3.69
2.97
8.85
13.88
17.94
20.98
23.02
24.18
24.69
24.82
24.75
24.57
24.30
23.94
23.57
23.28
23.18
23.30
23.55
23.72
23.62
23.07
21.99
20.42
18.41
16.12
13.68
11.17
8.59
5.87
2.93
-0.31
-3.80
-7.42
-11.03
-14.57
-18.09
-21.77
-25.74
-29.95
-34.11
-37.65
-39.92
-40.34
-38.59
-34.67
-28.93
-21.93
-14.39
-6.93
-0.07
5.93
10.98
15.11
18.41
20.95
22.76
23.83
24.24
24.13
23.68
23.07
22.40
21.71
20.93
20.05
19.10
18.19
17.46
17.01
16.80
16.71
16.47
15.79
14.44
12.33
9.56
6.34
3.00
-0.18
-2.99
-5.40
-7.52
-9.65
-12.10
-15.18
-19.02
-23.51
-28.22
-32.48
-35.51
-36.60
-35.35
-31.77
-26.31
-19.67
-12.65
-5.90
0.15
5.33
9.68
13.30
16.32
18.77
20.58
21.67
21.96
21.51
20.48
19.14
17.77
16.59
15.72
15.16
14.84
14.62
14.38
13.96
13.28
12.28
10.97
9.38
7.52
5.41
3.02
0.41
-2.37
-5.17
-7.90
-10.50
-13.06
-15.78
-18.90
-22.63
-26.95
-31.59
-35.98
-39.39
-41.06
-40.48
-37.45
-32.24
-25.44
-17.84
-10.17
-2.99
3.39
8.90
13.55
17.39
20.39
22.47
23.59
23.82
23.37
22.52
21.59
20.75
20.03
19.43
18.87
18.32
17.83
17.43
17.12
16.81
16.41
15.79
14.87
13.58
11.90
9.81
7.40
4.80
2.17
-0.35
-2.71
-5.03
-7.49
-10.33
-13.73
-17.76
-22.35
-27.24
-32.00
-36.00
-38.58
-39.16
-37.40
-33.30
-27.28
-20.03
-12.34
-4.91
1.75
7.41
12.03
15.68
18.47
20.51
21.91
22.79
23.33
23.68
23.91
24.05
24.02
23.75
23.24
22.54
21.79
21.14
20.66
20.35
20.14
19.87
19.37
18.45
16.95
14.74
11.85
8.44
4.81
1.32
-1.71
-4.13
-6.04
-7.78
-9.84
-12.71
-16.68
-21.71
-27.37
-32.90
-37.41
-40.03
-40.19
-37.74
-32.96
-26.54
-19.30
-12.06
-5.42
0.27
4.90
8.53
11.26
13.22
14.51
15.27
15.63
15.71
15.59
15.29
14.79
14.08
13.20
12.27
11.41
10.74
10.26
9.86
9.37
8.60
7.38
5.69
3.60
1.24
-1.20
-3.58
-5.83
-7.93
-9.94
-11.97
-14.16
-16.66
-19.57
-22.90
-26.49
-29.99
-32.86
-34.53
-34.49
-32.50
-28.61
-23.24
-16.99
-10.48
-4.23
1.43
6.31
10.36
13.60
16.03
17.69
18.63
18.91
18.67
18.08
17.34
16.63
16.06
15.62
15.22
14.80
14.32
13.82
13.37
12.97
12.48
11.64
10.22
8.14
5.54
2.72
0.01
-2.35
-4.35
-6.11
-7.91
-10.07
-12.88
-16.58
-21.20
-26.49
-31.94
-36.82
-40.32
-41.80
-40.95
-37.83
-32.82
-26.50
-19.54
-12.56
-6.03
-0.30
4.53
8.49
11.73
14.37
16.48
18.09
19.19
19.81
20.03
19.94
19.64
19.16
18.55
17.85
17.11
16.44
15.95
15.66
15.52
15.34
14.93
14.04
12.57
10.49
7.95
5.16
2.37
-0.18
-2.38
-4.25
-5.95
-7.76
-10.04
-13.12
-17.10
-21.82
-26.74
-31.04
-33.86
-34.50
-32.61
-28.38
-22.37
-15.41
-8.36
-1.88
3.64
8.07
11.44
13.87
15.43
16.24
16.40
16.06
15.44
14.75
14.15
13.74
13.47
13.25
12.99
12.69
12.38
12.13
11.95
11.71
11.21
10.19
8.53
6.32
3.81
1.33
-0.94
-2.98
-4.97
-7.12
-9.56
-12.27
-15.15
-18.13
-21.19
-24.28
-27.22
-29.59
-30.81
-30.33
-27.87
-23.62
-18.11
-12.12
-6.31
-1.15
3.15
6.56
9.14
10.91
11.90
12.16
11.87
11.23
10.50
9.87
9.44
9.16
8.98
8.81
8.62
8.43
8.26
8.12
7.97
7.73
7.26
6.44
5.18
3.46
1.38
-0.92
-3.24
-5.45
-7.52
-9.57
-11.88
-14.70
-18.21
-22.37
-26.88
-31.20
-34.68
-36.66
-36.68
-34.51
-30.30
-24.52
-17.88
-11.14
-4.95
0.31
4.60
8.08
11.01
13.55
15.68
17.30
18.26
18.53
18.22
17.58
16.90
16.41
16.20
16.19
16.23
16.13
15.75
15.01
13.94
12.59
11.02
9.27
7.31
5.17
2.90
0.61
-1.58
-3.56
-5.34
-7.02
-8.78
-10.83
-13.37
-16.51
-20.26
-24.51
-28.92
-33.03
-36.23
-37.91
-37.54
-34.90
-30.14
-23.78
-16.59
-9.38
-2.78
2.86
7.47
11.13
13.97
16.12
17.66
18.67
19.26
19.56
19.67
19.66
19.57
19.39
19.21
19.07
19.02
19.08
19.15
19.10
18.78
18.11
17.06
15.72
14.13
12.30
10.21
7.83
5.20
2.43
-0.32
-2.96
-5.53
-8.21
-11.26
-14.85
-19.02
-23.61
-28.32
-32.72
-36.32
-38.57
-38.99
-37.26
-33.37
-27.70
-20.90
-13.68
-6.67
-0.28
5.29
9.99
13.80
16.73
18.78
19.99
20.48
20.41
19.96
19.30
18.54
17.73
16.89
16.03
15.16
14.36
13.70
13.26
12.99
12.83
12.60
12.10
11.15
9.69
7.75
5.50
3.16
0.94
-1.04
-2.84
-4.62
-6.63
-9.06
-12.01
-15.49
-19.40
-23.58
-27.69
-31.26
-33.69
-34.42
-33.10
-29.74
-24.70
-18.57
-11.98
-5.52
0.39
5.49
9.68
12.97
15.50
17.39
18.76
19.64
20.01
19.86
19.28
18.41
17.46
16.61
15.95
15.48
15.15
14.91
14.64
14.27
13.67
12.78
11.57
10.07
8.29
6.28
4.00
1.45
-1.30
-4.13
-6.81
-9.16
-11.20
-13.11
-15.26
-18.03
-21.61
-25.89
-30.38
-34.34
-36.99
-37.70
-36.14
-32.37
-26.79
-20.07
-12.97
-6.24
-0.46
4.08
7.37
9.68
11.37
12.81
14.21
15.56
16.71
17.50
17.85
17.83
17.62
17.43
17.38
17.49
17.65
17.72
17.58
17.22
16.62
15.87
14.98
13.95
12.72
11.22
9.34
7.07
4.47
1.70
-1.08
-3.77
-6.37
-8.99
-11.73
-14.72
-18.01
-21.65
-25.64
-29.88
-34.03
-37.48
-39.49
-39.34
-36.70
-31.76
-25.17
-17.78
-10.37
-3.45
2.77
8.23
12.87
16.63
19.44
21.31
22.37
22.83
22.89
22.70
22.29
21.71
20.97
20.19
19.51
19.06
18.87
18.82
18.67
18.20
17.30
16.07
14.70
13.42
12.23
10.96
9.37
7.28
4.69
1.84
-0.99
-3.60
-5.99
-8.32
-10.80
-13.64
-16.94
-20.68
-24.74
-28.85
-32.59
-35.39
-36.63
-35.81
-32.70
-27.53
-20.90
-13.60
-6.45
0.02
5.54
10.09
13.74
16.53
18.43
19.47
19.77
19.61
19.31
19.10
19.06
19.10
19.06
18.79
18.28
17.65
17.03
16.54
16.17
15.78
15.19
14.25
12.89
11.13
9.06
6.78
4.37
1.87
-0.68
-3.20
-5.60
-7.86
-10.03
-12.28
-14.78
-17.71
-21.11
-24.84
-28.56
-31.76
-33.82
-34.15
-32.41
-28.60
-23.14
-16.74
-10.19
-4.09
1.26
5.81
9.64
12.80
15.23
16.88
17.74
17.92
17.61
16.97
16.13
15.15
14.11
13.11
12.29
11.78
11.59
11.64
11.75
11.71
11.37
10.64
9.46
7.85
5.86
3.57
1.11
-1.39
-3.83
-6.15
-8.34
-10.48
-12.75
-15.41
-18.67
-22.67
-27.23
-31.85
-35.73
-38.00
-38.01
-35.52
-30.87
-24.74
-17.96
-11.21
-4.90
0.84
5.96
10.43
14.09
16.85
18.61
19.48
19.66
19.39
18.88
18.24
17.55
16.84
16.16
15.51
14.90
14.30
13.68
13.03
12.34
11.60
10.78
9.81
8.62
7.13
5.31
3.21
0.90
-1.51
-3.93
-6.32
-8.67
-11.10
-13.76
-16.82
-20.42
-24.56
-29.03
-33.36
-36.90
-38.90
-38.73
-36.07
-31.07
-24.34
-16.78
-9.31
-2.64
2.89
7.28
10.73
13.46
15.62
17.22
18.28
18.80
18.90
18.76
18.58
18.48
18.53
18.66
18.75
18.64
18.25
17.56
16.63
15.57
14.48
13.35
12.14
10.77
9.18
7.36
5.30
3.07
0.72
-1.68
-4.04
-6.34
-8.61
-11.03
-13.85
-17.30
-21.46
-26.09
-30.63
-34.29
-36.31
-36.12
-33.51
-28.66
-22.05
-14.39
-6.47
1.01
7.56
12.96
17.29
20.80
23.75
26.25
28.16
29.21
29.15
27.88
25.59
22.65
19.48
16.51
14.00
12.09
10.79
10.02
9.63
9.45
9.25
8.82
7.98
6.66
4.87
2.71
0.34
-2.14
-4.65
-7.22
-9.92
-12.84
-16.03
-19.53
-23.27
-27.13
-30.87
-34.15
-36.48
-37.33
-36.27
-33.16
-28.21
-21.96
-15.12
-8.30
-1.96
3.70
8.55
12.46
15.26
16.81
17.10
16.39
15.14
13.91
13.09
12.80
12.90
13.07
13.04
12.68
12.00
11.17
10.32
9.50
8.66
7.75
6.70
5.51
4.18
2.69
1.00
-0.94
-3.10
-5.45
-7.92
-10.50
-13.26
-16.39
-20.01
-24.17
-28.63
-32.91
-36.32
-38.12
-37.74
-34.94
-29.94
-23.36
-16.04
-8.86
-2.44
2.92
7.19
10.55
13.17
15.16
16.56
17.37
17.68
17.67
17.55
17.47
17.51
17.61
17.63
17.44
16.98
16.27
15.45
14.69
14.08
13.61
13.12
12.37
11.18
9.50
7.40
5.05
2.64
0.29
-1.99
-4.28
-6.64
-9.18
-12.05
-15.38
-19.28
-23.71
-28.44
-32.99
-36.79
-39.26
-39.96
-38.66
-35.32
-30.15
-23.54
-16.12
-8.59
-1.62
4.36
9.20
13.05
16.15
18.72
20.81
22.35
23.27
23.60
23.52
23.24
22.94
22.66
22.31
21.81
21.13
20.34
19.56
18.86
18.22
17.55
16.73
15.68
14.37
12.79
10.92
8.75
6.33
3.75
1.14
-1.40
-3.89
-6.40
-9.04
-11.87
-14.93
-18.26
-21.89
-25.80
-29.79
-33.43
-36.02
-36.86
-35.44
-31.68
-25.97
-19.02
-11.66
-4.65
1.53
6.66
10.75
13.95
16.43
18.34
19.74
20.61
20.96
20.81
20.24
19.38
18.41
17.49
16.73
16.19
15.90
15.80
15.82
15.85
15.75
15.46
14.94
14.19
13.25
12.18
11.05
9.92
8.80
7.68
6.40
4.80
2.68
-0.03
-3.27
-6.89
-10.74
-14.78
-19.03
-23.52
-28.08
-32.24
-35.28
-36.47
-35.32
-31.78
-26.28
-19.59
-12.52
-5.76
0.25
5.32
9.43
12.62
14.92
16.37
17.03
17.02
16.56
15.90
15.27
14.81
14.50
14.24
13.88
13.37
12.74
12.15
11.74
11.56
11.59
11.69
11.65
11.28
10.35
8.75
6.42
3.49
0.20
-3.11
-6.16
-8.82
-11.15
-13.40
-15.90
-18.91
-22.54
-26.69
-30.98
-34.80
-37.39
-38.07
-36.38
-32.26
-26.10
-18.63
-10.71
-3.15
3.48
8.86
12.95
15.92
18.03
19.54
20.64
21.40
21.79
21.71
21.16
20.20
19.04
17.93
17.11
16.63
16.45
16.37
16.17
15.73
15.00
14.01
12.81
11.43
9.87
8.16
6.29
4.35
2.40
0.45
-1.53
-3.60
-5.79
-8.08
-10.44
-12.82
-15.31
-18.10
-21.41
-25.36
-29.80
-34.26
-37.98
-40.14
-40.07
-37.49
-32.59
-25.98
-18.46
-10.85
-3.80
2.28
7.22
11.04
13.86
15.85
17.19
18.03
18.50
18.69
18.70
18.62
18.50
18.37
18.22
18.03
17.80
17.59
17.43
17.34
17.24
16.98
16.41
15.45
14.14
12.59
10.93
9.23
7.40
5.36
3.05
0.52
-2.11
-4.70
-7.15
-9.45
-11.66
-13.92
-16.41
-19.35
-22.93
-27.06
-31.40
-35.29
-37.94
-38.65
-37.08
-33.35
-27.99
-21.67
-15.08
-8.71
-2.88
2.24
6.59
10.21
13.20
15.67
17.70
19.32
20.47
21.12
21.28
21.11
20.77
20.43
20.18
19.96
19.63
19.08
18.26
17.23
16.07
14.90
13.77
12.66
11.52
10.33
9.04
7.62
6.03
4.17
1.98
-0.55
-3.32
-6.15
-8.87
-11.45
-14.01
-16.84
-20.20
-24.18
-28.55
-32.79
-36.17
-37.94
-37.61
-35.03
-30.43
-24.36
-17.52
-10.59
-4.14
1.45
5.96
9.34
11.72
13.26
14.13
14.50
14.42
13.96
13.20
12.30
11.49
10.96
10.78
10.89
11.16
11.47
11.81
12.26
12.82
13.35
13.55
13.07
11.71
9.47
6.60
3.46
0.36
-2.55
-5.28
-7.91
-10.57
-13.37
-16.41
-19.80
-23.56
-27.57
-31.54
-35.02
-37.41
-38.16
-36.87
-33.42
-28.02
-21.24
-13.83
-6.57
-0.05
5.41
9.78
13.24
15.99
18.11
19.58
20.33
20.32
19.68
18.62
17.39
16.18
15.12
14.24
13.58
13.15
12.98
13.01
13.15
13.26
13.19
12.82
12.09
10.99
9.57
7.85
5.87
3.61
1.04
-1.84
-5.00
-8.39
-11.88
-15.41
-18.98
-22.64
-26.51
-30.57
-34.59
-38.09
-40.45
-41.03
-39.48
-35.76
-30.24
-23.55
-16.41
-9.44
-3.04
2.57
7.32
11.26
14.44
16.96
18.94
20.52
21.77
22.69
23.19
23.17
22.57
21.48
20.15
18.88
17.96
17.47
17.32
17.24
16.95
16.25
15.07
13.44
11.48
9.29
6.88
4.28
1.53
-1.25
-3.91
-6.32
-8.44
-10.43
-12.57
-15.21
-18.60
-22.72
-27.26
-31.60
-35.02
-36.89
-36.81
-34.64
-30.54
-24.86
-18.12
-10.96
-3.97
2.33
7.64
11.88
15.19
17.74
19.67
21.02
21.80
22.04
21.86
21.44
20.93
20.42
19.84
19.09
18.08
16.81
15.41
14.06
12.95
12.17
11.63
11.14
10.45
9.37
7.82
5.88
3.65
1.30
-1.10
-3.52
-6.03
-8.76
-11.92
-15.68
-20.12
-25.07
-30.10
-34.47
-37.44
-38.39
-37.11
-33.72
-28.67
-22.53
-15.87
-9.16
-2.78
2.94
7.79
11.63
14.43
16.26
17.24
17.50
17.20
16.55
15.74
15.00
14.44
14.06
13.76
13.39
12.85
12.14
11.31
10.43
9.49
8.40
7.03
5.31
3.27
1.02
-1.28
-3.56
-5.84
-8.19
-10.73
-13.56
-16.75
-20.29
-24.14
-28.15
-32.02
-35.29
-37.42
-37.86
-36.19
-32.30
-26.49
-19.37
-11.77
-4.51
1.84
7.06
11.27
14.67
17.47
19.68
21.19
21.95
22.08
21.84
21.52
21.27
21.01
20.58
19.81
18.75
17.62
16.70
16.12
15.79
15.43
14.72
13.43
11.54
9.20
6.63
4.00
1.44
-1.06
-3.56
-6.17
-9.00
-12.16
-15.73
-19.76
-24.23
-28.96
-33.62
-37.71
-40.63
-41.83
-40.93
-37.77
-32.54
-25.70
-17.93
-9.94
-2.39
4.29
9.91
14.49
18.11
20.85
22.72
23.74
24.01
23.68
23.06
22.42
21.95
21.72
21.65
21.58
21.35
20.85
20.10
19.26
18.48
17.92
17.54
17.15
16.44
15.14
13.17
10.61
7.74
4.77
1.86
-1.00
-3.89
-6.91
-10.16
-13.78
-17.90
-22.60
-27.75
-32.89
-37.31
-40.17
-40.82
-39.00
-34.95
-29.27
-22.74
-16.04
-9.66
-3.85
1.28
5.73
9.45
12.39
14.53
15.89
16.53
16.60
16.25
15.63
14.84
13.93
12.91
11.78
10.52
9.12
7.51
5.65
3.46
0.87
-2.16
-5.60
-9.39
-13.46
-17.78
-22.41
-27.49
-33.16
-39.45
-46.28
-53.43
-60.71
-68.09
-75.70
-83.82
-92.70
-102.34
-112.42
-122.29
-131.14
-138.08
-142.31
-143.15
-140.16
-133.16
-122.18
-107.49
-89.49
-68.62
-45.31
-20.12
6.26
32.84
58.43
81.80
101.93
118.11
130.06
137.91
141.99
142.83
141.00
137.14
131.86
125.69
119.04
112.24
105.48
98.90
92.57
86.47
80.39
74.13
67.47
60.40
53.06
45.75
38.77
32.30
26.35
20.70
15.09
9.27
3.12
-3.29
-9.70
-15.68
-20.61
-23.87
-24.93
-23.52
-19.79
-14.30
-7.89
-1.44
4.31
8.96
12.45
14.96
16.70
17.87
18.59
18.91
18.88
18.62
18.22
17.76
17.27
16.78
16.30
15.90
15.64
15.52
15.50
15.44
15.24
14.73
13.86
12.57
10.87
8.79
6.39
3.81
1.18
-1.39
-3.91
-6.46
-9.18
-12.16
-15.43
-18.98
-22.76
-26.73
-30.81
-34.78
-38.25
-40.64
-41.36
-39.96
-36.36
-30.83
-24.00
-16.59
-9.25
-2.44
3.62
8.84
13.22
16.80
19.56
21.54
22.78
23.35
23.33
22.87
22.14
21.36
20.76
20.51
20.62
21.00
21.38
21.49
21.13
20.18
18.68
16.74
14.50
12.11
9.70
7.37
5.22
3.27
1.44
-0.48
-2.71
-5.39
-8.55
-12.01
-15.58
-19.13
-22.63
-26.18
-29.80
-33.31
-36.25
-38.01
-37.94
-35.71
-31.34
-25.29
-18.28
-11.09
-4.35
1.55
6.51
10.58
13.87
16.49
18.52
20.02
21.05
21.73
22.15
22.33
22.25
21.82
21.04
19.98
18.81
17.73
16.86
16.22
15.69
15.13
14.41
13.46
12.27
10.84
9.16
7.24
5.09
2.69
0.09
-2.66
-5.44
-8.18
-10.81
-13.37
-16.03
-19.04
-22.59
-26.70
-31.13
-35.30
-38.54
-40.25
-40.04
-37.85
-33.87
-28.48
-22.16
-15.44
-8.82
-2.74
2.50
6.72
9.90
12.12
13.49
14.20
14.43
14.35
14.16
13.99
13.89
13.81
13.66
13.32
12.78
12.08
11.36
10.73
10.24
9.86
9.46
8.87
7.91
6.45
4.45
1.94
-0.96
-4.04
-7.06
-9.83
-12.30
-14.61
-17.01
-19.83
-23.20
-27.00
-30.80
-34.02
-36.02
-36.38
-34.91
-31.69
-26.99
-21.23
-14.85
-8.36
-2.21
3.18
7.55
10.81
13.08
14.60
15.62
16.27
16.56
16.47
16.04
15.47
15.04
14.95
15.24
15.70
16.01
15.91
15.29
14.27
13.08
11.91
10.88
9.96
9.05
8.00
6.66
4.89
2.62
-0.13
-3.21
-6.40
-9.49
-12.39
-15.16
-18.00
-21.16
-24.80
-28.88
-33.07
-36.80
-39.39
-40.24
-38.97
-35.58
-30.41
-24.03
-17.08
-10.13
-3.62
2.19
7.15
11.28
14.64
17.37
19.58
21.32
22.58
23.28
23.36
22.86
21.96
20.96
20.11
19.61
19.45
19.48
19.48
19.24
18.69
17.86
16.86
15.76
14.58
13.18
11.41
9.13
6.36
3.25
0.07
-2.88
-5.46
-7.70
-9.81
-12.07
-14.76
-18.04
-21.87
-26.03
-29.99
-33.10
-34.64
-34.08
-31.25
-26.43
-20.21
-13.40
-6.63
-0.35
5.21
9.93
13.69
16.39
18.06
18.83
19.01
18.86
18.58
18.18
17.61
16.83
15.93
15.04
14.31
13.79
13.45
13.14
12.72
12.11
11.27
10.23
9.01
7.65
6.14
4.53
2.84
1.06
-0.82
-2.89
-5.26
-8.04
-11.26
-14.91
-18.86
-22.93
-26.89
-30.47
-33.39
-35.26
-35.75
-34.55
-31.57
-26.97
-21.13
-14.62
-7.98
-1.69
3.96
8.77
12.68
15.64
17.64
18.78
19.21
19.16
18.87
18.53
18.21
17.88
17.46
16.90
16.23
15.57
15.07
14.80
14.67
14.46
13.89
12.75
10.98
8.61
5.79
2.64
-0.70
-4.08
-7.30
-10.15
-12.52
-14.50
-16.37
-18.60
-21.58
-25.39
-29.72
-33.92
-37.16
-38.75
-38.29
-35.76
-31.46
-25.84
-19.42
-12.68
-6.09
-0.05
5.09
9.13
12.05
14.02
15.31
16.16
16.74
17.09
17.18
17.01
16.62
16.15
15.76
15.62
15.75
16.08
16.44
16.60
16.39
15.75
14.80
13.69
12.58
11.45
10.14
8.41
6.07
3.21
0.11
-2.88
-5.44
-7.53
-9.35
-11.29
-13.76
-17.03
-21.12
-25.79
-30.58
-34.89
-38.13
-39.80
-39.59
-37.36
-33.22
-27.42
-20.43
-12.81
-5.21
1.78
7.74
12.51
16.11
18.65
20.24
21.01
21.12
20.86
20.53
20.42
20.64
21.07
21.45
21.52
21.19
20.51
19.70
18.98
18.40
17.94
17.44
16.74
15.76
14.50
13.00
11.36
9.65
7.86
5.93
3.74
1.18
-1.81
-5.14
-8.67
-12.14
-15.35
-18.12
-20.41
-22.18
-23.38
-23.74
-22.86
-20.16
-15.16
-7.74
1.69
12.17
22.45
31.43
38.43
43.48
47.18
50.44
54.26
59.52
66.88
76.39
87.18
97.29
103.87
104.12
96.41
81.29
61.47
41.06
23.95
12.59
7.43
7.38
10.67
15.70
21.29
26.48
30.31
31.75
30.05
25.15
17.80
9.34
1.10
-6.02
-11.93
-17.17
-22.64
-29.12
-37.01
-46.02
-55.22
-63.20
-68.56
-70.36
-68.56
-64.17
-58.87
-54.51
-52.35
-52.71
-54.94
-57.90
-60.49
-62.15
-63.05
-63.93
-65.68
-68.96
-73.90
-80.08
-86.69
-92.82
-97.68
-100.74
-101.76
-100.83
-98.48
-95.71
-93.96
-94.93
-100.00
-109.58
-122.46
-135.71
-145.17
-146.62
-136.90
-114.89
-81.72
-40.58
3.90
46.56
82.65
108.59
122.75
125.66
119.64
108.00
93.94
79.65
66.11
53.41
41.37
30.10
20.09
11.87
5.76
1.70
-0.59
-1.43
-1.04
0.28
2.16
3.90
4.66
3.72
0.80
-3.78
-9.25
-14.72
-19.52
-23.49
-26.88
-30.15
-33.74
-37.87
-42.52
-47.46
-52.35
-56.70
-60.10
-62.30
-63.52
-64.54
-66.66
-71.23
-79.15
-90.40
-104.01
-118.41
-131.81
-142.60
-149.48
-151.27
-146.98
-135.94
-118.27
-95.19
-69.01
-42.57
-18.41
2.01
18.48
31.78
42.92
52.55
60.71
67.10
71.46
74.00
75.28
76.06
76.83
77.64
78.16
78.06
77.17
75.73
74.11
72.64
71.35
69.92
67.85
64.62
59.97
53.95
46.92
39.42
31.94
24.77
17.85
10.76
2.87
-6.39
-17.18
-28.98
-40.57
-50.19
-56.03
-56.69
-51.64
-41.32
-27.07
-10.76
5.70
20.77
33.54
43.76
51.61
57.39
61.32
63.47
63.87
62.63
60.15
57.02
53.90
51.25
49.25
47.78
46.61
45.55
44.56
43.70
43.00
42.28
41.20
39.30
36.29
32.20
27.41
22.49
17.92
13.80
9.81
5.23
-0.61
-8.14
-17.21
-27.05
-36.34
-43.54
-47.13
-46.04
-39.97
-29.47
-15.89
-0.95
13.67
26.71
37.58
46.18
52.68
57.31
60.23
61.59
61.57
60.48
58.68
56.45
54.02
51.46
48.87
46.30
43.89
41.77
40.07
38.79
37.81
36.82
35.45
33.25
29.95
25.49
20.10
14.20
8.22
2.49
-2.94
-8.27
-13.90
-20.24
-27.54
-35.62
-43.81
-50.90
-55.46
-56.24
-52.55
-44.63
-33.43
-20.40
-6.89
6.07
17.91
28.36
37.25
44.34
49.41
52.32
53.17
52.37
50.53
48.27
46.09
44.25
42.74
41.40
40.07
38.63
37.08
35.56
34.13
32.81
31.43
29.71
27.35
24.14
20.04
15.25
10.15
5.15
0.60
-3.46
-7.29
-11.38
-16.23
-22.16
-29.10
-36.55
-43.64
-49.25
-52.29
-51.95
-47.83
-40.11
-29.51
-17.16
-4.29
7.90
18.60
27.36
34.11
39.01
42.29
44.15
44.75
44.24
42.80
40.68
38.20
35.64
33.21
30.98
28.87
26.78
24.68
22.67
20.92
19.58
18.58
17.60
16.16
13.83
10.47
6.33
1.91
-2.23
-5.78
-8.83
-11.73
-14.95
-18.91
-23.81
-29.59
-35.96
-42.34
-47.82
-51.34
-51.83
-48.62
-41.70
-31.80
-20.21
-8.38
2.48
11.65
18.97
24.59
28.79
31.74
33.49
34.03
33.47
32.08
30.28
28.48
26.97
25.77
24.75
23.70
22.46
20.98
19.34
17.63
15.90
14.10
12.18
10.03
7.62
4.91
1.99
-1.04
-4.00
-6.78
-9.37
-11.88
-14.58
-17.82
-21.94
-27.13
-33.31
-39.97
-46.22
-50.87
-52.70
-50.87
-45.20
-36.28
-25.31
-13.73
-2.80
6.69
14.46
20.62
25.44
29.12
31.73
33.26
33.70
33.13
31.71
29.72
27.46
25.19
23.09
21.29
19.83
18.66
17.75
17.01
16.38
15.72
14.91
13.75
12.12
9.98
7.41
4.61
1.78
-0.97
-3.62
-6.27
-9.04
-11.94
-14.89
-17.78
-20.60
-23.54
-26.97
-31.22
-36.32
-41.80
-46.70
-49.80
-50.04
-46.83
-40.30
-31.26
-20.84
-10.26
-0.47
7.97
14.88
20.32
24.47
27.52
29.63
30.89
31.38
31.16
30.26
28.79
26.83
24.56
22.19
19.94
18.06
16.66
15.75
15.20
14.76
14.19
13.27
11.88
10.02
7.78
5.27
2.59
-0.18
-3.02
-5.89
-8.70
-11.38
-13.84
-16.07
-18.12
-20.15
-22.36
-24.96
-28.15
-32.02
-36.43
-40.99
-44.94
-47.27
-46.98
-43.44
-36.67
-27.40
-16.89
-6.51
2.67
10.11
15.76
19.91
22.83
24.75
25.80
26.08
25.74
24.98
23.96
22.77
21.44
19.98
18.47
17.06
15.91
15.09
14.54
14.06
13.45
12.55
11.34
9.88
8.28
6.62
4.92
3.14
1.19
-1.02
-3.53
-6.30
-9.20
-12.06
-14.76
-17.20
-19.44
-21.63
-24.05
-26.99
-30.68
-35.14
-40.01
-44.53
-47.56
-47.98
-45.06
-38.77
-29.89
-19.72
-9.65
-0.69
6.62
12.26
16.44
19.37
21.17
21.93
21.71
20.75
19.37
17.90
16.60
15.59
14.81
14.18
13.58
12.93
12.25
11.54
10.82
10.06
9.21
8.19
6.97
5.47
3.65
1.46
-1.08
-3.89
-6.79
-9.62
-12.28
-14.78
-17.25
-19.87
-22.81
-26.16
-29.95
-34.08
-38.33
-42.22
-45.03
-45.91
-44.12
-39.34
-31.85
-22.50
-12.50
-2.97
5.27
11.89
16.94
20.57
22.97
24.23
24.46
23.86
22.74
21.47
20.28
19.26
18.27
17.17
15.85
14.34
12.83
11.51
10.49
9.73
9.03
8.16
6.94
5.31
3.31
1.00
-1.51
-4.24
-7.14
-10.16
-13.17
-16.03
-18.60
-20.83
-22.80
-24.74
-26.94
-29.68
-33.12
-37.23
-41.72
-45.95
-49.09
-50.19
-48.53
-43.85
-36.44
-27.13
-17.01
-7.12
1.74
9.14
14.98
19.32
22.25
23.87
24.35
23.92
22.95
21.79
20.76
19.99
19.47
19.07
18.61
17.92
16.95
15.70
14.31
12.96
11.78
10.76
9.78
8.62
7.10
5.15
2.84
0.30
-2.40
-5.26
-8.28
-11.42
-14.51
-17.39
-19.95
-22.35
-24.93
-28.18
-32.42
-37.69
-43.58
-49.29
-53.75
-55.89
-54.95
-50.67
-43.41
-34.04
-23.72
-13.55
-4.33
3.54
10.00
15.12
19.00
21.69
23.21
23.65
23.24
22.27
21.09
19.96
19.00
18.19
17.43
16.59
15.60
14.42
13.11
11.72
10.33
8.99
7.71
6.45
5.12
3.56
1.63
-0.79
-3.64
-6.77
-9.92
-12.93
-15.77
-18.66
-21.94
-25.96
-30.92
-36.74
-43.02
-48.99
-53.62
-55.78
-54.55
-49.52
-41.00
-30.06
-18.17
-6.83
2.91
10.62
16.41
20.67
23.75
25.88
27.13
27.59
27.38
26.74
25.88
24.94
23.93
22.80
21.45
19.82
18.00
16.14
14.45
13.05
11.91
10.81
9.37
7.27
4.35
0.80
-3.01
-6.58
-9.62
-12.18
-14.58
-17.33
-20.93
-25.67
-31.60
-38.45
-45.58
-52.02
-56.57
-58.04
-55.61
-49.15
-39.32
-27.39
-14.83
-2.88
7.67
16.47
23.50
28.81
32.40
34.33
34.74
33.96
32.43
30.65
28.95
27.54
26.38
25.32
24.17
22.85
21.37
19.88
18.54
17.37
16.23
14.78
12.66
9.64
5.75
1.32
-3.15
-7.22
-10.68
-13.65
-16.51
-19.81
-24.08
-29.64
-36.52
-44.27
-51.91
-58.08
-61.28
-60.33
-54.81
-45.18
-32.72
-19.10
-5.83
6.05
16.13
24.38
30.96
35.96
39.34
41.06
41.21
40.10
38.27
36.31
34.67
33.54
32.79
32.14
31.30
30.17
28.83
27.51
26.36
25.42
24.48
23.24
21.36
18.60
14.90
10.38
5.30
0.04
-5.01
-9.58
-13.59
-17.24
-20.93
-25.16
-30.37
-36.73
-44.01
-51.45
-57.85
-61.79
-62.00
-57.81
-49.40
-37.77
-24.45
-11.00
1.41
12.16
21.09
28.28
33.76
37.50
39.44
39.69
38.60
36.66
34.44
32.38
30.67
29.30
28.13
27.02
25.88
24.73
23.64
22.65
21.77
20.89
19.77
18.13
15.72
12.37
8.18
3.48
-1.31
-5.81
-9.84
-13.49
-17.11
-21.11
-25.89
-31.65
-38.36
-45.64
-52.77
-58.67
-62.10
-61.93
-57.55
-49.11
-37.56
-24.34
-10.96
1.41
12.10
20.91
27.85
33.01
36.42
38.16
38.43
37.62
36.24
34.78
33.54
32.61
31.87
31.11
30.20
29.06
27.70
26.18
24.55
22.81
20.94
18.91
16.63
14.00
10.90
7.22
2.99
-1.65
-6.41
-11.00
-15.21
-19.04
-22.74
-26.70
-31.39
-37.13
-43.98
-51.55
-58.97
-64.97
-68.13
-67.24
-61.74
-51.93
-38.89
-24.31
-9.88
3.07
13.87
22.45
29.15
34.34
38.29
41.07
42.71
43.26
42.91
41.96
40.72
39.41
38.18
37.02
35.87
34.69
33.41
32.04
30.56
28.97
27.22
25.23
22.89
20.15
16.98
13.42
9.54
5.40
1.01
-3.62
-8.44
-13.35
-18.24
-23.03
-27.81
-32.80
-38.31
-44.57
-51.53
-58.64
-64.92
-69.09
-69.94
-66.74
-59.51
-49.09
-36.87
-24.43
-13.11
-3.72
3.42
8.41
11.55
13.11
13.27
12.17
9.91
6.65
2.69
-1.64
-6.04
-10.32
-14.45
-18.58
-22.88
-27.46
-32.35
-37.50
-42.86
-48.46
-54.35
-60.60
-67.10
-73.61
-79.63
-84.55
-87.62
-88.13
-85.45
-79.24
-69.50
-56.62
