1680804400.00
64.000000
-0.00
-0.00
-0.00
-0.00
-0.00
-0.00
-0.00
-0.00
-0.00
-0.00
0.00
0.01
0.01
-0.00
-0.03
-0.05
-0.05
0.00
0.13
0.36
0.66
1.01
1.37
1.72
2.06
2.40
2.79
3.24
3.80
4.42
5.06
5.66
6.20
6.68
7.15
7.68
8.31
9.14
10.09
11.04
11.88
12.56
13.14
13.76
14.65
15.96
17.91
20.32
22.90
25.38
27.58
29.57
31.68
34.32
37.81
42.54
48.15
54.10
59.83
64.97
69.58
74.14
79.34
85.71
93.76
103.00
112.62
121.73
129.77
136.75
143.30
150.75
157.77
166.64
177.95
191.79
206.97
220.57
228.25
225.36
208.53
176.87
132.76
80.05
23.07
-34.94
-92.44
-149.16
-205.23
-260.37
-313.74
-363.86
-409.81
-450.87
-486.45
-515.66
-537.12
-549.07
-549.77
-538.13
-513.91
-478.32
-433.47
-381.97
-326.48
-269.23
-211.95
-155.91
-102.12
-51.46
-4.91
36.67
72.61
102.65
126.92
145.93
160.39
171.01
178.41
182.99
185.04
184.78
182.50
178.54
173.30
167.20
160.59
153.71
146.70
139.65
132.58
125.55
118.61
111.84
105.30
99.06
93.15
87.57
82.35
77.48
72.99
68.87
65.13
61.78
58.84
56.30
54.14
52.37
50.94
49.81
48.89
48.07
47.22
46.15
44.71
42.71
40.03
36.57
32.32
27.33
21.66
15.51
9.10
2.68
-3.48
-9.14
-14.10
-18.20
-21.37
-23.59
-24.88
-25.35
-25.10
-24.28
-23.02
-21.44
-19.62
-17.64
-15.52
-13.28
-10.92
-8.47
-5.92
-3.28
-0.54
2.27
5.15
8.11
11.14
14.20
17.25
20.30
23.34
26.40
29.53
32.78
36.21
39.90
43.80
47.85
52.04
56.38
60.86
65.49
70.32
75.38
80.80
86.39
92.09
97.82
103.57
109.31
115.04
120.76
126.48
132.23
137.74
142.79
147.14
150.57
152.81
153.50
152.15
148.10
142.67
136.36
129.51
122.34
115.05
107.75
100.58
93.66
87.11
81.11
75.49
70.20
65.17
60.38
55.82
51.49
47.39
43.53
39.99
36.59
33.23
29.88
26.54
23.23
19.99
16.91
14.08
11.59
9.37
7.37
5.58
3.93
2.42
1.01
-0.31
-1.52
-2.59
-3.53
-4.36
-5.04
-5.56
-5.90
-6.05
-6.02
-5.82
-5.47
-5.04
-4.57
-4.10
-3.65
-3.22
-2.83
-2.45
-2.06
-1.65
-1.19
-0.69
-0.18
0.33
0.79
1.17
1.39
1.42
1.24
0.81
0.19
-0.62
-1.57
-2.58
-3.59
-4.53
-5.34
-5.99
-6.48
-6.79
-6.98
-7.07
-7.13
-7.19
-7.29
-7.45
-7.68
-7.96
-8.27
-8.62
-9.00
-9.40
-9.76
-10.05
-10.24
-10.33
-10.32
-10.28
-10.27
-10.38
-10.66
-11.13
-11.79
-12.57
-13.43
-14.34
-15.31
-16.40
-17.62
-18.98
-20.40
-21.76
-22.92
-23.81
-24.46
-25.06
-25.92
-27.33
-29.53
-32.51
-36.09
-39.96
-43.83
-47.61
-51.46
-55.71
-60.73
-66.72
-73.53
-80.75
-87.81
-94.27
-100.10
-105.76
-112.02
-119.70
-129.29
-140.73
-153.46
-166.71
-179.74
-192.33
-204.71
-217.51
-231.71
-248.39
-268.59
-292.85
-320.57
-349.47
-375.64
-394.36
-401.63
-395.65
-377.48
-350.61
-319.46
-287.91
-258.16
-230.83
-205.66
-182.35
-160.97
-141.84
-125.03
-110.09
-96.18
-82.50
-68.77
-55.29
-42.88
-32.39
-24.29
-18.48
-14.34
-11.03
-7.79
-4.26
-0.43
3.40
6.91
9.92
12.44
14.68
16.82
19.00
21.08
22.77
23.79
23.80
22.69
20.59
17.84
14.99
12.65
11.34
11.30
12.47
14.51
16.98
19.46
21.75
23.81
25.69
27.45
29.06
30.43
31.48
32.15
32.48
32.58
32.53
32.40
32.21
32.00
31.78
31.62
31.53
31.46
31.35
31.07
30.53
29.63
28.41
26.97
25.44
23.95
22.59
21.35
20.12
18.70
16.83
14.32
11.14
7.53
3.97
1.06
-0.65
-0.83
0.51
3.04
6.25
9.67
12.86
15.59
17.73
19.31
20.40
21.14
21.70
22.14
22.49
22.75
22.93
23.08
23.31
23.69
24.20
24.76
25.19
25.34
25.11
24.45
23.39
21.90
19.95
17.60
14.88
11.94
8.93
5.98
3.09
0.25
-2.66
-5.71
-8.89
-12.04
-14.81
-16.73
-17.28
-16.15
-13.26
-8.90
-3.63
1.95
7.29
12.06
16.11
19.45
22.06
23.96
25.22
25.91
26.16
26.11
25.85
25.34
24.51
23.23
21.55
19.65
17.80
16.34
15.41
14.97
14.79
14.61
14.20
13.46
12.48
11.39
10.34
9.31
8.22
6.87
5.03
2.55
-0.48
-3.79
-6.85
-9.06
-9.93
-9.25
-7.10
-3.92
-0.37
2.99
5.71
7.66
9.00
9.96
10.80
11.65
12.51
13.25
13.79
14.00
13.84
13.32
12.48
11.44
10.26
9.05
7.88
6.80
5.81
4.95
4.23
3.69
3.40
3.41
3.78
4.50
5.44
6.45
7.27
7.64
7.39
6.40
4.67
2.28
-0.61
-3.73
-6.68
-9.00
-10.21
-10.03
-8.53
-6.04
-3.18
-0.55
1.37
2.40
2.64
2.34
1.82
1.42
1.35
1.81
2.81
4.25
5.98
7.78
9.54
11.20
12.71
14.02
15.08
15.85
16.31
16.41
16.11
15.21
13.60
11.23
8.23
4.96
1.81
-0.85
-2.91
-4.46
-5.79
-7.21
-8.93
-11.00
-13.38
-15.83
-18.04
-19.57
-20.07
-19.30
-17.23
-14.13
-10.40
-6.51
-2.90
0.15
2.48
4.06
4.97
5.36
5.42
5.31
5.16
4.92
4.44
3.54
2.05
-0.07
-2.78
-5.91
-9.32
-12.90
-16.63
-20.64
-25.09
-30.09
-35.72
-42.06
-49.14
-56.98
-65.56
-74.75
-84.38
-94.25
-104.24
-114.37
-124.70
-135.30
-146.13
-156.88
-167.12
-176.48
-184.68
-191.57
-197.05
-200.91
-202.70
-201.74
-197.22
-188.23
-173.99
-153.88
-127.62
-95.36
-57.69
-15.77
28.71
73.64
116.73
155.79
189.00
215.15
233.73
244.95
249.50
248.33
242.56
233.32
221.73
208.89
195.67
182.65
170.13
158.15
146.60
135.37
124.41
113.62
102.90
92.14
81.32
70.69
60.72
52.05
45.23
40.54
37.80
36.53
36.00
35.52
34.59
32.99
30.83
28.30
25.75
23.47
21.54
19.94
18.62
17.53
16.65
16.08
15.87
16.06
16.57
17.30
18.17
19.03
19.79
20.26
20.25
19.54
18.00
15.64
12.61
9.18
5.63
2.20
-1.08
-4.33
-7.80
-11.66
-15.90
-20.17
-23.83
-26.17
-26.59
-24.89
-21.26
-16.29
-10.72
-5.19
-0.13
4.27
7.99
11.10
13.65
15.58
16.84
17.40
17.33
16.83
16.10
15.31
14.56
13.80
12.95
12.04
11.11
10.27
9.60
9.11
8.80
8.60
8.50
8.57
8.77
8.98
9.01
8.58
7.42
5.41
2.64
-0.57
-3.69
-6.11
-7.22
-6.68
-4.51
-1.11
2.85
6.63
9.64
11.60
12.55
12.68
12.31
11.70
11.01
10.25
9.41
8.47
7.43
6.41
5.52
4.88
4.48
4.31
4.33
4.45
4.59
4.70
4.66
4.42
3.93
3.22
2.35
1.30
-0.03
-1.82
-4.16
-7.06
-10.25
-13.30
-15.64
-16.80
-16.50
-14.67
-11.54
-7.50
-3.05
1.39
5.39
8.69
11.09
12.54
13.02
12.59
11.40
9.62
7.54
5.38
3.38
1.67
0.36
-0.53
-1.05
-1.27
-1.31
-1.32
-1.33
-1.34
-1.27
-1.02
-0.58
-0.08
0.22
-0.06
-1.24
-3.48
-6.64
-10.33
-13.97
-16.93
-18.67
-18.87
-17.53
-14.89
-11.34
-7.37
-3.40
0.20
3.18
5.39
6.83
7.58
7.84
7.83
7.70
7.58
7.43
7.20
6.81
6.25
5.55
4.81
4.07
3.32
2.61
1.92
1.28
0.73
0.30
-0.09
-0.59
-1.41
-2.75
-4.72
-7.32
-10.33
-13.48
-16.37
-18.57
-19.67
-19.35
-17.52
-14.25
-9.95
-5.14
-0.36
3.94
7.51
10.25
12.24
13.56
14.35
14.70
14.70
14.38
13.76
12.82
11.54
9.98
8.34
6.89
5.89
5.47
5.54
5.81
5.94
5.69
5.01
4.00
2.93
1.96
1.16
0.45
-0.39
-1.66
-3.64
-6.49
-10.15
-14.25
-18.09
-20.86
-21.89
-20.90
-18.08
-14.07
-9.64
-5.52
-2.08
0.58
2.57
4.07
5.30
6.39
7.47
8.61
9.86
11.17
12.45
13.53
14.31
14.66
14.62
14.28
13.78
13.27
12.83
12.55
12.44
12.45
12.53
12.58
12.42
11.90
10.97
9.61
7.94
6.11
4.21
2.23
0.07
-2.43
-5.39
-8.71
-12.12
-15.12
-17.13
-17.69
-16.55
-13.87
-10.04
-5.67
-1.28
2.71
6.10
8.85
11.01
12.68
13.89
14.66
14.96
14.82
14.26
13.44
12.54
11.68
10.91
10.19
9.44
8.66
7.93
7.37
7.10
7.12
7.31
7.52
7.65
7.65
7.55
7.36
7.06
6.64
6.10
5.52
4.99
4.60
4.28
3.98
3.70
3.56
4.02
5.56
8.64
13.50
20.01
27.74
36.10
44.48
52.28
59.10
64.57
68.49
70.81
71.62
71.16
69.70
67.48
64.68
61.38
57.59
53.30
48.40
42.72
36.15
28.61
20.25
11.41
2.64
-5.62
-13.11
-19.87
-26.26
-32.59
-39.10
-45.69
-52.07
-57.77
-62.52
-66.18
-68.87
-70.89
-72.60
-74.36
-76.42
-78.82
-81.28
-83.25
-84.02
-82.94
-79.71
-74.40
-67.53
-59.80
-51.86
-44.22
-37.17
-30.81
-25.17
-20.30
-16.25
-13.06
-10.69
-8.98
-7.61
-6.25
-4.61
-2.54
-0.17
2.29
4.51
6.32
7.74
8.92
10.02
11.07
12.01
12.67
12.93
12.76
12.30
11.75
11.25
10.88
10.62
10.26
9.56
8.34
6.49
4.06
1.23
-1.80
-4.75
-7.42
-9.56
-11.00
-11.56
-11.14
-9.74
-7.43
-4.46
-1.03
2.62
6.31
9.83
13.10
15.97
18.40
20.33
21.72
22.61
23.00
22.92
22.44
21.64
20.54
19.24
17.81
16.34
14.95
13.65
12.45
11.27
9.99
8.53
6.86
5.01
3.02
1.00
-0.96
-2.88
-4.69
-6.50
-8.41
-10.62
-13.33
-16.66
-20.49
-24.48
-28.00
-30.37
-31.05
-29.77
-26.67
-22.18
-16.98
-11.66
-6.67
-2.33
1.32
4.27
6.61
8.34
9.55
10.27
10.53
10.35
9.77
8.87
7.78
6.68
5.80
5.38
5.60
6.52
8.06
9.98
11.90
13.34
13.88
13.24
11.38
8.53
5.11
1.55
-1.75
-4.57
-6.89
-8.80
-10.55
-12.35
-14.41
-16.65
-18.80
-20.33
-20.62
-19.16
-15.76
-10.70
-4.59
1.69
7.38
11.94
15.13
17.03
17.93
18.19
18.13
17.94
17.60
17.06
16.27
15.29
14.30
13.53
13.15
13.18
13.45
13.75
13.87
13.76
13.48
13.03
12.35
11.25
9.57
7.24
4.43
1.47
-1.30
-3.63
-5.54
-7.22
-8.99
-11.10
-13.64
-16.47
-19.27
-21.55
-22.75
-22.38
-20.15
-16.13
-10.69
-4.45
1.90
7.72
12.55
16.19
18.60
19.87
20.21
19.84
19.08
18.21
17.51
17.12
17.03
17.15
17.23
17.10
16.69
16.04
15.33
14.80
14.64
14.95
15.63
16.47
17.15
17.41
17.11
16.21
14.94
13.49
12.03
10.62
9.13
7.39
5.30
2.81
0.07
-2.71
-5.26
-7.27
-8.39
-8.35
-7.01
-4.48
-1.12
2.49
5.72
8.00
9.06
8.86
7.59
5.53
3.00
0.29
-2.40
-4.87
-6.97
-8.65
-9.96
-11.04
-12.08
-13.24
-14.50
-15.76
-16.85
-17.60
-17.94
-17.96
-17.84
-17.70
-17.69
-17.83
-18.00
-18.05
-17.89
-17.48
-16.90
-16.37
-16.09
-16.26
-16.87
-17.75
-18.58
-19.00
-18.76
-17.66
-15.61
-12.59
-8.64
-3.86
1.46
6.95
12.09
16.51
20.03
22.71
24.82
26.56
27.99
29.05
29.58
29.53
29.03
28.29
27.53
26.96
26.62
26.48
26.42
26.25
25.79
24.84
23.27
21.15
18.74
16.39
14.38
12.78
11.35
9.72
7.49
4.40
0.51
-3.86
-8.15
-11.74
-14.02
-14.59
-13.37
-10.55
-6.67
-2.40
1.59
4.82
7.10
8.47
9.10
9.20
8.90
8.19
7.01
5.31
3.11
0.61
-1.99
-4.43
-6.59
-8.46
-10.12
-11.68
-13.23
-14.76
-16.25
-17.72
-19.22
-20.86
-22.75
-24.90
-27.22
-29.51
-31.57
-33.30
-34.74
-36.03
-37.35
-38.79
-40.21
-41.31
-41.69
-41.02
-39.04
-35.75
-31.26
-25.87
-20.00
-14.06
-8.44
-3.38
0.98
4.64
7.59
9.80
11.24
11.95
12.08
11.88
11.63
11.53
11.56
11.68
11.82
12.07
12.65
13.70
15.14
16.56
17.40
17.18
15.78
13.45
10.76
8.22
6.17
4.58
3.21
1.81
0.14
-1.88
-4.28
-6.96
-9.78
-12.43
-14.39
-15.09
-14.03
-11.07
-6.45
-0.83
5.12
10.73
15.70
19.90
23.42
26.30
28.55
30.12
30.89
30.86
30.02
28.50
26.51
24.31
22.15
20.25
18.67
17.35
16.21
15.16
14.20
13.33
12.56
11.82
11.05
10.18
9.23
8.27
7.41
6.67
5.98
5.10
3.81
1.85
-0.87
-4.30
-8.17
-12.02
-15.26
-17.33
-17.95
-17.12
-15.11
-12.34
-9.26
-6.18
-3.29
-0.71
1.49
3.22
4.46
5.27
5.81
6.30
6.93
7.81
8.90
10.06
11.08
11.69
11.74
11.18
10.11
8.71
7.21
5.76
4.42
3.17
1.93
0.77
-0.27
-1.10
-1.80
-2.59
-3.83
-5.84
-8.78
-12.48
-16.46
-20.08
-22.66
-23.75
-23.19
-21.10
-17.86
-13.88
-9.58
-5.26
-1.10
2.76
6.22
9.17
11.55
13.34
14.60
15.40
15.82
15.83
15.40
14.49
13.11
11.42
9.67
8.16
7.11
6.54
6.25
5.94
5.31
4.19
2.66
0.92
-0.76
-2.29
-3.76
-5.34
-7.23
-9.52
-12.23
-15.28
-18.54
-21.78
-24.64
-26.66
-27.34
-26.37
-23.68
-19.52
-14.43
-9.05
-3.94
0.53
4.22
7.19
9.56
11.51
13.14
14.52
15.66
16.55
17.15
17.43
17.33
16.81
15.88
14.53
12.89
11.05
9.12
7.24
5.47
3.86
2.36
0.93
-0.49
-1.96
-3.44
-4.90
-6.32
-7.73
-9.21
-10.88
-12.86
-15.18
-17.74
-20.35
-22.68
-24.26
-24.64
-23.48
-20.73
-16.66
-11.81
-6.83
-2.20
1.76
5.00
7.52
9.37
10.55
11.08
11.15
11.01
10.99
11.28
11.92
12.65
13.17
13.22
12.71
11.76
10.63
9.59
8.74
8.06
7.41
6.54
5.35
3.83
2.17
0.53
-0.86
-1.94
-2.82
-3.64
-4.62
-5.85
-7.31
-8.89
-10.48
-11.88
-12.91
-13.37
-13.01
-11.65
-9.19
-5.80
-1.87
2.00
5.29
7.63
8.96
9.48
9.49
9.28
8.98
8.62
8.19
7.71
7.29
6.98
6.88
6.89
6.89
6.80
6.59
6.28
5.85
5.19
4.16
2.66
0.68
-1.55
-3.69
-5.48
-6.74
-7.54
-8.15
-8.96
-10.33
-12.44
-15.26
-18.55
-21.84
-24.56
-26.17
-26.31
-24.93
-22.22
-18.62
-14.64
-10.72
-7.20
-4.20
-1.77
0.12
1.43
2.13
2.16
1.55
0.42
-1.03
-2.47
-3.73
-4.69
-5.34
-5.67
-5.63
-5.10
-3.98
-2.34
-0.45
1.20
2.23
2.49
2.19
1.73
1.53
1.77
2.27
2.65
2.45
1.40
-0.54
-3.23
-6.38
-9.61
-12.45
-14.40
-14.94
-13.82
-11.10
-7.17
-2.65
1.81
5.73
8.86
11.13
12.62
13.46
13.79
13.74
13.46
13.07
12.63
12.15
11.59
10.88
10.03
9.11
8.24
7.56
7.17
7.07
7.16
7.26
7.22
6.95
6.41
5.66
4.74
3.76
2.81
2.00
1.42
1.11
0.94
0.64
-0.05
-1.35
-3.23
-5.47
-7.62
-9.22
-9.90
-9.48
-7.98
-5.58
-2.61
0.52
3.40
5.76
7.38
8.24
8.35
7.72
6.50
4.87
3.16
1.78
1.05
1.09
1.77
2.78
3.80
4.65
5.35
6.04
6.85
7.77
8.62
9.13
9.15
8.59
7.64
6.54
5.52
4.67
3.89
2.93
1.52
-0.55
-3.34
-6.69
-10.34
-13.80
-16.56
-18.21
-18.46
-17.27
-14.87
-11.63
-8.01
-4.38
-0.94
2.19
5.01
7.44
9.40
10.72
11.27
10.99
9.93
8.31
6.48
4.82
3.68
3.21
3.43
4.09
4.81
5.18
4.95
4.05
2.66
1.03
-0.65
-2.29
-3.92
-5.63
-7.40
-9.15
-10.84
-12.49
-14.24
-16.28
-18.69
-21.38
-23.92
-25.77
-26.36
-25.35
-22.74
-18.84
-14.19
-9.36
-4.83
-0.84
2.57
5.44
7.86
9.78
11.20
12.09
12.51
12.57
12.40
12.07
11.65
11.13
10.44
9.54
8.35
6.91
5.34
3.88
2.78
2.12
1.83
1.66
1.31
0.54
-0.65
-2.10
-3.52
-4.73
-5.62
-6.24
-6.77
-7.40
-8.39
-9.89
-11.96
-14.43
-16.90
-18.81
-19.56
-18.69
-16.00
-11.73
-6.42
-0.84
4.23
8.23
10.98
12.61
13.47
13.93
14.24
14.38
14.18
13.46
12.17
10.42
8.44
6.47
4.66
3.05
1.62
0.39
-0.59
-1.21
-1.38
-1.15
-0.68
-0.24
-0.11
-0.38
-1.00
-1.74
-2.33
-2.69
-2.88
-3.27
-4.21
-5.97
-8.56
-11.71
-14.94
-17.66
-19.29
-19.51
-18.24
-15.76
-12.55
-9.18
-6.07
-3.44
-1.26
0.57
2.11
3.29
3.97
4.16
4.00
3.82
3.91
4.41
5.20
5.99
6.43
6.36
5.87
5.21
4.64
4.32
4.21
4.14
3.94
3.60
3.23
3.01
3.08
3.36
3.60
3.45
2.64
1.02
-1.27
-4.08
-7.17
-10.34
-13.37
-15.95
-17.68
-18.12
-16.96
-14.20
-10.26
-5.89
-1.89
1.21
3.33
4.74
5.88
7.01
8.08
8.81
8.90
8.34
7.38
6.41
5.69
5.28
4.99
4.60
3.98
3.22
2.50
1.97
1.66
1.45
1.21
0.80
0.20
-0.57
-1.40
-2.23
-3.00
-3.68
-4.24
-4.83
-5.68
-7.06
-9.19
-12.04
-15.26
-18.21
-20.19
-20.62
-19.35
-16.60
-12.85
-8.68
-4.55
-0.71
2.70
5.65
8.10
10.01
11.31
12.04
12.29
12.20
11.92
11.52
11.01
10.33
9.47
8.49
7.52
6.65
6.01
5.58
5.25
4.95
4.63
4.27
3.88
3.43
2.89
2.18
1.30
0.32
-0.59
-1.31
-1.88
-2.47
-3.36
-4.84
-7.06
-9.86
-12.81
-15.29
-16.68
-16.60
-15.08
-12.41
-9.15
-5.84
-2.90
-0.54
1.26
2.61
3.59
4.27
4.67
4.78
4.62
4.28
3.89
3.64
3.63
3.92
4.45
5.09
5.66
6.09
6.38
6.56
6.60
6.44
5.93
4.99
3.63
2.04
0.49
-0.73
-1.47
-1.79
-1.93
-2.31
-3.35
-5.24
-7.92
-10.92
-13.56
-15.17
-15.32
-13.94
-11.35
-8.05
-4.53
-1.14
1.96
4.71
6.98
8.71
9.80
10.23
10.13
9.70
9.14
8.56
7.99
7.35
6.54
5.48
4.22
2.88
1.66
0.78
0.37
0.43
0.82
1.34
1.77
1.98
1.91
1.59
1.06
0.33
-0.66
-1.95
-3.53
-5.35
-7.32
-9.35
-11.42
-13.50
-15.50
-17.17
-18.12
-17.94
-16.34
-13.33
-9.28
-4.72
-0.25
3.62
6.61
8.65
9.78
10.12
9.89
9.25
8.42
7.56
6.85
6.37
6.15
6.06
5.89
5.39
4.36
2.85
1.10
-0.44
-1.36
-1.42
-0.71
0.43
1.52
2.19
2.25
1.73
0.79
-0.32
-1.41
-2.34
-3.07
-3.72
-4.48
-5.60
-7.31
-9.70
-12.52
-15.32
-17.44
-18.31
-17.52
-14.98
-10.91
-5.76
-0.15
5.36
10.15
13.76
15.97
16.82
16.60
15.75
14.77
13.97
13.46
13.16
12.92
12.57
12.01
11.20
10.19
9.12
8.14
7.43
7.14
7.19
7.41
7.51
7.24
6.48
5.23
3.67
2.00
0.43
-0.94
-2.14
-3.38
-4.96
-7.16
-10.10
-13.62
-17.23
-20.27
-22.04
-22.07
-20.33
-17.20
-13.32
-9.38
-5.81
-2.73
-0.03
2.51
4.98
7.24
9.07
10.31
10.94
11.18
11.34
11.63
12.04
12.40
12.49
12.19
11.55
10.77
10.07
9.50
8.93
8.09
6.82
5.15
3.38
1.96
1.22
1.23
1.80
2.48
2.81
2.45
1.27
-0.69
-3.27
-6.23
-9.26
-11.97
-13.89
-14.59
-13.84
-11.72
-8.66
-5.29
-2.29
-0.04
1.42
2.38
3.26
4.41
5.86
7.36
8.57
9.25
9.33
9.01
8.58
8.26
8.13
8.13
8.14
8.04
7.78
7.38
6.86
6.26
5.51
4.61
3.51
2.26
1.01
-0.02
-0.68
-0.89
-0.82
-0.82
-1.36
-2.76
-5.08
-8.06
-11.14
-13.65
-15.04
-14.94
-13.25
-10.06
-5.58
-0.12
5.89
11.97
17.60
22.31
25.81
28.01
29.10
29.44
29.42
29.38
29.50
29.78
30.07
30.25
30.23
30.10
29.92
29.73
29.36
28.51
26.75
23.76
19.45
13.98
7.74
1.12
-5.63
-12.45
-19.41
-26.64
-34.05
-41.29
-47.81
-53.00
-56.66
-59.25
-61.91
-66.22
-73.79
-85.82
-102.88
-124.77
-150.48
-178.25
-205.77
-230.52
-250.53
-264.80
-273.70
-278.50
-280.33
-278.92
-272.03
-255.93
-227.02
-183.75
-127.91
-64.58
-0.75
56.65
102.56
134.64
153.05
159.67
157.05
148.03
135.50
122.52
112.06
106.61
107.79
116.04
130.63
149.69
170.57
190.18
205.72
215.27
218.44
216.42
211.32
205.22
199.14
192.63
184.28
172.74
157.64
139.83
120.79
101.59
82.31
62.11
40.30
17.15
-5.41
-24.35
-36.76
-41.02
-37.59
-28.82
-17.93
-7.83
-0.25
4.55
7.37
9.36
11.46
14.01
16.98
20.19
23.60
27.27
31.11
34.59
36.71
36.42
33.22
27.74
21.65
17.11
15.78
18.07
23.07
29.09
34.75
39.34
42.77
44.97
45.38
43.01
37.17
28.21
17.84
8.65
2.91
1.60
4.00
8.06
11.34
11.89
8.83
2.21
-7.29
-18.74
-31.09
-43.31
-54.37
-63.35
-69.57
-72.72
-72.90
-70.56
-66.38
-61.13
-55.54
-50.13
-45.21
-40.82
-36.78
-32.82
-28.81
-24.82
-21.19
-18.44
-17.12
-17.57
-19.92
-24.07
-29.88
-37.10
-45.40
-54.12
-62.26
-68.53
-71.69
-70.96
-66.35
-58.61
-49.07
-39.21
-30.24
-22.93
-17.62
-14.28
-12.66
-12.49
-13.50
-15.53
-18.52
-22.46
-27.33
-32.84
-38.43
-43.29
-46.55
-47.58
-46.18
-42.67
-37.62
-31.74
-25.71
-20.03
-15.11
-11.23
-8.58
-7.13
-6.62
-6.62
-6.68
-6.52
-6.06
-5.45
-4.81
-4.16
-3.33
-2.07
-0.20
2.21
4.93
7.60
9.89
11.63
12.78
13.46
13.79
13.86
13.81
13.68
13.57
13.44
13.17
12.53
11.30
9.30
6.58
3.38
0.08
-2.84
-4.95
-5.89
-5.52
-3.91
-1.37
1.61
4.45
6.57
7.70
7.79
7.07
5.84
4.36
2.72
0.93
-0.95
-2.73
-4.08
-4.61
-4.10
-2.55
-0.29
2.20
4.43
6.11
7.19
7.80
8.19
8.63
9.30
10.26
11.46
12.73
13.87
14.61
14.74
14.15
12.93
11.33
9.78
8.69
8.40
9.09
10.75
13.22
16.20
19.27
21.89
23.48
23.61
22.11
19.24
15.60
11.84
8.52
5.85
3.65
1.67
-0.35
-2.45
-4.49
-6.23
-7.52
-8.28
-8.55
-8.39
-7.82
-6.91
-5.77
-4.63
-3.74
-3.23
-3.04
-2.91
-2.48
-1.41
0.37
2.64
4.97
6.78
7.54
7.06
5.49
3.32
1.34
0.24
0.53
2.23
4.95
7.93
10.25
11.05
9.68
5.94
0.23
-6.43
-12.49
-16.30
-16.61
-13.04
-6.21
2.33
10.75
17.38
21.15
21.78
19.54
15.11
9.29
2.92
-3.21
-8.36
-11.92
-13.56
-13.29
-11.52
-8.90
-6.20
-3.98
-2.52
-1.71
-1.20
-0.59
0.45
1.99
3.91
6.04
8.12
10.00
11.57
12.72
13.36
13.42
12.81
11.51
9.57
7.16
4.58
2.14
0.26
-0.80
-0.94
-0.27
0.96
2.39
3.66
4.59
5.08
5.18
4.91
4.19
2.97
1.11
-1.32
-4.10
-6.80
-9.07
-10.65
-11.45
-11.55
-10.97
-9.71
-7.68
-4.95
-1.86
1.06
3.21
4.17
3.99
3.09
2.11
1.68
2.06
3.16
4.56
5.74
6.23
5.77
4.42
2.47
0.45
-1.14
-1.91
-1.70
-0.60
1.14
3.18
5.21
6.90
7.99
8.28
7.69
6.35
4.58
2.75
1.18
-0.04
-1.07
-2.16
-3.52
-5.10
-6.65
-7.81
-8.42
-8.50
-8.39
-8.42
-8.67
-8.90
-8.73
-7.85
-6.33
-4.56
-3.05
-2.14
-1.76
-1.56
-1.08
-0.14
1.18
2.47
3.31
3.42
2.76
1.45
-0.21
-1.79
-2.98
-3.49
-3.29
-2.51
-1.40
-0.19
1.01
2.21
3.45
4.73
5.95
6.98
7.70
8.09
8.13
7.71
6.66
4.77
1.97
-1.59
-5.57
-9.50
-12.95
-15.65
-17.56
-18.67
-18.92
-18.12
-16.04
-12.61
-8.17
-3.32
1.15
4.61
6.89
8.14
8.82
9.25
9.52
9.46
8.89
7.82
6.51
5.34
4.66
4.62
5.12
5.97
6.96
7.92
8.70
9.10
8.97
8.20
6.84
5.12
3.32
1.69
0.29
-0.86
-1.73
-2.23
-2.16
-1.50
-0.40
0.71
1.35
1.16
0.14
-1.36
-2.94
-4.33
-5.57
-6.87
-8.49
-10.43
-12.47
-14.17
-15.10
-15.11
-14.32
-13.08
-11.74
-10.57
-9.61
-8.82
-8.18
-7.73
-7.65
-8.08
-9.15
-10.82
-12.99
-15.55
-18.44
-21.62
-25.02
-28.54
-31.91
-34.98
-37.68
-40.10
-42.48
-45.05
-48.03
-51.54
-55.71
-60.70
-66.73
-73.94
-82.36
-91.82
-102.00
-112.64
-123.58
-134.90
-146.68
-158.89
-171.24
-183.22
-194.39
-204.50
-213.59
-221.87
-229.38
-235.68
-239.72
-240.11
-235.41
-224.57
-207.01
-182.60
-151.39
-113.53
-69.53
-20.68
30.54
80.46
124.88
160.28
184.89
199.27
206.02
208.36
208.63
207.23
202.75
193.03
176.65
153.84
126.31
96.49
66.57
38.10
12.21
-9.86
-27.05
-38.99
-46.58
-52.23
-59.26
-70.51
-86.97
-107.21
-127.80
-145.12
-157.51
-166.63
-177.09
-194.23
-220.94
-255.08
-289.38
-314.07
-321.15
-308.03
-278.61
-241.19
-204.47
-173.96
-150.74
-132.76
-117.47
-103.78
-92.33
-84.25
-79.82
-77.47
-74.48
-68.31
-57.94
-44.22
-29.58
-16.64
-7.20
-1.46
1.76
4.42
8.26
13.94
21.01
28.17
34.07
37.86
39.63
40.14
40.51
41.70
44.18
47.98
52.75
58.25
64.32
71.04
78.55
86.98
96.29
106.42
117.37
129.17
142.00
155.92
170.75
186.06
201.16
215.43
228.44
240.19
251.00
261.46
272.29
284.26
297.96
313.37
329.62
344.69
355.89
360.70
357.83
347.95
333.52
317.91
303.98
293.18
285.25
278.89
272.74
266.11
259.06
251.84
244.41
236.06
225.73
212.50
196.01
176.66
155.24
132.59
109.17
84.95
59.69
33.20
5.45
-23.38
-52.99
-83.14
-113.49
-143.42
-171.99
-197.88
-219.81
-236.85
-248.80
-256.27
-260.42
-262.32
-262.46
-260.46
-255.31
-245.76
-231.14
-211.58
-188.05
-162.12
-135.35
-109.00
-83.89
-60.48
-39.12
-19.97
-2.86
12.72
27.63
42.78
58.67
75.27
92.09
108.54
124.46
140.40
157.55
177.45
201.47
230.36
263.97
301.38
340.97
380.91
419.41
454.77
485.23
508.97
524.24
530.14
527.68
520.31
512.99
510.00
512.14
515.31
511.27
490.92
448.36
383.63
302.61
214.16
126.31
43.37
-34.36
-108.92
-182.56
-256.46
-330.88
-405.90
-481.34
-555.97
-626.27
-686.12
-728.34
-747.34
-741.62
-714.70
-673.76
-626.78
-579.79
-535.64
-494.48
-455.55
-418.71
-384.90
-355.49
-331.26
-311.53
-294.16
-276.36
-255.73
-231.01
-202.43
-171.13
-138.59
-106.03
-74.12
-43.30
-14.22
12.06
33.94
49.92
59.23
62.34
61.07
58.07
55.95
56.40
59.70
64.76
69.69
72.66
72.48
68.90
62.57
54.53
45.92
37.73
30.73
25.38
21.99
20.50
20.54
21.45
22.47
23.10
23.32
23.69
25.23
29.16
36.46
47.52
62.04
79.11
97.40
115.50
132.20
146.60
158.10
166.38
171.37
173.12
172.01
168.54
163.31
156.82
149.42
141.30
132.56
123.37
113.98
104.67
95.68
86.96
78.20
68.85
58.34
46.42
33.39
20.08
7.67
-2.69
-10.19
-14.56
-15.97
-14.98
-12.22
-8.29
-3.77
0.89
5.29
9.10
12.14
14.27
15.36
15.30
14.04
11.58
8.16
4.21
0.29
-2.97
-4.98
-5.36
-3.95
-0.94
3.26
8.11
13.04
17.62
21.62
24.94
27.46
29.10
29.78
29.48
28.28
26.43
24.22
21.88
19.55
17.21
14.82
12.35
9.87
7.52
5.47
3.73
2.20
0.68
-1.17
-3.53
-6.54
-10.12
-14.10
-18.22
-22.25
-26.03
-29.55
-32.84
-35.99
-38.94
-41.47
-43.19
-43.70
-42.77
-40.41
-36.93
-32.81
-28.54
-24.46
-20.70
-17.29
-14.19
-11.42
-9.06
-7.21
-5.94
-5.19
-4.82
-4.72
-4.71
-4.70
-4.65
-4.54
-4.33
-4.07
-3.77
-3.47
-3.26
-3.20
-3.36
-3.76
-4.40
-5.25
-6.28
-7.47
-8.80
-10.28
-11.92
-13.61
-15.16
-16.25
-16.45
-15.43
-12.98
-9.14
-4.21
1.36
7.05
12.49
17.42
21.73
25.35
28.22
30.24
31.37
31.65
31.26
30.41
29.29
27.96
26.30
24.20
21.55
18.42
15.05
11.75
8.70
5.89
3.13
0.06
-3.57
-7.82
-12.54
-17.36
-21.94
-26.10
-29.83
-33.26
-36.54
-39.66
-42.48
-44.90
-46.82
-48.26
-49.15
-49.22
-48.01
-44.98
-39.79
-32.48
-23.59
-13.88
-4.28
4.54
12.12
18.29
23.04
26.44
28.56
29.58
29.74
29.34
28.69
28.05
27.50
26.98
26.29
25.29
23.93
22.40
20.91
19.72
18.94
18.44
17.95
17.21
15.99
14.23
12.08
9.64
7.10
4.60
2.20
-0.10
-2.36
-4.77
-7.50
-10.68
-14.23
-17.85
-21.04
-23.19
-23.74
-22.41
-19.20
-14.38
-8.45
-1.94
4.59
10.71
16.07
20.52
24.04
26.69
28.62
29.94
30.67
30.76
30.12
28.61
26.24
23.14
19.55
15.83
12.37
9.46
7.25
5.72
4.64
3.69
2.53
0.93
-1.18
-3.69
-6.32
-8.83
-11.03
-12.83
-14.27
-15.42
-16.35
-17.15
-17.90
-18.71
-19.63
-20.64
-21.56
-22.06
-21.78
-20.46
-18.07
-14.83
-11.25
-7.85
-5.11
-3.26
-2.21
-1.58
-0.86
0.36
2.38
5.14
8.36
11.57
14.31
16.28
17.37
17.71
17.49
16.97
16.33
15.70
15.19
14.83
14.62
14.39
13.90
12.90
11.23
8.99
6.44
3.96
1.86
0.22
-1.13
-2.53
-4.27
-6.56
-9.36
-12.39
-15.16
-17.08
-17.68
-16.76
-14.46
-11.22
-7.64
-4.22
-1.33
0.86
2.32
3.07
3.21
2.93
2.53
2.38
2.80
3.95
5.79
8.12
10.67
13.18
15.43
17.22
18.36
18.70
18.21
16.97
15.16
12.97
10.57
8.09
5.52
2.95
0.42
-1.92
-3.96
-5.58
-6.85
-7.97
-9.20
-10.86
-13.13
-16.00
-19.26
-22.51
-25.32
-27.28
-28.13
-27.71
-26.05
-23.22
-19.43
-15.03
-10.41
-5.96
-1.92
1.52
4.42
6.82
8.83
10.44
11.59
12.33
12.69
12.78
12.68
12.47
12.10
11.53
10.68
9.57
8.22
6.65
4.91
3.09
1.26
-0.49
-2.11
-3.59
-4.94
-6.15
-7.18
-8.01
-8.52
-8.72
-8.67
-8.51
-8.33
-8.30
-8.52
-9.10
-10.07
-11.34
-12.70
-13.84
-14.40
-14.07
-12.70
-10.40
-7.44
-4.26
-1.33
1.01
2.63
3.59
4.07
4.30
4.39
4.38
4.20
3.89
3.43
2.90
2.36
1.75
1.03
0.12
-1.02
-2.38
-3.86
-5.35
-6.69
-7.75
-8.45
-8.80
-8.91
-8.99
-9.23
-9.80
-10.67
-11.69
-12.56
-13.03
-13.00
-12.64
-12.25
-12.19
-12.63
-13.38
-13.96
-13.77
-12.33
-9.51
-5.60
-1.17
3.20
7.01
10.02
12.08
13.10
12.97
11.70
9.44
6.59
3.68
1.24
-0.38
-1.11
-1.17
-0.86
-0.45
-0.03
0.45
1.08
1.93
2.87
3.73
4.24
4.21
3.56
2.34
0.72
-1.09
-2.93
-4.74
-6.53
-8.37
-10.27
-12.21
-14.06
-15.70
-16.98
-17.90
-18.44
-18.64
-18.44
-17.67
-16.14
-13.76
-10.62
-7.09
-3.60
-0.53
1.94
3.85
5.37
6.62
7.63
8.30
8.45
8.04
7.17
6.08
5.04
4.24
3.72
3.38
3.09
2.75
2.34
1.91
1.55
1.29
1.11
0.84
0.33
-0.50
-1.63
-2.90
-4.13
-5.18
-6.02
-6.70
-7.33
-8.02
-8.84
-9.80
-10.85
-12.02
-13.27
-14.53
-15.61
-16.28
-16.25
-15.35
-13.62
-11.30
-8.76
-6.38
-4.43
-2.97
-1.97
-1.32
-0.87
-0.60
-0.39
-0.23
-0.02
0.33
0.91
1.71
2.70
3.82
4.97
6.07
7.08
8.01
8.80
9.43
9.79
9.77
9.26
8.20
6.60
4.53
2.10
-0.56
-3.32
-6.02
-8.54
-10.70
-12.45
-13.75
-14.67
-15.34
-15.94
-16.61
-17.38
-18.06
-18.32
-17.78
-16.15
-13.43
-9.92
-6.12
-2.57
0.37
2.64
4.46
6.12
7.88
9.81
11.83
13.84
15.77
17.70
19.77
22.05
24.48
26.82
28.73
29.88
30.18
29.65
28.58
27.20
25.76
24.29
22.75
20.97
18.79
16.12
12.96
9.43
5.70
1.98
-1.56
-4.80
-7.65
-10.10
-12.10
-13.62
-14.56
-14.87
-14.54
-13.58
-12.03
-9.99
-7.60
-5.01
-2.44
-0.13
1.73
2.99
3.63
3.69
3.25
2.37
1.15
-0.28
-1.77
-3.18
-4.45
-5.55
-6.52
-7.38
-8.11
-8.66
-8.98
-9.07
-8.94
-8.63
-8.17
-7.59
-6.94
-6.37
-6.08
-6.29
-7.16
-8.71
-10.87
-13.46
-16.33
-19.24
-21.97
-24.32
-26.21
-27.65
-28.80
-29.86
-30.91
-31.81
-32.17
-31.45
-29.27
-25.55
-20.61
-15.09
-9.67
-4.88
-0.93
2.21
4.66
6.54
7.85
8.60
8.82
8.70
8.46
8.32
8.31
8.34
8.24
7.91
7.36
6.72
6.11
5.66
5.40
5.29
5.30
5.29
5.18
4.84
4.10
2.86
1.09
-1.11
-3.58
-6.06
-8.35
-10.35
-12.06
-13.48
-14.68
-15.70
-16.51
-17.12
-17.52
-17.67
-17.50
-16.80
-15.29
-12.71
-8.97
-4.20
1.15
6.46
11.10
14.59
16.74
17.62
17.52
16.75
15.64
14.38
13.05
11.66
10.17
8.63
7.15
5.90
4.99
4.51
4.40
4.54
4.81
5.09
5.26
5.24
4.95
4.32
3.38
2.27
1.17
0.31
-0.22
-0.45
-0.55
-0.77
-1.40
-2.61
-4.41
-6.70
-9.21
-11.71
-14.00
-16.02
-17.85
-19.58
-21.25
-22.75
-23.85
-24.21
-23.53
-21.62
-18.47
-14.28
-9.40
-4.29
0.62
4.97
8.61
11.53
13.82
15.55
16.76
17.45
17.70
17.66
17.58
17.69
18.06
18.65
19.30
19.82
20.07
20.02
19.64
18.98
17.99
16.63
14.88
12.75
10.28
7.59
4.82
2.13
-0.32
-2.38
-3.98
-5.17
-6.09
-6.90
-7.74
-8.67
-9.73
-10.94
-12.35
-13.98
-15.73
-17.35
-18.45
-18.57
-17.46
-15.11
-11.84
-8.08
-4.41
-1.21
1.27
2.96
3.89
4.18
3.95
3.37
2.64
1.93
1.37
0.99
0.75
0.55
0.28
-0.12
-0.61
-1.13
-1.61
-2.00
-2.29
-2.43
-2.43
-2.30
-2.07
-1.77
-1.47
-1.21
-1.06
-1.16
-1.68
-2.82
-4.72
-7.35
-10.43
-13.59
-16.40
-18.53
-19.79
-20.11
-19.48
-17.89
-15.33
-11.95
-8.02
-3.99
-0.28
2.77
5.11
6.86
8.22
9.37
10.28
10.88
11.07
10.91
10.58
10.32
10.28
10.41
10.56
10.55
10.37
10.08
9.85
9.70
9.55
9.24
8.62
7.61
6.25
4.64
2.84
0.91
-1.05
-2.94
-4.61
-6.00
-7.16
-8.27
-9.51
-10.98
-12.69
-14.58
-16.60
-18.66
-20.64
-22.32
-23.34
-23.30
-21.93
-19.23
-15.50
-11.36
-7.39
-4.07
-1.58
0.19
1.55
2.80
4.15
5.61
6.98
7.99
8.45
8.33
7.80
7.21
6.80
6.72
6.93
7.23
7.44
7.54
7.65
7.94
8.50
9.19
9.66
9.58
8.71
7.16
5.27
3.47
2.07
1.10
0.36
-0.50
-1.65
-3.15
-4.81
-6.44
-7.95
-9.40
-10.83
-12.18
-13.21
-13.50
-12.71
-10.75
-7.98
-4.98
-2.41
-0.67
0.23
0.59
0.80
1.08
1.44
1.69
1.67
1.35
0.85
0.36
0.01
-0.19
-0.29
-0.29
-0.12
0.36
1.25
2.41
3.61
4.58
5.12
5.19
4.83
4.11
3.05
1.61
-0.24
-2.41
-4.73
-6.96
-8.97
-10.75
-12.40
-14.12
-16.00
-18.01
-19.92
-21.37
-21.97
-21.37
-19.45
-16.26
-12.02
-7.11
-1.91
3.18
7.77
11.55
14.34
16.05
16.82
16.90
16.55
15.92
15.10
14.05
12.76
11.29
9.78
8.39
7.17
6.17
5.33
4.60
4.04
3.63
3.32
2.92
2.20
1.01
-0.66
-2.62
-4.62
-6.48
-8.15
-9.69
-11.16
-12.61
-14.03
-15.45
-16.97
-18.74
-20.76
-22.78
-24.26
-24.57
-23.26
-20.20
-15.77
-10.61
-5.44
-0.85
2.83
5.54
7.39
8.54
9.19
9.54
9.75
9.94
10.13
10.31
10.43
10.53
10.64
10.86
11.16
11.48
11.67
11.63
11.35
10.90
10.40
9.86
9.16
8.12
6.61
4.65
2.38
0.00
-2.31
-4.49
-6.52
-8.52
-10.60
-12.86
-15.39
-18.21
-21.20
-24.09
-26.43
-27.69
-27.42
-25.42
-21.76
-16.86
-11.31
-5.70
-0.52
3.94
7.57
10.40
12.48
13.88
14.67
14.90
14.73
14.34
13.92
13.55
13.24
12.88
12.42
11.82
11.18
10.68
10.49
10.70
11.21
11.79
12.22
12.28
11.91
11.17
10.18
9.03
7.76
6.31
4.59
2.51
0.05
-2.68
-5.59
-8.53
-11.40
-14.14
-16.71
-18.97
-20.73
-21.80
-21.98
-21.18
-19.47
-17.05
-14.17
-11.06
-7.94
-4.94
-2.20
0.24
2.30
3.96
5.23
6.14
6.72
6.99
7.00
6.82
6.55
6.26
6.02
5.82
5.62
5.43
5.23
5.09
5.06
5.19
5.44
5.73
5.88
5.75
5.27
4.45
3.38
2.11
0.71
-0.85
-2.59
-4.52
-6.60
-8.78
-10.85
-12.59
-13.67
-13.77
-12.67
-10.36
-7.12
-3.48
0.01
2.95
5.18
6.85
8.21
9.40
10.42
11.08
11.20
10.67
9.59
8.22
6.88
5.82
5.11
4.68
4.39
4.13
3.88
3.66
3.51
3.39
3.25
2.94
2.38
1.59
0.66
-0.23
-1.03
-1.77
-2.57
-3.58
-4.87
-6.36
-7.89
-9.30
-10.51
-11.60
-12.70
-13.97
-15.43
-16.92
-18.13
-18.68
-18.22
-16.56
-13.77
-10.14
-6.10
-2.09
1.47
4.36
6.53
8.08
9.18
10.03
10.76
11.48
12.23
13.07
13.99
14.97
15.92
16.72
17.23
17.34
16.99
16.18
14.96
13.42
11.68
9.86
8.08
6.41
4.88
3.52
2.30
1.20
0.17
-0.83
-1.89
-3.05
-4.37
-5.88
-7.54
-9.35
-11.32
-13.47
-15.82
-18.32
-20.79
-22.94
-24.40
-24.78
-23.77
-21.33
-17.65
-13.11
-8.23
-3.48
0.71
4.11
6.60
8.22
9.12
9.53
9.70
9.80
9.91
10.01
10.03
9.92
9.71
9.54
9.51
9.66
9.94
10.25
10.43
10.41
10.20
9.86
9.43
8.82
7.86
6.38
4.36
1.98
-0.38
-2.40
-3.81
-4.64
-5.07
-5.41
-5.90
-6.69
-7.78
-9.11
-10.65
-12.37
-14.20
-15.90
-17.10
-17.33
-16.22
-13.62
-9.76
-5.22
-0.71
3.12
5.97
7.84
8.97
9.63
10.01
10.15
10.01
9.63
9.10
8.61
8.30
8.20
8.20
8.09
7.72
7.09
6.43
6.05
6.22
7.01
8.27
9.60
10.58
10.90
10.43
9.27
7.63
5.74
3.74
1.67
-0.53
-3.00
-5.88
-9.25
-12.98
-16.86
-20.47
-23.40
-25.24
-25.74
-24.85
-22.64
-19.34
-15.23
-10.70
-6.10
-1.73
2.13
5.32
7.76
9.49
10.55
11.06
11.13
10.86
10.36
9.74
9.13
8.64
8.33
8.19
8.16
8.05
7.70
7.02
6.04
4.93
3.94
3.31
3.13
3.29
3.56
3.62
3.19
2.20
0.77
-0.88
-2.51
-4.02
-5.42
-6.84
-8.35
-10.00
-11.75
-13.49
-15.19
-16.81
-18.29
-19.42
-19.86
-19.19
-17.17
-13.86
-9.67
-5.22
-1.14
2.13
4.46
5.94
6.78
7.17
7.26
7.15
6.90
6.57
6.16
5.72
5.30
4.93
4.68
4.61
4.73
4.96
5.21
5.42
5.54
5.65
5.81
6.04
6.28
6.42
6.30
5.86
5.10
4.10
2.94
1.69
0.31
-1.27
-3.08
-5.18
-7.57
-10.21
-13.08
-16.06
-18.93
-21.40
-23.10
-23.71
-23.02
-21.00
-17.82
-13.80
-9.42
-5.11
-1.26
1.88
4.23
5.86
6.98
7.81
8.52
9.20
9.84
10.34
10.65
10.71
10.47
9.92
9.11
8.17
7.33
6.77
6.60
6.84
7.31
7.82
8.18
8.23
7.85
6.96
5.52
3.58
1.33
-0.97
-3.03
-4.65
-5.84
-6.71
-7.48
-8.31
-9.34
-10.58
-11.95
-13.23
-14.08
-14.13
-13.06
-10.78
-7.46
-3.58
0.31
3.74
6.53
8.68
10.35
11.65
12.58
13.09
13.13
12.71
11.94
10.92
9.74
8.38
6.93
5.52
4.37
3.72
3.69
4.17
4.86
5.43
5.56
5.14
4.19
2.92
1.55
0.27
-0.84
-1.85
-2.87
-4.10
-5.57
-7.28
-9.10
-10.92
-12.73
-14.61
-16.67
-18.88
-21.07
-22.77
-23.54
-22.99
-20.97
-17.61
-13.26
-8.39
-3.49
1.05
4.98
8.17
10.61
12.33
13.38
13.80
13.58
12.77
11.45
9.82
8.07
6.41
5.01
3.94
3.24
2.90
2.90
3.14
3.52
3.90
4.14
4.16
3.91
3.42
2.74
1.93
1.01
-0.07
-1.36
-2.94
-4.87
-7.12
-9.58
-12.10
-14.51
-16.69
-18.64
-20.43
-22.14
-23.79
-25.25
-26.23
-26.39
-25.38
-23.02
-19.33
-14.59
-9.26
-3.91
0.99
5.17
8.52
11.13
13.15
14.71
15.84
16.57
16.87
16.80
16.50
16.09
15.69
15.29
14.83
14.24
13.48
12.55
11.54
10.60
9.77
9.01
8.21
7.16
5.76
3.98
1.90
-0.26
-2.29
-4.03
-5.38
-6.32
-6.87
-7.17
-7.37
-7.75
-8.60
-10.14
-12.45
-15.31
-18.33
-20.90
-22.42
-22.37
-20.60
-17.27
-12.92
-8.26
-3.89
-0.18
2.79
5.18
7.16
8.78
9.98
10.66
10.76
10.40
9.82
9.24
8.81
8.52
8.30
7.99
7.54
6.99
6.49
6.18
6.12
6.24
6.37
6.30
5.94
5.26
4.36
3.33
2.20
0.94
-0.48
-2.00
-3.51
-4.92
-6.18
-7.48
-9.06
-11.14
-13.69
-16.36
-18.56
-19.64
-19.19
-17.11
-13.73
-9.55
-5.11
-0.86
2.91
6.02
8.38
9.89
10.58
10.55
10.03
9.29
8.55
7.96
7.49
7.08
6.62
6.06
5.39
4.72
4.11
3.65
3.40
3.32
3.33
3.31
3.18
2.89
2.47
1.95
1.30
0.50
-0.54
-1.85
-3.39
-5.10
-6.93
-8.82
-10.72
-12.62
-14.53
-16.43
-18.29
-20.05
-21.45
-22.17
-21.79
-20.08
-16.96
-12.76
-7.93
-3.04
1.44
5.22
8.20
10.39
11.83
12.60
12.82
12.62
12.11
11.39
10.49
9.46
8.34
7.18
6.03
4.99
4.14
3.56
3.26
3.18
3.23
3.29
3.31
3.31
3.35
3.50
3.73
3.87
3.77
3.28
2.36
1.07
-0.55
-2.42
-4.51
-6.77
-9.14
-11.46
-13.61
-15.49
-17.06
-18.36
-19.36
-19.89
-19.67
-18.37
-15.87
-12.26
-7.98
-3.52
0.61
4.07
6.78
8.84
10.34
11.39
11.98
12.10
11.79
11.25
10.64
10.14
9.77
9.44
8.97
8.28
7.48
6.79
6.49
6.69
7.36
8.28
9.23
10.08
10.79
11.31
11.59
11.50
10.89
9.70
8.03
6.06
4.03
2.08
0.23
-1.63
-3.72
-6.20
-9.15
-12.49
-15.94
-18.99
-21.05
-21.62
-20.44
-17.62
-13.55
-8.84
-4.12
0.10
3.51
6.00
7.62
8.54
9.00
9.22
9.37
9.57
9.78
9.97
10.09
10.12
10.10
10.03
9.96
9.84
9.71
9.57
9.36
8.99
8.34
7.27
5.77
3.92
1.91
0.01
-1.57
-2.76
-3.60
-4.19
-4.77
-5.51
-6.51
-7.83
-9.41
-11.19
-13.15
-15.26
-17.51
-19.77
-21.81
-23.27
-23.78
-23.05
-21.05
-17.93
-14.05
-9.80
-5.50
-1.37
2.46
5.83
8.59
10.63
11.87
12.41
12.43
12.18
11.85
11.48
11.01
10.34
9.48
8.55
7.79
7.37
7.35
7.62
7.91
7.98
7.67
7.09
6.39
5.83
5.59
5.77
6.25
6.80
7.09
6.79
5.71
3.82
1.26
-1.69
-4.82
-8.05
-11.37
-14.81
-18.37
-21.88
-25.10
-27.62
-29.11
-29.22
-27.81
-24.90
-20.76
-15.79
-10.47
-5.22
-0.35
3.93
7.51
10.34
12.43
13.84
14.71
15.26
15.66
16.04
16.40
16.71
16.95
17.15
17.33
17.53
17.67
17.59
17.12
16.13
14.68
12.94
11.13
9.38
7.68
5.92
4.00
1.92
-0.19
-2.17
-3.94
-5.55
-7.12
-8.86
-10.88
-13.16
-15.58
-18.03
-20.39
-22.57
-24.43
-25.71
-26.10
-25.24
-22.89
-19.07
-14.08
-8.48
-2.94
1.98
5.97
8.98
11.12
12.55
13.37
13.54
13.04
11.94
10.51
9.08
7.97
7.32
7.03
6.86
6.60
6.10
5.44
4.78
4.29
4.06
4.09
4.26
4.47
4.60
4.61
4.41
3.97
3.26
2.29
1.15
-0.04
-1.22
-2.37
-3.56
-4.97
-6.75
-8.91
-11.33
-13.67
-15.52
-16.44
-16.10
-14.38
-11.49
-7.85
-4.04
-0.61
2.13
4.15
5.63
6.80
7.80
8.62
9.15
9.33
9.27
9.22
9.49
10.24
11.41
12.70
13.74
14.26
14.20
13.67
12.97
12.28
11.67
11.01
10.10
8.73
6.86
4.58
2.10
-0.37
-2.72
-4.92
-7.06
-9.20
-11.33
-13.36
-15.18
-16.77
-18.25
-19.82
-21.61
-23.54
-25.19
-25.97
-25.28
-22.86
-18.84
-13.73
-8.23
-2.94
1.81
5.92
9.46
12.50
15.00
16.85
17.96
18.28
17.97
17.27
16.43
15.63
14.89
14.16
13.34
12.43
11.43
10.45
9.57
8.76
7.93
6.97
5.81
4.39
2.81
1.14
-0.50
-2.06
-3.55
-5.03
-6.54
-8.15
-9.84
-11.60
-13.45
-15.43
-17.65
-20.15
-22.84
-25.46
-27.61
-28.77
-28.51
-26.56
-22.96
-18.06
-12.46
-6.82
-1.70
2.53
5.79
8.20
9.95
11.21
12.03
12.39
12.33
11.97
11.46
10.99
10.63
10.37
10.12
9.77
9.30
8.72
8.15
7.69
7.40
7.30
7.35
7.49
7.57
7.50
7.13
6.41
5.32
3.95
2.51
1.14
0.00
-0.98
-1.98
-3.31
-5.22
-7.80
-10.93
-14.28
-17.47
-20.04
-21.69
-22.14
-21.30
-19.19
-16.01
-12.06
-7.73
-3.45
0.50
3.84
6.46
8.26
9.28
9.61
9.43
8.96
8.43
8.01
7.79
7.72
7.68
7.51
7.08
6.33
5.41
4.56
4.09
4.26
5.03
6.19
7.32
8.13
8.44
8.36
8.10
7.89
7.79
7.69
7.35
6.49
4.91
2.50
-0.68
-4.39
-8.22
-11.62
-14.08
-15.22
-14.90
-13.21
-10.51
-7.19
-3.66
-0.30
2.68
5.11
6.93
8.22
9.11
9.77
10.28
10.63
10.69
10.34
9.61
8.67
7.79
7.16
6.85
6.75
6.70
6.60
6.50
6.60
7.02
7.74
8.50
8.91
8.64
7.47
5.50
3.02
0.35
-2.23
-4.64
-6.94
-9.26
-11.68
-14.19
-16.72
-19.21
-21.62
-23.89
-25.84
-27.14
-27.31
-25.89
-22.68
-17.90
-12.06
-5.91
-0.08
5.06
9.38
12.90
15.66
17.55
18.44
18.25
17.09
15.28
13.13
10.98
9.02
7.39
6.16
5.44
5.31
5.77
6.66
7.67
8.50
8.90
8.79
8.17
7.14
5.73
3.94
1.83
-0.45
-2.70
-4.70
-6.37
-7.81
-9.22
-10.84
-12.80
-15.08
-17.51
-19.92
-22.12
-24.05
-25.64
-26.75
-27.07
-26.26
-24.04
-20.34
-15.43
-9.83
-4.21
0.90
5.23
8.70
11.40
13.37
14.60
15.02
14.65
13.65
12.35
11.14
10.32
9.99
10.07
10.32
10.51
10.52
10.39
10.27
10.30
10.55
11.00
11.51
11.84
11.76
11.07
9.68
7.64
5.15
2.50
0.06
-1.93
-3.50
-4.78
-6.10
-7.76
-9.89
-12.54
-15.62
-18.85
-21.89
-24.24
-25.34
-24.77
-22.33
-18.22
-13.03
-7.55
-2.50
1.72
5.05
7.68
9.82
11.59
12.96
13.81
14.02
13.63
12.86
12.02
11.42
11.23
11.43
11.89
12.35
12.59
12.47
11.97
11.16
10.18
9.12
7.97
6.66
5.08
3.18
0.96
-1.41
-3.73
-5.77
-7.47
-8.89
-10.26
-11.85
-13.82
-16.18
-18.75
-21.22
-23.24
-24.44
-24.48
-23.11
-20.20
-15.84
-10.39
-4.48
1.23
6.11
9.87
12.47
14.09
15.04
15.53
15.66
15.50
15.05
14.38
13.59
12.77
12.08
11.58
11.24
10.95
10.58
10.05
9.42
8.84
8.47
8.34
8.27
8.02
7.33
6.09
4.34
2.22
-0.16
-2.75
-5.58
-8.63
-11.83
-15.04
-18.23
-21.42
-24.71
-28.05
-31.21
-33.68
-34.84
-34.20
-31.54
-27.04
-21.24
-14.78
-8.27
-2.15
3.33
8.12
12.15
15.39
17.80
19.30
19.91
19.73
18.92
17.68
16.16
14.48
12.76
11.13
9.70
8.52
7.58
6.79
6.08
5.42
4.83
4.39
4.08
3.77
3.35
2.65
1.60
0.21
-1.44
-3.28
-5.21
-7.05
-8.69
-10.04
-11.16
-12.23
-13.47
-15.05
-16.98
-19.10
-21.22
-23.09
-24.47
-25.10
-24.65
-22.78
-19.33
-14.42
-8.50
-2.26
3.59
8.60
12.59
15.69
18.19
20.26
22.00
23.29
23.94
23.85
23.03
21.71
20.16
18.72
17.59
16.75
16.05
15.23
14.15
12.78
11.22
9.64
8.16
6.77
5.35
3.77
1.91
-0.22
-2.54
-4.92
-7.22
-9.35
-11.33
-13.20
-15.09
-17.17
-19.52
-22.16
-24.97
-27.63
-29.67
-30.59
-29.91
-27.37
-23.00
-17.19
-10.52
-3.73
2.56
7.95
12.30
15.62
18.06
19.76
20.81
21.28
21.20
20.66
19.73
18.53
17.17
15.79
14.55
13.59
12.98
12.65
12.51
12.35
12.01
11.38
10.39
9.09
7.53
5.80
3.95
2.10
0.27
-1.47
-3.14
-4.83
-6.67
-8.80
-11.30
-14.18
-17.37
-20.70
-23.86
-26.50
-28.22
-28.63
-27.47
-24.63
-20.28
-14.84
-8.96
-3.33
1.47
5.09
7.54
9.02
9.93
10.57
11.13
11.58
11.81
11.79
11.57
11.32
11.18
11.15
11.16
11.09
10.88
10.61
10.41
10.35
10.42
10.43
10.17
9.45
8.18
6.37
4.11
1.47
-1.42
-4.42
-7.41
-10.27
-12.98
-15.51
-17.94
-20.32
-22.75
-25.33
-28.06
-30.77
-33.10
-34.45
-34.23
-32.08
-27.96
-22.28
-15.76
-9.16
-3.12
2.00
6.13
9.36
11.85
13.71
14.98
15.58
15.53
14.89
13.92
12.92
12.15
11.68
11.29
10.62
9.30
7.30
4.98
3.00
2.01
2.28
3.51
4.88
5.41
4.41
1.83
-1.72
-5.21
-7.59
-8.33
-7.51
-5.84
-4.33
-3.90
-5.00
-7.47
-10.44
-12.28
-10.58
-2.49
14.48
41.35
76.62
116.25
154.66
186.73
209.68
223.87
232.10
237.73
242.86
247.43
249.61
247.04
238.16
222.90
202.64
179.64
156.48
135.54
118.44
105.71
96.64
89.54
82.34
73.41
62.02
48.54
34.02
19.63
6.21
-5.61
-15.28
-22.08
-25.22
-24.42
-20.38
-15.09
-11.34
-11.74
-17.45
-27.68
-39.93
-51.00
-58.43
-61.27
-60.07
-56.10
-50.57
-44.01
-36.51
-28.14
-19.45
-11.55
-5.69
-2.62
-2.32
-3.94
-6.20
-7.95
-8.49
-7.66
-5.87
-3.81
-2.27
-2.07
-3.80
-7.71
-13.54
-20.45
-27.32
-33.14
-37.42
-40.36
-42.70
-45.35
-48.92
-53.55
-58.96
-64.59
-69.78
-73.83
-76.20
-76.79
-76.38
-76.75
-80.42
-89.49
-104.50
-123.67
-143.36
-159.35
-168.52
-169.90
-164.58
-154.87
-143.09
-130.90
-119.22
-108.67
-99.79
-93.06
-88.68
-86.24
-84.96
-83.98
-82.70
-81.08
-79.60
-78.96
-79.92
-83.02
-88.43
-95.84
-104.33
-112.42
-118.23
-120.01
-116.60
-108.00
-95.58
-81.79
-69.71
-62.01
-60.26
-64.52
-73.55
-85.31
-97.80
-109.51
-119.56
-127.62
-133.65
-137.75
-140.11
-140.93
-140.20
-137.70
-132.96
-125.53
-115.34
-103.04
-89.90
-77.50
-67.14
-59.29
-53.60
-49.10
-44.47
-38.39
-29.69
-17.43
-1.31
18.07
38.97
58.88
75.12
85.89
90.78
90.94
88.40
85.21
82.70
81.21
80.44
79.82
79.04
78.05
76.97
75.83
74.49
72.70
70.28
67.22
63.77
60.29
56.99
53.90
50.80
47.28
43.03
37.96
32.30
26.51
21.06
16.30
12.16
8.44
4.78
0.89
-3.35
-7.85
-12.40
-16.71
-20.39
-23.07
-24.30
-23.69
-21.06
-16.52
-10.52
-3.75
3.03
9.18
14.27
18.20
21.03
22.94
24.11
24.67
24.68
24.27
23.66
23.14
22.94
23.19
23.75
24.33
24.59
24.33
23.58
22.57
21.54
20.58
19.63
18.53
17.12
15.36
13.30
11.03
8.65
6.19
3.69
1.14
-1.46
-4.24
-7.36
-10.98
-15.05
-19.26
-22.98
-25.49
-26.16
-24.63
-20.90
-15.25
-8.26
-0.59
7.10
14.23
20.35
25.23
28.80
31.16
32.44
32.80
32.43
31.58
30.50
29.47
28.65
28.04
27.51
26.90
26.08
25.03
23.85
22.63
21.46
20.35
19.22
17.97
16.47
14.68
12.59
10.30
7.90
5.50
3.14
0.79
-1.58
-4.02
-6.58
-9.39
-12.60
-16.32
-20.57
-24.99
-28.94
-31.57
-32.08
-30.04
-25.51
-19.03
-11.50
-3.83
3.28
9.45
14.59
18.81
22.20
24.83
26.72
27.86
28.31
28.25
27.84
27.23
26.48
25.69
24.92
24.30
23.89
23.75
23.80
23.90
23.88
23.66
23.24
22.63
21.84
20.73
19.20
17.08
14.36
11.15
7.68
4.21
0.85
-2.38
-5.62
-9.08
-12.91
-17.14
-21.63
-26.02
-29.84
-32.59
-33.75
-32.94
-30.01
-25.10
-18.60
-11.13
-3.38
4.03
10.67
16.38
21.15
25.07
28.26
30.72
32.43
33.33
33.41
32.76
31.63
30.29
29.00
27.93
27.10
26.51
26.05
25.60
25.03
24.25
23.25
22.07
20.84
19.58
18.26
16.79
15.07
13.04
10.73
8.23
5.69
3.19
0.79
-1.49
-3.74
-6.11
-8.80
-12.00
-15.73
-19.73
-23.45
-26.14
-27.05
-25.69
-21.97
-16.27
-9.28
-1.91
5.06
11.07
15.83
19.29
21.54
22.67
22.90
22.45
21.59
20.62
19.72
19.03
18.58
18.37
18.37
18.58
18.99
19.55
20.23
20.90
21.46
21.76
21.73
21.32
20.53
19.34
17.69
15.51
12.71
9.36
5.64
1.87
-1.75
-5.11
-8.35
-11.69
-15.30
-19.15
-22.97
-26.27
-28.42
-28.86
-27.21
-23.36
-17.56
-10.36
-2.58
4.93
11.45
16.56
20.19
22.57
24.01
24.78
25.00
24.71
24.04
23.22
22.53
22.18
22.20
22.41
22.54
22.38
21.94
21.37
20.86
20.52
20.27
19.97
19.45
18.57
17.30
15.64
13.62
11.26
8.52
5.40
1.95
-1.74
-5.47
-9.02
-12.25
-15.18
-18.02
-21.09
-24.53
-28.20
-31.58
-33.84
-34.14
-31.95
-27.19
-20.39
-12.46
-4.51
2.56
8.23
12.43
15.48
17.79
19.70
21.35
22.65
23.47
23.75
23.55
23.05
22.42
21.72
20.94
20.01
18.88
17.60
16.34
15.32
14.75
14.62
14.74
14.78
14.37
13.29
11.53
9.26
6.73
4.14
1.59
-0.88
-3.27
-5.59
-7.87
-10.22
-12.80
-15.85
-19.53
-23.81
-28.35
-32.50
-35.41
-36.33
-34.81
-30.89
-25.10
-18.24
-11.14
-4.50
1.25
5.94
9.58
12.24
14.03
15.04
15.41
15.30
14.87
14.32
13.85
13.61
13.71
14.12
14.73
15.35
15.87
16.29
16.72
17.29
18.04
18.80
19.27
19.10
18.12
16.33
13.94
11.27
8.54
5.89
3.42
1.15
-0.95
-2.97
-5.11
-7.65
-10.76
-14.44
-18.32
-21.72
-23.85
-24.03
-21.90
-17.58
-11.59
-4.65
2.50
9.25
15.19
20.09
23.86
26.48
28.06
28.81
28.99
28.82
28.44
27.91
27.13
26.10
24.83
23.45
22.11
20.91
19.95
19.25
18.87
18.75
18.80
18.77
18.32
17.12
15.01
12.03
8.44
4.54
0.53
-3.60
-8.08
-13.31
-19.65
-27.35
-36.37
-46.34
-56.67
-66.61
-75.41
-82.51
-87.57
-90.55
-91.69
-91.42
-90.24
-88.60
-86.89
-85.30
-83.94
-82.85
-81.96
-81.15
-80.14
-78.51
-75.83
-71.74
-66.06
-58.82
-50.18
-40.23
-28.99
-16.40
-2.36
13.09
29.78
47.44
65.65
83.96
101.84
118.69
133.91
146.87
157.01
163.82
166.89
165.95
160.90
151.88
139.19
123.15
104.00
81.82
56.59
28.48
-2.02
-33.88
-65.72
-96.03
-123.36
-146.28
-163.31
-172.95
-173.82
-165.16
-147.15
-121.22
-89.91
-56.38
-23.87
4.90
27.87
43.79
52.05
52.65
46.19
33.74
16.65
-3.72
-26.22
-49.96
-74.31
-98.69
-122.42
-144.57
-163.97
-179.30
-189.41
-193.37
-190.66
-181.19
-165.57
-145.04
-121.40
-96.69
-72.83
-51.34
-33.14
-18.59
-7.60
0.27
5.67
9.58
13.21
17.84
24.62
34.07
45.93
59.13
72.15
83.53
92.34
98.37
101.97
103.80
104.41
104.04
102.72
100.32
96.56
90.89
82.53
70.66
54.72
34.82
11.77
-13.10
-38.35
-62.77
-85.50
-105.99
-123.85
-138.86
-150.92
-160.16
-166.87
-171.53
-174.67
-176.80
-178.18
-178.55
-176.84
-171.29
-159.98
-141.74
-116.97
-87.72
-57.00
-27.65
-1.39
21.53
41.93
60.88
79.13
97.05
114.81
132.86
152.03
173.08
196.08
219.85
242.12
260.27
272.40
278.18
278.87
276.70
273.78
271.25
269.09
266.48
262.58
256.92
249.43
240.05
228.55
214.62
198.32
180.36
162.00
144.58
128.85
114.59
100.75
86.11
69.91
52.44
34.94
19.13
6.53
-2.18
-7.30
-9.88
-11.26
-12.69
-15.00
-18.56
-23.30
-28.85
-34.71
-40.45
-45.97
-51.57
-57.77
-64.84
-72.45
-79.41
-84.09
-85.13
-82.23
-76.35
-69.49
-63.87
-61.08
-61.70
-65.22
-70.19
-74.55
-75.79
-71.43
-59.99
-41.84
-19.73
1.64
17.19
23.27
19.08
6.71
-9.91
-26.79
-41.23
-52.16
-59.64
-63.99
-65.30
-63.50
-58.80
-52.05
-44.63
-37.91
-32.72
-29.02
-26.08
-22.91
-18.97
-14.31
-9.66
-6.05
-4.21
-4.28
-5.75
-7.70
-9.21
-9.69
-9.07
-7.59
-5.73
-3.88
-2.32
-1.12
-0.23
0.48
1.13
1.80
2.53
3.30
3.93
4.22
3.95
3.01
1.47
-0.37
-2.16
-3.50
-4.09
-3.80
-2.60
-0.64
1.88
4.65
7.30
9.50
11.03
11.77
11.83
11.42
10.78
10.04
9.25
8.38
7.37
6.21
4.96
3.75
2.70
1.88
1.35
1.16
1.30
1.68
2.18
2.61
2.75
2.47
1.75
0.70
-0.53
-1.78
-2.95
-3.99
-4.85
-5.49
-5.89
-6.03
-5.92
-5.54
-4.89
-3.92
-2.62
-1.04
0.68
2.27
3.50
4.20
4.32
4.01
3.42
2.73
2.08
1.51
1.04
0.71
0.55
0.56
0.72
0.94
1.06
1.00
0.72
0.29
-0.20
-0.66
-1.08
-1.44
-1.84
-2.27
-2.73
-3.14
-3.43
-3.54
-3.55
-3.63
-3.90
-4.40
-5.00
-5.46
-5.56
-5.24
-4.60
-3.86
-3.20
-2.63
-2.05
-1.32
-0.38
0.68
1.71
2.61
3.35
3.98
4.56
5.07
5.39
5.36
4.87
3.93
2.64
1.20
-0.23
-1.54
-2.72
-3.77
-4.69
-5.47
-6.07
-6.52
-6.94
-7.50
-8.38
-9.65
-11.15
-12.56
-13.55
-13.85
-13.46
-12.53
-11.33
-10.05
-8.70
-7.24
-5.55
-3.68
-1.78
-0.05
1.38
2.49
3.35
4.04
4.60
4.97
5.08
4.90
4.43
3.78
3.01
2.21
1.43
0.63
-0.18
-0.98
-1.68
-2.22
-2.60
-2.92
-3.35
-4.00
-4.86
-5.75
-6.43
-6.72
-6.62
-6.38
-6.24
-6.39
-6.75
-7.10
-7.18
-6.80
-5.95
-4.81
-3.59
-2.48
-1.56
-0.80
-0.11
0.60
1.35
2.10
2.75
3.19
3.38
3.34
3.17
2.93
2.66
2.32
1.88
1.34
0.74
0.17
-0.30
-0.63
-0.87
-1.07
-1.28
-1.56
-1.92
-2.39
-2.95
-3.59
-4.22
-4.82
-5.36
-5.88
-6.40
-6.98
-7.53
-7.98
-8.26
-8.30
-8.04
-7.48
-6.67
-5.66
-4.57
-3.45
-2.40
-1.41
-0.52
0.25
0.87
1.28
1.56
1.77
2.04
2.41
2.85
3.25
3.49
3.46
3.18
2.66
1.94
0.98
-0.22
-1.57
-2.87
-3.89
-4.43
-4.47
-4.17
-3.77
-3.53
-3.55
-3.80
-4.14
-4.42
-4.60
-4.75
-5.00
-5.43
-6.00
-6.58
-6.99
-7.04
-6.73
-6.17
-5.50
-4.81
-4.05
-3.08
-1.85
-0.40
1.09
2.39
3.35
3.92
4.20
4.29
4.22
3.98
3.56
3.03
2.52
2.14
1.90
1.71
1.46
1.06
0.57
0.12
-0.15
-0.20
-0.11
-0.02
-0.03
-0.13
-0.21
-0.17
-0.02
0.08
-0.12
-0.78
-1.97
-3.60
-5.36
-6.96
-8.13
-8.74
-8.83
-8.48
-7.79
-6.81
-5.54
-3.96
-2.12
-0.14
1.78
3.41
4.60
5.29
5.53
5.41
5.02
4.42
3.62
2.65
1.62
0.63
-0.17
-0.74
-1.12
-1.43
-1.81
-2.31
-2.82
-3.19
-3.29
-3.12
-2.83
-2.61
-2.55
-2.63
-2.64
-2.45
-2.01
-1.44
-1.00
-0.92
-1.30
-2.08
-3.06
-3.97
-4.55
-4.66
-4.27
-3.46
-2.42
-1.30
-0.26
0.63
1.32
1.77
1.95
1.86
1.57
1.23
0.96
0.93
1.14
1.54
2.00
2.37
2.57
2.55
2.34
2.01
1.67
1.37
1.14
0.94
0.72
0.37
-0.16
-0.90
-1.85
-2.98
-4.23
-5.52
-6.71
-7.65
-8.21
-8.30
-7.89
-7.06
-5.94
-4.75
-3.70
-2.93
-2.51
-2.33
-2.17
-1.84
-1.17
-0.19
0.92
1.92
2.61
2.92
2.92
2.74
2.45
2.08
1.66
1.18
0.79
0.63
0.78
1.20
1.74
2.10
2.10
1.70
1.07
0.42
-0.06
-0.34
-0.52
-0.78
-1.26
-2.00
-2.97
-4.07
-5.22
-6.36
-7.47
-8.54
-9.50
-10.24
-10.56
-10.39
-9.70
-8.68
-7.57
-6.58
-5.78
-5.06
-4.23
-3.15
-1.83
-0.48
0.70
1.59
2.23
2.77
3.31
3.85
4.31
4.59
4.78
5.04
5.54
6.32
7.20
7.81
7.86
7.19
5.96
4.50
3.14
2.07
1.30
0.69
0.09
-0.55
-1.19
-1.68
-1.89
-1.79
-1.48
-1.23
-1.23
-1.67
-2.54
-3.67
-4.78
-5.54
-5.80
-5.53
-4.86
-4.00
-3.12
-2.37
-1.76
-1.31
-1.02
-0.84
-0.73
-0.64
-0.53
-0.42
-0.38
-0.47
-0.74
-1.15
-1.53
-1.62
-1.26
-0.44
0.62
1.59
2.17
2.28
2.01
1.58
1.19
0.90
0.63
0.27
-0.26
-0.86
-1.42
-1.84
-2.09
-2.29
-2.53
-2.90
-3.43
-4.04
-4.60
-5.05
-5.31
-5.38
-5.29
-5.05
-4.60
-3.86
-2.75
-1.34
0.18
1.52
2.43
2.80
2.76
2.54
2.42
2.48
2.65
2.73
2.56
2.08
1.44
0.81
0.37
0.17
0.15
0.17
0.14
0.10
0.12
0.36
0.85
1.57
2.32
2.86
2.96
2.56
1.73
0.69
-0.24
-0.88
-1.17
-1.24
-1.38
-1.84
-2.73
-3.97
-5.29
-6.39
-7.05
-7.22
-6.99
-6.54
-5.97
-5.36
-4.66
-3.88
-3.07
-2.36
-1.88
-1.69
-1.66
-1.61
-1.39
-0.94
-0.35
0.24
0.75
1.21
1.71
2.29
2.87
3.31
3.48
3.41
3.28
3.26
3.39
3.41
3.03
2.04
0.48
-1.31
-2.88
-3.94
-4.51
-4.82
-5.20
-5.84
-6.69
-7.55
-8.15
-8.36
-8.17
-7.66
-6.95
-6.13
-5.25
-4.36
-3.49
-2.61
-1.72
-0.83
-0.00
0.67
1.11
1.34
1.47
1.64
1.94
2.32
2.67
2.85
2.82
2.59
2.26
1.91
1.57
1.19
0.79
0.42
0.14
0.04
0.11
0.24
0.31
0.25
0.02
-0.33
-0.65
-0.82
-0.76
-0.54
-0.32
-0.25
-0.45
-0.88
-1.38
-1.78
-2.02
-2.10
-2.12
-2.13
-2.05
-1.79
-1.26
-0.46
0.49
1.43
2.24
2.85
3.24
3.42
3.38
3.08
2.57
1.89
1.15
0.47
-0.06
-0.37
-0.45
-0.38
-0.24
-0.16
-0.24
-0.50
-0.93
-1.46
-2.03
-2.56
-3.02
-3.39
-3.65
-3.83
-3.91
-3.96
-4.02
-4.12
-4.26
-4.43
-4.51
-4.44
-4.13
-3.58
-2.84
-2.06
-1.37
-0.86
-0.57
-0.40
-0.23
0.07
0.54
1.16
1.86
2.57
3.27
3.92
4.55
5.16
5.72
6.20
6.50
6.54
6.22
5.53
4.50
3.23
1.86
0.51
-0.74
-1.82
-2.70
-3.38
-3.92
-4.36
-4.74
-5.08
-5.31
-5.39
-5.22
-4.83
-4.30
-3.75
-3.30
-3.04
-3.01
-3.22
-3.65
-4.22
-4.80
-5.21
-5.29
-4.96
-4.22
-3.17
-1.96
-0.74
0.41
1.46
2.37
3.18
3.90
4.55
5.13
5.58
5.89
6.00
5.96
5.80
5.56
5.25
4.81
4.18
3.32
2.25
1.04
-0.23
-1.46
-2.61
-3.64
-4.50
-5.16
-5.61
-5.87
-6.01
-6.08
-6.08
-6.00
-5.79
-5.40
-4.82
-4.07
-3.20
-2.30
-1.40
-0.56
0.25
1.11
2.05
3.12
4.25
5.29
6.11
6.57
6.67
6.47
6.05
5.49
4.84
4.19
3.63
3.22
2.95
2.72
2.41
1.90
1.24
0.49
-0.21
-0.82
-1.40
-2.09
-2.96
-3.97
-4.96
-5.76
-6.25
-6.46
-6.55
-6.69
-6.97
-7.35
-7.67
-7.75
-7.41
-6.57
-5.30
-3.73
-2.09
-0.53
0.85
2.05
3.08
4.00
4.79
5.45
5.95
6.23
6.27
6.10
5.73
5.22
4.66
4.06
3.46
2.86
2.31
1.85
1.55
1.43
1.43
1.42
1.25
0.86
0.30
-0.33
-0.93
-1.48
-2.02
-2.62
-3.29
-3.96
-4.51
-4.79
-4.72
-4.33
-3.74
-3.16
-2.77
-2.69
-2.90
-3.24
-3.47
-3.39
-2.86
-1.96
-0.81
0.36
1.39
2.19
2.75
3.14
3.43
3.70
3.95
4.08
3.95
3.46
2.61
1.62
0.79
0.41
0.62
1.30
2.04
2.42
2.07
1.03
-0.38
-1.58
-2.14
-1.87
-0.95
0.22
1.18
1.68
1.80
1.84
2.28
3.47
5.43
7.69
9.47
9.80
7.91
3.56
-2.84
-10.25
-17.24
-22.08
-23.24
-19.67
-11.26
0.91
14.65
27.40
37.17
43.37
46.99
49.92
53.98
59.83
66.80
73.38
78.14
80.57
81.15
80.83
80.25
79.19
76.21
69.02
55.27
33.68
5.04
-27.35
-58.31
-82.38
-95.62
-96.95
-88.06
-72.23
-52.72
-31.98
-11.47
7.70
24.25
36.70
43.68
44.53
39.49
29.61
15.70
-1.93
-23.36
-48.02
-74.32
-99.96
-122.40
-139.75
-150.79
-155.85
-156.23
-153.48
-148.15
-139.62
-127.17
-110.62
-90.90
-68.96
-46.45
-24.82
-5.09
12.87
29.73
45.14
57.82
65.69
67.85
63.28
51.24
31.02
3.15
-25.96
-49.14
-59.54
-61.92
-60.90
-62.33
-68.47
-82.39
-104.78
-132.94
-162.07
-186.51
-201.68
-203.97
-192.79
-169.93
-139.03
-103.86
-67.81
-34.29
-6.18
14.56
28.21
35.89
39.37
40.26
40.38
41.45
44.39
49.37
55.75
62.92
69.84
75.27
77.90
76.98
72.46
64.84
55.29
45.42
37.23
32.08
30.25
30.57
31.07
29.78
25.34
17.59
7.36
-3.86
-14.67
-24.18
-32.08
-38.28
-42.65
-44.89
-44.56
-41.36
-35.29
-26.91
-17.09
-6.95
2.49
10.48
16.59
20.72
23.06
23.96
23.80
22.96
21.80
20.52
19.17
17.58
15.48
12.58
8.67
3.84
-1.59
-7.19
-12.55
-17.42
-21.75
-25.55
-28.91
-31.91
-34.64
-37.16
-39.46
-41.38
-42.51
-42.34
-40.41
-36.59
-31.15
-24.66
-17.63
-10.18
-2.02
7.40
18.52
31.32
45.27
59.42
72.73
84.35
93.81
101.15
106.71
111.07
114.82
118.45
122.29
126.49
131.05
135.90
140.89
145.74
149.93
152.76
153.46
151.34
146.13
138.04
127.69
115.92
103.59
91.34
79.53
68.27
57.49
47.02
36.61
25.97
14.79
2.86
-9.88
-23.24
-36.73
-49.58
-60.83
-69.50
-74.80
-76.21
-73.65
-67.46
-58.31
-47.13
-34.94
-22.68
-11.05
-0.36
9.47
18.84
28.15
37.53
46.64
54.66
60.60
63.65
63.55
60.72
56.11
50.98
46.53
43.59
42.45
42.84
43.95
44.70
44.09
41.43
36.73
30.64
24.28
18.81
14.99
12.81
11.52
9.91
7.00
2.66
-2.08
-5.30
-4.89
0.55
11.08
25.33
40.81
54.45
63.35
65.38
59.67
47.05
30.05
12.45
-1.79
-9.91
-11.47
-8.65
-5.45
-6.11
-13.37
-27.54
-46.66
-67.48
-86.80
-102.56
-114.16
-122.22
-128.20
-134.10
-142.17
-154.68
-173.26
-198.23
-228.05
-259.68
-289.77
-315.92
-337.19
-353.54
-364.51
-368.06
-360.85
-339.74
-303.60
-254.21
-195.93
-134.34
-75.02
-22.69
19.15
48.66
66.43
75.93
83.16
94.89
116.22
148.44
188.72
231.59
271.21
303.32
325.92
338.74
342.31
337.38
324.76
305.63
281.59
254.40
225.86
197.71
171.53
148.75
130.58
117.77
110.40
107.73
108.17
109.47
109.12
104.90
95.65
81.79
65.24
48.99
36.21
29.14
28.70
34.28
44.25
56.53
69.15
80.45
88.99
93.48
92.68
85.66
72.07
52.40
28.17
1.89
-23.24
-43.91
-57.40
-62.28
-58.88
-49.30
-36.91
-25.40
-17.91
-16.28
-20.79
-30.36
-43.08
-56.68
-69.15
-79.34
-87.26
-94.22
-102.29
-113.43
-128.65
-147.46
-168.11
-188.15
-205.07
-216.65
-221.21
-217.77
-206.41
-188.58
-166.99
-144.67
-123.84
-104.95
-86.81
-67.77
-47.27
-26.66
-8.81
3.32
8.23
6.56
0.60
-6.95
-14.16
-20.28
-25.28
-29.01
-30.67
-28.97
-22.91
-12.75
-0.31
11.28
18.66
19.33
12.52
-0.78
-18.40
-37.85
-57.11
-74.94
-90.69
-103.89
-113.91
-119.84
-120.78
-116.17
-106.30
-92.37
-76.33
-60.29
-45.97
-34.02
-23.94
-14.45
-4.02
8.46
23.29
39.91
57.21
73.87
88.85
101.42
111.33
118.62
123.52
126.28
127.12
126.21
123.66
119.75
114.87
109.50
104.09
98.77
93.29
87.09
79.53
70.21
59.23
47.13
34.71
22.93
12.63
4.59
-0.62
-2.65
-1.54
2.26
7.90
14.29
20.44
25.48
28.90
30.54
30.55
29.41
27.71
25.99
24.47
23.02
21.18
18.52
14.93
10.82
6.95
4.12
2.73
2.67
3.46
4.51
5.44
6.17
6.77
7.29
7.52
7.14
5.84
3.47
0.07
-4.20
-9.14
-14.63
-20.41
-25.99
-30.50
-32.87
-32.14
-27.91
-20.53
-11.08
-1.01
8.36
16.19
22.22
26.55
29.45
31.12
31.58
30.88
29.14
26.59
23.61
20.51
17.54
14.77
12.17
9.65
7.06
4.30
1.26
-2.07
-5.55
-8.83
-11.44
-12.93
-13.04
-11.92
-10.23
-9.04
-9.77
-13.75
-21.77
-33.61
-47.76
-61.70
-72.49
-77.68
-76.06
-67.92
-54.86
-39.15
-23.01
-8.14
4.43
14.31
21.45
26.00
28.22
28.42
27.03
24.57
21.63
18.79
16.51
15.01
14.17
13.64
13.00
11.93
10.35
8.41
6.32
4.18
1.89
-0.79
-4.10
-8.13
-12.79
-17.88
-23.23
-28.76
-34.36
-39.77
-44.39
-47.35
-47.73
-44.90
-38.76
-29.81
-19.04
-7.61
3.36
12.97
20.59
25.83
28.57
28.95
27.38
24.52
21.14
18.01
15.72
14.58
14.54
15.30
16.32
16.96
16.67
15.10
12.18
8.07
3.11
-2.28
-7.69
-12.72
-17.08
-20.62
-23.34
-25.40
-27.03
-28.36
-29.28
-29.37
-27.96
-24.40
-18.30
-9.78
0.50
11.50
21.99
30.85
37.33
41.17
42.59
42.18
40.61
38.48
36.18
33.82
31.33
28.57
25.47
22.01
18.27
14.40
10.62
7.16
4.25
2.03
0.54
-0.25
-0.45
-0.28
-0.11
-0.49
-2.02
-5.24
-10.36
-17.17
-24.99
-32.94
-40.02
-45.36
-48.27
-48.21
-44.91
-38.47
-29.46
-18.91
-8.15
1.64
9.66
15.64
19.84
22.74
24.76
26.20
27.19
27.80
28.15
28.46
28.91
29.58
30.35
30.99
31.18
30.68
29.42
27.45
24.88
21.84
18.45
14.76
10.82
6.62
2.05
-3.08
-8.90
-15.47
-22.68
-30.17
-37.47
-43.89
-48.70
-51.16
-50.72
-47.09
-40.47
-31.47
-21.01
-10.18
0.08
9.02
16.13
21.16
24.03
24.88
23.97
21.74
18.65
15.13
11.43
7.71
4.06
0.63
-2.38
-4.82
-6.61
-7.90
-8.86
-9.67
-10.31
-10.60
-10.29
-9.26
-7.73
-6.15
-5.15
-5.26
-6.81
-9.75
-13.65
-17.82
-21.33
-23.27
-22.88
-19.84
-14.36
-7.10
0.97
8.83
15.67
20.97
24.53
26.31
26.33
24.63
21.35
16.76
11.31
5.52
-0.08
-5.08
-9.32
-12.85
-15.81
-18.33
-20.49
-22.25
-23.51
-24.20
-24.33
-24.05
-23.59
-23.18
-23.00
-23.12
-23.52
-24.11
-24.85
-25.71
-26.60
-27.32
-27.43
-26.34
-23.44
-18.37
-11.16
-2.34
7.24
16.57
24.81
31.40
36.14
39.15
40.76
41.33
41.14
40.40
39.17
37.47
35.28
32.63
29.64
26.52
23.50
20.71
18.16
15.66
12.93
9.72
5.90
1.52
-3.23
-8.14
-13.11
-18.11
-23.20
-28.34
-33.39
-38.17
-42.49
-46.34
-49.69
-52.40
-54.07
-54.01
-51.46
-45.93
-37.49
-26.82
-15.04
-3.32
7.42
16.73
24.53
30.99
36.31
40.60
43.93
46.34
47.93
48.83
49.13
48.77
47.57
45.32
41.93
37.62
32.91
28.48
24.92
22.46
20.88
19.58
17.96
15.60
12.51
8.97
5.39
2.01
-1.14
-4.30
-7.76
-11.82
-16.66
-22.30
-28.64
-35.34
-41.80
-47.15
-50.43
-50.91
-48.29
-43.02
-36.07
-28.62
-21.74
-16.09
-11.85
-8.85
-6.89
-5.70
-5.17
-5.17
-5.51
-5.95
-6.17
-5.92
-5.05
-3.61
-1.82
0.05
1.74
3.14
4.23
5.09
5.73
6.11
6.10
5.62
4.66
3.37
1.94
0.46
-1.11
-3.02
-5.64
-9.25
-13.90
-19.30
-24.81
-29.49
-32.36
-32.55
-29.63
-23.62
-15.07
-4.88
5.92
16.31
25.57
33.24
39.19
43.44
46.09
47.17
46.71
44.76
41.52
37.41
32.94
28.63
24.75
21.29
17.95
14.39
10.41
6.07
1.69
-2.35
-5.75
-8.42
-10.53
-12.32
-14.09
-15.95
-17.91
-19.93
-21.90
-23.77
-25.48
-27.06
-28.51
-29.92
-31.29
-32.53
-33.34
-33.16
-31.38
-27.49
-21.44
-13.63
-4.96
3.59
11.28
17.83
23.38
28.19
32.43
36.01
38.63
40.01
40.09
39.04
37.27
35.22
33.11
31.09
29.10
27.06
24.93
22.73
20.51
18.32
16.16
13.88
11.30
8.23
4.50
0.06
-5.09
-10.83
-16.96
-23.27
-29.56
-35.64
-41.44
-46.97
-52.24
-57.23
-61.69
-65.06
-66.46
-65.12
-60.49
-52.76
-42.70
-31.53
-20.38
-10.05
-0.79
7.46
14.80
21.09
25.97
29.05
30.24
29.78
28.28
26.33
24.34
22.46
20.66
18.94
17.41
16.36
16.00
16.35
17.13
17.85
17.97
17.21
15.58
13.34
10.93
8.71
6.83
5.21
3.54
1.34
-1.88
-6.43
-12.30
-18.96
-25.51
-30.83
-33.96
-34.35
-32.05
-27.63
-21.92
-15.78
-9.91
-4.78
-0.61
2.58
4.90
6.56
7.74
8.61
9.26
9.80
10.25
10.70
11.16
11.63
12.05
12.36
12.60
12.77
12.91
12.99
12.89
12.41
11.37
9.73
7.54
4.99
2.27
-0.45
-3.11
-5.70
-8.23
-10.79
-13.49
-16.52
-20.02
-24.01
-28.15
-31.74
-33.87
-33.59
-30.41
-24.45
-16.55
-7.93
0.11
6.59
11.07
13.53
14.19
13.35
11.24
8.02
3.93
-0.65
-5.20
-9.16
-12.13
-13.93
-14.62
-14.41
-13.53
-12.19
-10.51
-8.61
-6.69
-4.97
-3.65
-2.88
-2.69
-3.00
-3.80
-5.01
-6.58
-8.43
-10.48
-12.73
-15.24
-18.04
-20.98
-23.60
-25.09
-24.59
-21.46
-15.61
-7.64
1.42
10.42
18.49
25.11
30.17
33.64
35.57
36.00
35.08
33.11
30.56
27.87
25.29
22.87
20.44
17.78
14.75
11.36
7.80
4.24
0.83
-2.45
-5.79
-9.41
-13.54
-18.18
-23.11
-27.93
-32.22
-35.68
-38.25
-40.09
-41.48
-42.81
-44.34
-46.17
-48.11
-49.59
-49.73
-47.49
-42.05
-33.15
-21.31
-7.68
6.23
19.08
30.04
38.82
45.54
50.40
53.53
54.93
54.66
53.00
50.41
47.52
44.86
42.73
41.15
40.06
39.24
38.55
37.87
37.06
35.98
34.38
32.12
29.07
25.33
21.08
16.66
12.39
8.40
4.56
0.43
-4.65
-11.28
-19.71
-29.64
-40.18
-50.02
-57.80
-62.43
-63.39
-60.75
-55.13
-47.52
-39.00
-30.54
-22.86
-16.38
-11.16
-7.11
-3.95
-1.39
0.90
3.15
5.50
7.98
10.50
12.94
15.19
17.22
19.06
20.70
22.06
22.95
23.09
22.20
20.17
17.11
13.32
9.28
5.44
2.14
-0.50
-2.74
-5.11
-8.30
-12.85
-18.84
-25.72
-32.36
-37.37
-39.59
-38.41
-34.09
-27.54
-20.01
-12.74
-6.64
-2.12
0.77
2.23
2.56
1.93
0.43
-1.93
-5.05
-8.66
-12.29
-15.39
-17.46
-18.20
-17.56
-15.71
-12.92
-9.45
-5.62
-1.75
1.83
4.82
7.08
8.62
9.57
10.03
9.98
9.22
7.55
4.84
1.17
-3.20
-7.76
-11.89
-14.87
-16.04
-14.84
-11.08
-4.99
2.75
11.16
19.19
26.00
31.16
34.62
36.61
37.42
37.26
36.29
34.61
32.34
29.65
26.66
23.44
20.00
16.24
12.17
7.90
3.69
-0.18
-3.57
-6.51
-9.25
-12.08
-15.16
-18.42
-21.55
-24.18
-26.00
-26.97
-27.36
-27.68
-28.51
-30.17
-32.54
-34.91
-36.11
-34.87
-30.12
-21.47
-9.35
5.08
20.20
34.36
46.27
55.20
61.07
64.23
65.18
64.38
62.15
58.63
54.03
48.66
42.95
37.35
32.18
27.49
23.19
19.06
15.00
11.06
7.37
4.00
0.97
-1.87
-4.73
-7.74
-10.94
-14.31
-17.84
-21.58
-25.66
-30.24
-35.43
-41.27
-47.62
-54.18
-60.46
-65.74
-69.21
-70.14
-68.01
-62.77
-54.87
-45.12
-34.54
-24.04
-14.31
-5.69
1.72
7.97
13.14
17.26
20.36
22.52
23.93
24.96
26.06
27.61
29.77
32.43
35.21
37.64
39.32
39.99
39.52
37.89
35.13
31.32
26.58
21.15
15.38
9.60
4.06
-1.17
-6.24
-11.39
-16.86
-22.63
-28.35
-33.29
-36.56
-37.32
-35.10
-29.97
-22.54
-13.78
-4.79
3.48
10.36
15.51
18.87
20.59
20.88
19.98
18.10
15.48
12.33
8.90
5.41
2.03
-1.06
-3.75
-5.84
-7.08
-7.24
-6.18
-3.95
-0.86
2.67
6.15
9.18
11.62
13.57
15.22
16.66
17.81
18.33
17.74
15.63
11.85
6.71
0.94
-4.43
-8.20
-9.40
-7.47
-2.55
4.55
12.58
20.12
26.12
30.08
32.15
32.87
32.79
32.23
31.21
29.58
27.20
24.13
20.55
16.68
12.65
8.45
4.02
-0.57
-5.11
-9.26
-12.74
-15.38
-17.28
-18.74
-20.12
-21.72
-23.72
-26.10
-28.64
-31.03
-32.85
-33.85
-33.98
-33.52
-32.96
-32.83
-33.36
-34.29
-34.80
-33.78
-30.22
-23.53
-13.86
-2.04
10.65
22.90
33.64
42.28
48.64
52.76
54.77
54.76
52.84
49.22
44.25
38.38
32.09
25.72
19.45
13.37
7.57
2.17
-2.66
-6.81
-10.32
-13.40
-16.38
-19.60
-23.22
-27.15
-31.13
-34.84
-38.01
-40.59
-42.72
-44.77
-47.21
-50.27
-53.90
-57.55
-60.35
-61.32
-59.74
-55.36
-48.50
-39.85
-30.25
-20.45
-10.99
-2.29
5.34
11.64
16.52
20.03
22.38
23.82
24.50
24.46
23.73
22.40
20.74
19.12
17.93
17.39
17.49
18.00
18.58
18.85
18.51
17.38
15.41
12.76
9.65
6.25
2.60
-1.44
-6.08
-11.47
-17.62
-24.17
-30.45
-35.61
-38.74
-39.15
-36.49
-30.90
-22.98
-13.68
-4.10
4.81
12.35
18.17
22.26
24.79
26.02
26.29
25.84
24.89
23.52
21.68
19.32
16.36
12.94
9.35
5.99
3.22
1.25
0.05
-0.65
-1.13
-1.72
-2.67
-4.01
-5.69
-7.53
-9.36
-11.03
-12.54
-14.02
-15.71
-17.79
-20.25
-22.79
-24.92
-25.90
-24.99
-21.65
-15.72
-7.50
2.22
12.34
21.68
29.31
34.72
37.84
38.98
38.60
37.14
34.88
32.03
28.65
24.85
20.74
16.47
12.20
8.15
4.47
1.30
-1.32
-3.48
-5.36
-7.19
-9.16
-11.35
-13.75
-16.28
-18.99
-21.89
-25.03
-28.34
-31.68
-34.95
-38.12
-41.33
-44.70
-48.10
-51.01
-52.55
-51.81
-48.15
-41.56
-32.56
-22.08
-11.19
-0.79
8.46
16.19
22.25
26.65
29.56
31.29
32.25
32.84
33.33
33.91
34.54
35.06
35.29
35.04
34.26
33.02
31.46
29.71
27.81
25.64
23.01
19.74
15.76
11.17
6.21
1.12
-3.88
-8.70
-13.37
-18.06
-22.94
-28.00
-33.09
-37.67
-41.00
-42.25
-40.81
-36.54
-29.83
-21.56
-12.79
-4.45
2.85
8.84
13.47
16.77
18.70
19.22
18.46
16.64
14.20
11.60
9.23
7.31
5.98
5.26
5.20
5.81
7.00
8.55
10.14
11.43
12.09
12.04
11.35
10.25
9.06
8.03
7.28
6.73
6.09
4.90
2.66
-0.97
-6.02
-12.06
-18.27
-23.54
-26.72
-26.95
-23.90
-17.85
-9.63
-0.37
8.74
16.80
23.28
28.01
31.12
32.84
33.40
32.97
31.63
29.48
26.68
23.47
20.11
16.87
13.82
10.93
8.11
5.27
2.46
-0.18
-2.52
-4.51
-6.33
-8.29
-10.68
-13.67
-17.17
-20.87
-24.42
-27.57
-30.30
-32.78
-35.37
-38.36
-41.74
-45.05
-47.33
-47.47
-44.48
-37.97
-28.17
-16.04
-2.83
10.18
21.95
31.86
39.59
45.05
48.27
49.44
48.82
46.77
43.69
39.97
35.97
31.96
28.14
24.56
21.27
18.26
15.52
13.04
10.79
8.63
6.35
3.72
0.64
-2.86
-6.58
-10.23
-13.64
-16.79
-19.83
-23.04
-26.67
-30.84
-35.51
-40.36
-44.73
-47.76
-48.53
-46.40
-41.24
-33.60
-24.58
-15.41
-7.21
-0.57
4.41
8.00
10.58
12.43
13.70
14.43
14.71
14.71
14.74
15.05
15.85
17.14
18.78
20.52
22.12
23.37
24.19
24.50
24.23
23.30
21.67
19.33
16.38
12.93
9.09
4.90
0.32
-4.71
-10.25
-16.22
-22.40
-28.32
-33.34
-36.67
-37.55
-35.49
-30.49
-23.05
-14.15
-4.98
3.36
10.08
14.86
17.82
19.31
19.73
19.42
18.46
16.87
14.68
12.00
9.09
6.29
3.80
1.62
-0.42
-2.62
-5.14
-7.95
-10.81
-13.40
-15.42
-16.72
-17.35
-17.44
-17.22
-16.93
-16.73
-16.84
-17.44
-18.65
-20.40
-22.24
-23.40
-22.86
-19.74
-13.61
-4.79
5.75
16.69
26.73
34.97
40.99
44.78
46.51
46.46
44.91
42.22
38.79
35.02
31.25
27.64
24.21
20.93
17.79
14.80
12.01
9.39
6.89
4.39
1.80
-0.91
-3.77
-6.81
-10.10
-13.73
-17.71
-21.95
-26.27
-30.53
-34.69
-38.83
-43.06
-47.28
-51.03
-53.50
-53.73
-51.02
-45.11
-36.49
-26.15
-15.35
-5.16
3.76
11.17
17.17
21.97
25.75
28.58
30.51
31.62
32.14
32.36
32.52
32.72
32.91
32.88
32.44
31.55
30.37
29.20
28.24
27.45
26.50
24.90
22.30
18.59
14.05
9.13
4.22
-0.50
-5.11
-9.93
-15.25
-21.15
-27.35
-33.17
-37.67
-39.85
-39.00
-34.93
-28.09
-19.48
-10.31
-1.62
5.84
11.73
16.02
18.76
19.99
19.84
18.46
16.21
13.52
10.77
8.14
5.63
3.14
0.58
-1.98
-4.37
-6.32
-7.68
-8.43
-8.70
-8.76
-8.85
-9.16
-9.66
-10.17
-10.46
-10.35
-9.86
-9.24
-8.79
-8.91
-9.86
-11.74
-14.44
-17.58
-20.56
-22.62
-22.95
-20.97
-16.57
-10.17
-2.71
4.69
11.03
15.67
18.57
20.02
20.45
20.18
19.37
17.98
15.97
13.47
10.80
8.36
6.44
5.13
4.34
3.85
3.43
2.90
2.11
0.94
-0.77
-3.11
-6.06
-9.46
-13.01
-16.38
-19.25
-21.45
-22.99
-24.03
-24.90
-26.03
-27.78
-30.26
-33.17
-35.71
-36.78
-35.39
-30.98
-23.73
-14.48
-4.47
5.06
13.30
19.89
24.89
28.52
30.92
32.15
32.21
31.20
29.35
27.12
24.91
23.05
21.66
20.58
19.56
18.36
16.94
15.38
13.87
12.50
11.20
9.72
7.81
5.30
2.20
-1.26
-4.78
-8.12
-11.16
-13.90
-16.40
-18.75
-21.06
-23.49
-26.19
-29.25
-32.53
-35.57
-37.58
-37.65
-35.07
-29.48
-21.12
-10.79
0.30
10.86
19.81
26.56
31.19
34.26
36.68
39.32
42.64
46.59
50.59
53.82
55.68
56.11
55.68
55.48
56.67
60.03
65.53
72.43
79.37
84.97
88.39
89.61
89.63
90.25
93.72
102.10
116.33
135.46
156.32
174.28
184.48
183.72
171.63
150.80
125.50
99.48
74.25
48.34
18.25
-19.48
-65.89
-118.23
-170.15
-213.41
-240.55
-246.98
-232.17
-199.44
-155.26
-108.09
-67.20
-41.06
-35.19
-50.39
-82.18
-122.08
-160.75
-191.19
-210.69
-220.54
-223.98
-223.70
-220.68
-214.69
-205.55
-194.09
-181.77
-169.65
-157.33
-143.14
-125.29
-103.26
-78.42
-53.64
-31.95
-15.13
-3.06
6.13
14.86
24.90
36.48
48.33
58.39
64.88
67.03
65.36
61.39
57.01
53.97
53.51
56.04
61.26
68.10
75.01
80.28
82.46
80.74
75.20
66.75
56.74
46.75
38.11
31.83
28.37
27.61
28.83
30.86
32.33
32.03
29.33
24.32
17.65
10.20
2.64
-4.81
-12.35
-20.33
-29.09
-38.69
-49.01
-59.84
-70.97
-82.16
-93.09
-103.14
-111.36
-116.65
-117.93
-114.53
-106.27
-93.57
-77.35
-58.92
-39.79
-21.46
-5.20
8.37
19.44
29.20
39.43
51.86
67.21
84.62
101.62
114.88
121.55
120.26
111.65
97.89
81.68
65.25
49.97
36.51
25.42
17.58
13.99
15.28
21.03
29.71
39.07
46.92
51.98
54.09
54.08
53.03
51.74
50.35
48.45
45.50
41.23
35.92
30.31
25.25
21.29
18.46
16.23
13.77
10.38
5.75
0.20
-5.44
-10.04
-12.59
-12.42
-9.44
-4.09
2.85
10.57
18.56
26.66
35.07
44.18
54.23
65.27
76.96
88.63
99.29
107.75
112.76
113.32
109.12
100.82
90.01
78.96
69.82
64.05
62.00
63.14
66.36
70.49
74.50
77.37
77.98
75.15
68.02
56.60
41.93
25.92
10.48
-3.17
-15.01
-26.06
-37.68
-50.85
-65.68
-81.32
-96.28
-108.77
-117.11
-119.98
-116.61
-107.04
-92.16
-73.70
-53.94
-35.18
-19.25
-7.12
1.15
6.24
9.14
10.70
11.43
11.33
10.05
7.03
1.85
-5.58
-14.86
-25.07
-35.06
-43.62
-49.88
-53.45
-54.48
-53.60
-51.64
-49.36
-47.31
-45.73
-44.61
-43.87
-43.47
-43.60
-44.61
-47.02
-51.24
-57.51
-65.71
-75.36
-85.69
-95.81
-104.84
-112.06
-117.07
-119.70
-120.03
-118.34
-115.10
-110.91
-106.55
-102.80
-100.26
-99.20
-99.44
-100.54
-102.00
-103.53
-105.12
-107.03
-109.49
-112.63
-116.32
-120.22
-123.78
-126.23
-126.57
-123.66
-116.51
-104.63
-88.23
-68.23
-46.01
-23.00
-0.40
20.96
40.43
57.43
71.37
81.76
88.43
91.70
92.22
90.74
87.89
84.08
79.58
74.88
70.66
67.80
66.95
68.28
71.22
74.75
77.71
79.19
78.75
76.36
72.10
66.12
58.63
50.17
41.88
35.45
32.75
35.18
43.04
55.39
70.29
85.48
99.01
109.70
117.15
121.48
122.93
121.70
117.94
111.87
104.04
95.23
86.40
78.29
71.22
65.00
59.08
52.87
46.02
38.64
31.08
23.79
16.95
10.53
4.31
-1.74
-7.35
-12.01
-15.16
-16.64
-16.96
-17.28
-19.03
-23.33
-30.37
-39.22
-48.17
-55.28
-59.13
-59.19
-55.66
-49.12
-40.10
-28.97
-16.12
-2.34
11.20
23.06
32.17
38.19
41.65
43.47
44.46
44.81
44.13
41.77
37.37
31.17
23.99
16.94
10.95
6.66
4.47
4.71
7.81
14.21
23.99
36.66
51.06
65.56
78.58
88.91
95.97
99.78
100.65
99.04
95.28
89.57
82.06
72.86
62.16
50.15
37.07
23.10
8.51
-6.42
-21.27
-35.63
-49.08
-61.30
-72.14
-81.47
-89.23
-95.34
-99.85
-102.96
-105.09
-106.75
-108.43
-110.37
-112.45
-114.23
-115.05
-114.23
-111.26
-105.87
-98.12
-88.43
-77.45
-66.01
-54.87
-44.59
-35.42
-27.33
-20.08
-13.44
-7.28
-1.67
3.21
7.16
10.08
12.11
13.56
14.82
16.21
17.83
19.55
21.13
22.30
22.93
23.00
22.61
21.89
20.90
19.58
17.72
15.03
11.19
5.91
-0.79
-8.61
-16.79
-24.30
-30.05
-33.14
-33.10
-30.00
-24.36
-17.00
-8.89
-0.90
6.21
11.96
16.10
18.66
19.87
20.00
19.33
18.06
16.36
14.36
12.27
10.29
8.64
7.48
6.79
6.40
6.07
5.53
4.61
3.27
1.55
-0.49
-2.79
-5.36
-8.21
-11.38
-14.95
-18.99
-23.57
-28.56
-33.62
-38.00
-40.63
-40.45
-36.71
-29.38
-19.23
-7.66
3.73
13.64
21.41
27.02
30.86
33.46
35.17
36.19
36.58
36.41
35.71
34.56
32.93
30.78
28.13
25.14
22.15
19.53
17.53
16.21
15.37
14.67
13.77
12.40
10.47
7.96
4.94
1.56
-2.13
-6.10
-10.44
-15.28
-20.68
-26.41
-31.84
-35.99
-37.70
-36.10
-30.86
-22.39
-11.73
-0.15
11.09
21.12
29.48
36.04
40.85
43.99
45.61
45.88
45.08
43.51
41.49
39.21
36.77
34.20
31.50
28.77
26.15
23.85
22.00
20.60
19.50
18.42
17.10
15.29
12.92
9.97
6.59
2.97
-0.69
-4.20
-7.52
-10.70
-13.89
-17.33
-21.22
-25.68
-30.59
-35.61
-40.04
-43.02
-43.63
-41.24
-35.68
-27.40
-17.34
-6.64
3.59
12.59
20.01
25.76
29.97
32.80
34.40
34.91
34.50
33.33
31.62
29.59
27.50
25.64
24.25
23.52
23.42
23.80
24.35
24.73
24.68
24.05
22.82
21.07
18.94
16.60
14.18
11.74
9.28
6.68
3.82
0.68
-2.65
-5.90
-8.87
-11.46
-13.78
-16.08
-18.69
-21.83
-25.65
-30.13
-35.08
-40.07
-44.34
-46.93
-46.86
-43.53
-36.93
-27.84
-17.46
-7.10
2.19
9.87
15.90
20.44
23.71
25.81
26.74
26.57
25.46
23.68
21.60
19.56
17.77
16.27
15.05
13.97
12.99
12.04
11.15
10.36
9.73
9.24
8.81
8.24
7.29
5.80
3.70
1.07
-1.87
-4.88
-7.75
-10.38
-12.81
-15.21
-17.81
-20.83
-24.39
-28.43
-32.66
-36.48
-39.09
-39.65
-37.55
-32.64
-25.29
-16.38
-6.95
2.04
9.96
16.53
21.74
25.70
28.46
30.08
30.61
30.18
29.01
27.37
25.51
23.62
21.82
20.20
18.85
17.85
17.28
17.11
17.25
17.48
17.55
17.21
16.36
14.99
13.18
11.05
8.69
6.19
3.60
0.96
-1.75
-4.57
-7.52
-10.59
-13.67
-16.67
-19.53
-22.36
-25.40
-28.94
-33.06
-37.51
-41.60
-44.40
-45.00
-42.81
-37.80
-30.48
-21.74
-12.56
-3.82
3.90
10.29
15.23
18.81
21.16
22.53
23.17
23.34
23.17
22.74
22.07
21.12
19.93
18.54
17.05
15.59
14.29
13.22
12.44
11.86
11.35
10.74
9.85
8.65
7.20
5.67
4.25
3.05
2.00
0.90
-0.57
-2.62
-5.28
-8.37
-11.54
-14.45
-16.87
-18.86
-20.68
-22.72
-25.33
-28.60
-32.30
-35.85
-38.45
-39.27
-37.74
-33.73
-27.48
-19.61
-10.87
-2.07
6.09
13.06
18.46
22.15
24.25
25.09
25.12
24.74
24.21
23.60
22.86
21.95
20.94
19.96
19.10
18.37
17.66
16.80
15.69
14.32
12.77
11.18
9.62
8.10
6.53
4.86
3.02
0.98
-1.27
-3.77
-6.49
-9.40
-12.38
-15.25
-17.83
-20.01
-21.81
-23.42
-25.10
-27.13
-29.76
-33.07
-36.84
-40.60
-43.57
-44.82
-43.57
-39.40
-32.44
-23.42
-13.44
-3.67
4.94
11.86
16.98
20.49
22.61
23.51
23.31
22.10
20.10
17.65
15.19
13.11
11.63
10.78
10.41
10.33
10.29
10.11
9.64
8.80
7.54
5.86
3.82
1.43
-1.25
-4.18
-7.31
-10.52
-13.67
-16.59
-19.13
-21.20
-22.80
-24.12
-25.45
-27.17
-29.60
-32.82
-36.58
-40.29
-43.14
-44.32
-43.26
-39.75
-34.03
-26.65
-18.36
-9.97
-2.16
4.54
9.86
13.75
16.34
17.88
18.68
19.09
19.41
19.90
20.81
22.27
24.35
26.91
29.69
32.28
34.22
35.18
35.03
33.86
31.84
29.12
25.74
21.59
16.57
10.62
3.89
-3.32
-10.66
-17.80
-24.50
-30.62
-36.11
-40.96
-45.23
-49.05
-52.53
-55.69
-58.40
-60.32
-60.96
-59.87
-56.71
-51.44
-44.34
-36.00
-27.15
-18.51
-10.64
-3.77
2.11
7.25
11.93
16.36
20.64
24.76
28.70
32.47
36.12
39.66
43.03
46.04
48.44
50.04
50.77
50.66
49.85
48.44
46.35
43.35
39.17
33.62
26.78
18.98
10.68
2.37
-5.66
-13.35
-20.85
-28.44
-36.34
-44.57
-52.84
-60.57
-66.89
-70.85
-71.68
-69.00
-62.99
-54.33
-44.01
-33.06
-22.32
-12.33
-3.39
4.34
10.77
15.91
19.92
23.10
25.82
28.37
30.77
32.85
34.35
35.07
35.01
34.34
33.31
32.09
30.70
29.01
26.82
23.91
20.18
15.64
10.40
4.65
-1.32
-7.29
-13.15
-18.96
-24.93
-31.26
-38.09
-45.28
-52.43
-58.86
-63.79
-66.42
-66.17
-62.77
-56.44
-47.74
-37.52
-26.75
-16.24
-6.58
1.91
9.17
15.31
20.50
24.96
28.88
32.36
35.46
38.10
40.17
41.59
42.36
42.52
42.20
41.51
40.47
39.02
37.03
34.28
30.62
25.94
20.23
13.67
6.47
-1.09
-8.75
-16.39
-23.98
-31.63
-39.47
-47.59
-55.81
-63.56
-69.98
-74.04
-74.89
-72.15
-66.04
-57.36
-47.18
-36.53
-26.17
-16.50
-7.63
0.48
7.88
14.62
20.71
26.18
31.07
35.40
39.20
42.48
45.16
47.14
48.31
48.66
48.27
47.38
46.22
44.89
43.25
40.93
37.51
32.70
26.49
19.21
11.33
3.33
-4.51
-12.10
-19.55
-27.06
-34.75
-42.60
-50.40
-57.67
-63.68
-67.58
-68.54
-66.04
-60.05
-51.09
-40.07
-28.01
-15.80
-4.05
6.89
16.77
25.36
32.47
38.04
42.32
45.82
49.15
52.69
56.38
59.68
61.82
62.19
60.68
57.72
54.20
50.97
48.43
46.32
43.82
39.76
33.19
23.65
11.46
-2.29
-15.70
-26.39
-32.13
-31.69
-25.82
-17.62
-11.92
-13.50
-25.08
-45.81
-71.44
-95.91
-113.89
-122.78
-123.02
-116.91
-106.68
-93.08
-75.23
-51.69
-21.64
14.52
55.30
98.48
141.24
180.18
211.43
231.43
238.16
232.23
217.11
197.93
179.59
164.85
153.78
144.35
134.03
121.21
105.90
89.33
73.08
58.10
44.38
31.16
17.61
3.27
-11.59
-26.35
-40.42
-53.55
-65.63
-76.33
-84.83
-90.01
-90.97
-87.48
-80.23
-70.52
-59.68
-48.65
-37.97
-28.06
-19.58
-13.41
-10.25
-10.35
-13.25
-18.10
-24.02
-30.51
-37.47
-44.93
-52.69
-60.15
-66.54
-71.24
-74.14
-75.67
-76.50
-77.22
-77.96
-78.43
-78.21
-77.01
-74.92
-72.35
-69.67
-67.05
-64.25
-60.82
-56.36
-50.75
-44.18
-37.03
-29.66
-22.33
-15.11
-8.08
-1.49
4.36
9.19
13.01
16.08
18.92
21.96
25.42
29.21
33.08
36.72
39.95
42.70
44.99
46.91
48.52
49.83
50.82
51.41
51.51
51.02
49.92
48.26
46.18
43.81
41.22
38.46
35.61
32.81
30.17
27.71
25.32
22.77
19.84
16.49
12.88
9.31
6.01
3.09
0.49
-1.91
-4.11
-6.08
-7.72
-8.99
-10.03
-10.99
-12.03
-13.19
-14.36
-15.37
-16.03
-16.24
-16.02
-15.53
-15.01
-14.73
-14.95
-15.75
-16.93
-18.07
-18.57
-17.88
-15.65
-11.77
-6.42
0.08
7.31
14.77
21.91
28.15
33.06
36.41
38.34
39.39
40.23
41.57
43.85
47.24
51.64
56.74
62.04
66.86
70.35
71.56
69.67
64.17
55.21
43.61
30.71
17.99
6.56
-3.10
-11.34
-18.93
-26.70
-35.07
-43.94
-52.72
-60.81
-67.86
-73.98
-79.60
-85.23
-91.25
-97.89
-105.34
-113.75
-123.12
-132.89
-141.59
-146.86
-146.02
-137.23
-120.56
-98.45
-75.10
-54.98
-41.07
-33.78
-31.07
-29.60
-26.22
-19.10
-8.06
5.84
20.79
34.52
44.52
48.30
44.08
31.67
12.90
-8.52
-28.16
-42.29
-49.09
-48.82
-43.17
-34.21
-23.59
-12.53
-2.23
5.79
9.85
8.90
3.35
-4.71
-12.04
-15.55
-13.57
-6.44
3.78
14.26
22.58
27.52
29.06
28.02
25.48
22.36
19.18
16.18
13.39
10.91
8.96
7.84
7.79
8.83
10.58
12.37
13.47
13.34
11.85
9.35
6.44
3.78
1.95
1.14
1.26
2.02
2.99
3.78
4.09
3.74
2.66
0.89
-1.63
-4.92
-8.95
-13.59
-18.53
-23.40
-27.89
-31.87
-35.41
-38.81
-42.37
-46.32
-50.68
-55.20
-59.39
-62.54
-63.95
-62.95
-59.24
-52.99
-44.75
-35.41
-25.76
-16.41
-7.66
0.40
7.77
14.35
20.01
24.59
28.03
30.35
31.69
32.20
31.99
31.11
29.63
27.70
25.56
23.52
21.90
20.88
20.51
20.63
20.93
21.07
20.71
19.63
17.69
14.89
11.33
7.28
3.00
-1.31
-5.53
-9.74
-14.18
-19.10
-24.71
-30.99
-37.57
-43.72
-48.50
-50.90
-50.22
-46.25
-39.30
-30.18
-19.92
-9.49
0.37
9.26
16.99
23.47
28.64
32.45
34.92
36.15
36.33
35.79
34.86
33.85
32.94
32.20
31.59
31.02
30.40
29.72
29.00
28.33
27.68
26.93
25.85
24.18
21.71
18.39
14.27
9.45
3.95
-2.34
-9.56
-17.77
-26.81
-36.28
-45.69
-54.60
-62.57
-69.21
-73.94
-76.02
-74.69
-69.46
-60.38
-48.23
-34.27
-19.95
-6.47
5.48
15.66
24.06
30.58
34.94
36.80
35.99
32.80
28.06
22.96
18.63
15.75
14.37
14.06
14.19
14.35
14.26
13.84
12.85
10.81
7.05
1.01
-7.51
-18.13
-29.99
-41.90
-52.70
-61.47
-67.67
-71.16
-72.12
-70.90
-67.94
-63.53
-57.74
-50.30
-40.81
-28.94
-14.59
1.82
19.56
37.72
55.58
72.80
89.41
105.63
121.59
137.21
152.09
165.65
177.18
185.90
190.97
191.64
187.42
178.33
165.14
149.26
132.43
116.35
102.22
90.59
81.19
73.24
65.68
57.63
48.63
38.89
29.31
21.15
15.53
13.01
13.23
15.10
17.17
18.09
16.96
13.50
7.89
0.75
-6.98
-14.29
-20.28
-24.45
-26.98
-28.65
-30.42
-33.05
-36.61
-40.55
-43.85
-45.55
-44.88
-41.46
-35.30
-26.85
-17.33
-8.62
-3.00
-2.53
-8.33
-20.19
-36.72
-56.06
-76.48
-96.81
-116.22
-133.85
-148.53
-159.01
-164.53
-165.37
-162.97
-159.35
-156.31
-154.53
-153.36
-151.14
-146.11
-137.24
-124.74
-109.89
-94.42
-79.78
-66.52
-54.24
-41.92
-28.38
-12.83
5.02
25.01
46.69
69.44
92.58
115.38
136.95
156.34
172.72
185.53
194.67
200.68
204.61
207.72
211.05
214.91
218.63
220.59
218.68
210.90
196.02
173.90
145.57
112.96
78.51
44.60
13.26
-14.06
-36.60
-54.22
-67.26
-76.54
-83.13
-88.28
-93.08
-98.37
-104.50
-111.35
-118.38
-124.75
-129.46
-131.51
-130.11
-124.82
-115.75
-103.59
-89.50
-74.70
-60.25
-46.76
-34.41
-23.16
-12.93
-3.87
3.77
9.65
13.59
15.64
16.10
15.49
14.39
13.34
12.74
12.84
13.65
15.03
16.76
18.66
20.61
22.48
24.13
25.27
25.58
24.83
23.04
20.54
17.87
15.58
13.96
12.99
12.35
11.52
10.00
7.44
3.76
-0.73
-5.32
-9.01
-10.80
-10.01
-6.55
-1.02
5.55
12.05
17.56
21.52
23.65
23.78
21.87
18.03
12.69
6.62
0.73
-4.14
-7.47
-9.18
-9.47
-8.66
-7.02
-4.77
-2.14
0.58
3.01
4.90
6.21
7.14
7.99
8.88
9.56
9.50
8.00
4.66
-0.36
-6.28
-11.99
-16.44
-19.18
-20.50
-21.27
-22.56
-25.15
-29.18
-34.05
-38.61
-41.53
-41.64
-38.32
-31.53
-21.91
-10.47
1.56
13.13
23.44
32.13
39.09
44.38
48.11
50.36
51.25
50.91
49.53
47.28
44.45
41.33
38.31
35.80
34.11
33.32
33.18
33.19
32.70
31.20
28.40
24.36
19.42
14.07
8.73
3.65
-1.16
-5.81
-10.38
-14.84
-18.94
-22.32
-24.76
-26.33
-27.50
-29.06
-31.75
-35.94
-41.43
-47.42
-52.70
-56.04
-56.51
-53.64
-47.60
-39.03
-29.00
-18.59
-8.75
-0.08
7.24
13.33
18.37
22.39
25.23
26.61
26.37
24.58
21.65
18.29
15.29
13.48
13.49
15.64
19.82
25.34
31.12
35.99
38.98
39.68
38.27
35.35
31.60
27.43
22.91
17.89
12.31
6.35
0.45
-4.89
-9.38
-13.00
-16.07
-19.07
-22.42
-26.37
-30.87
-35.54
-39.71
-42.53
-43.09
-40.65
-34.91
-26.16
-15.24
-3.37
8.10
18.05
25.68
30.73
33.35
34.09
33.64
32.65
31.56
30.46
29.17
27.46
25.20
22.50
19.70
17.20
15.25
13.85
12.78
11.67
10.23
8.31
5.88
3.02
-0.23
-3.81
-7.61
-11.52
-15.25
-18.56
-21.26
-23.31
-24.87
-26.26
-27.87
-30.09
-33.17
-37.10
-41.60
-46.03
-49.48
-50.95
-49.59
-44.99
-37.35
-27.43
-16.42
-5.55
4.14
12.02
17.95
22.10
24.80
26.35
26.99
26.83
25.97
24.47
22.43
19.98
17.21
14.28
11.31
8.46
5.94
3.97
2.72
2.23
2.41
2.95
3.53
3.82
3.55
2.58
0.85
-1.61
-4.73
-8.29
-12.00
-15.50
-18.44
-20.69
-22.31
-23.63
-25.12
-27.20
-30.01
-33.34
-36.51
-38.52
-38.45
-35.60
-29.86
-21.70
-12.01
-1.91
7.54
15.57
21.69
25.74
27.79
28.09
26.99
24.97
22.47
19.93
17.66
15.83
14.43
13.42
12.69
12.15
11.73
11.37
11.04
10.67
10.17
9.37
8.19
6.58
4.54
2.18
-0.35
-2.90
-5.34
-7.58
-9.60
-11.37
-12.89
-14.23
-15.53
-17.00
-18.89
-21.43
-24.73
-28.66
-32.85
-36.60
-39.05
-39.34
-36.90
-31.68
-24.17
-15.29
-6.11
2.48
9.88
15.93
20.68
24.20
26.50
27.45
27.01
25.29
22.68
19.81
17.33
15.75
15.17
15.32
15.59
15.43
14.49
12.76
10.53
8.11
5.65
3.00
-0.15
-4.13
-9.06
-14.77
-20.86
-26.87
-32.44
-37.31
-41.41
-44.72
-47.45
-49.93
-52.55
-55.61
-58.97
-61.92
-63.27
-61.70
-56.31
-47.05
-34.87
-21.32
-8.18
3.18
11.96
18.07
21.83
23.77
24.44
24.32
23.79
23.25
23.01
23.30
24.12
25.21
26.11
26.33
25.51
23.66
21.05
18.18
15.50
13.29
11.54
10.05
8.54
6.76
4.60
2.15
-0.42
-2.87
-5.05
-6.94
-8.72
-10.68
-13.23
-16.66
-21.18
-26.77
-33.15
-39.73
-45.62
-49.74
-51.05
-48.89
-43.20
-34.58
-24.22
-13.45
-3.40
5.17
12.00
17.22
21.01
23.58
24.96
25.15
24.17
22.20
19.58
16.82
14.48
12.94
12.34
12.46
12.87
12.99
12.35
10.78
8.53
6.13
4.23
3.34
3.58
4.68
6.09
7.21
7.61
7.19
6.19
5.01
4.16
3.98
4.61
5.95
7.67
9.34
10.53
11.06
11.26
12.20
15.52
23.03
35.89
53.99
75.47
97.07
115.02
126.23
129.23
124.36
113.35
98.34
81.14
62.74
43.56
24.01
4.79
-12.94
-27.94
-39.36
-46.99
-51.36
-53.37
-53.87
-53.33
-51.91
-49.49
-46.13
-42.15
-38.27
-35.35
-34.10
-34.76
-36.98
-40.05
-43.15
-45.81
-47.98
-49.89
-51.69
-53.12
-53.61
-52.54
-49.77
-45.72
-41.18
-36.74
-32.34
-27.31
-20.69
-11.91
-1.27
9.98
20.19
27.88
32.21
33.19
31.31
27.25
21.56
14.64
6.79
-1.48
-9.45
-16.34
-21.58
-25.05
-27.29
-29.22
-31.70
-35.18
-39.44
-43.72
-47.13
-49.03
-49.19
-47.81
-45.16
-41.39
-36.46
-30.37
-23.52
-16.79
-11.42
-8.55
-8.70
-11.47
-15.74
-20.13
-23.49
-25.16
-24.96
-22.90
-18.98
-13.11
-5.30
4.16
14.53
24.84
34.08
41.50
46.74
49.83
51.00
50.64
49.16
47.01
44.54
42.00
39.40
36.60
33.43
29.81
25.86
21.88
18.26
15.27
13.01
11.30
9.90
8.52
6.92
5.03
2.91
0.67
-1.56
-3.76
-6.02
-8.50
-11.40
-14.81
-18.83
-23.44
-28.68
-34.36
-40.02
-44.81
-47.59
-47.26
-43.20
-35.56
-25.30
-13.86
-2.66
7.28
15.56
22.17
27.35
31.28
34.12
35.96
36.98
37.37
37.31
36.91
36.18
35.13
33.75
32.06
30.10
27.92
25.57
23.15
20.80
18.67
16.79
15.04
13.12
10.73
7.71
4.10
0.19
-3.64
-7.12
-10.23
-13.17
-16.35
-20.19
-25.04
-30.88
-37.34
-43.57
-48.48
-50.91
-50.04
-45.63
-38.10
-28.43
-17.84
-7.53
1.62
9.17
15.04
19.41
22.60
24.89
26.49
27.53
28.09
28.19
27.89
27.28
26.44
25.45
24.36
23.23
22.06
20.87
19.65
18.36
16.94
15.35
13.50
11.29
8.65
5.52
1.95
-1.92
-5.91
-9.86
-13.65
-17.39
-21.30
-25.64
-30.55
-35.92
-41.22
-45.54
-47.79
-46.98
-42.56
-34.74
-24.33
-12.61
-0.84
9.96
19.23
26.78
32.61
36.74
39.11
39.70
38.69
36.47
33.67
30.84
28.35
26.27
24.37
22.38
20.15
17.76
15.54
13.83
12.80
12.26
11.77
10.76
8.89
6.10
2.63
-1.07
-4.65
-7.93
-10.97
-13.95
-17.10
-20.64
-24.69
-29.21
-33.94
-38.28
-41.44
-42.48
-40.65
-35.62
-27.59
-17.35
-6.05
5.06
14.93
22.92
28.75
32.47
34.32
34.51
33.34
31.12
28.24
25.15
22.32
20.11
18.54
17.46
16.57
15.61
14.53
13.47
12.64
12.21
12.11
12.00
11.41
9.98
7.56
4.33
0.71
-2.91
-6.26
-9.35
-12.38
-15.65
-19.40
-23.75
-28.55
-33.40
-37.60
-40.30
-40.60
-37.88
-31.94
-23.22
-12.70
-1.61
8.88
17.95
25.24
30.77
34.79
37.45
38.77
38.70
37.27
34.71
31.50
28.17
25.18
22.72
20.74
19.10
17.74
16.70
16.06
15.78
15.60
15.03
13.58
10.95
7.17
2.59
-2.26
-6.89
-11.00
-14.57
-17.77
-20.87
-24.15
-27.83
-31.95
-36.37
-40.58
-43.77
-44.95
-43.17
-37.97
-29.53
-18.81
-7.23
3.72
12.97
20.02
24.86
27.80
29.14
29.09
27.81
25.51
22.50
19.24
16.12
13.39
11.09
9.12
7.38
5.81
4.45
3.40
2.69
2.23
1.83
1.23
0.17
-1.52
-3.83
-6.57
-9.46
-12.15
-14.46
-16.43
-18.33
-20.58
-23.49
-26.99
-30.49
-33.06
-33.62
-31.39
-26.21
-18.57
-9.48
-0.10
8.60
15.99
21.74
25.77
28.02
28.58
27.67
25.72
23.36
21.15
19.49
18.41
17.70
17.02
16.13
15.00
13.75
12.51
11.36
10.18
8.80
6.99
4.61
1.73
-1.43
-4.65
-7.68
-10.45
-13.05
-15.69
-18.64
-22.17
-26.40
-31.18
-36.07
-40.26
-42.74
-42.55
-39.06
-32.30
-22.95
-12.22
-1.48
8.16
16.05
22.05
26.32
29.16
30.83
31.55
31.49
30.80
29.66
28.16
26.31
24.12
21.67
19.14
16.82
14.98
13.69
12.81
12.04
10.96
9.28
6.87
3.82
0.36
-3.22
-6.72
-10.00
-13.05
-15.95
-18.88
-22.09
-25.84
-30.25
-35.10
-39.73
-43.10
-44.07
-41.78
-36.03
-27.42
-17.24
-6.96
2.09
9.17
14.10
17.16
18.79
19.34
19.03
17.93
16.09
13.66
10.88
8.09
5.63
3.75
2.53
1.89
1.63
1.59
1.58
1.49
1.26
0.78
-0.11
-1.54
-3.59
-6.11
-8.83
-11.47
-13.88
-16.17
-18.66
-21.74
-25.56
-29.91
-34.05
-36.93
-37.45
-34.82
-28.89
-20.22
-9.95
0.53
10.01
17.74
23.56
27.67
30.39
31.92
32.29
31.42
29.37
26.38
22.89
19.34
16.01
13.03
10.42
8.26
6.70
5.87
5.77
6.08
6.30
5.89
4.48
2.05
-1.05
-4.32
-7.33
-9.81
-11.80
-13.60
-15.64
-18.42
-22.24
-27.12
-32.58
-37.68
-41.19
-42.01
-39.47
-33.58
-25.03
-14.97
-4.65
4.91
13.09
19.62
24.54
28.00
30.17
31.28
31.49
31.00
29.93
28.39
26.43
24.13
21.60
19.03
16.60
14.48
12.73
11.26
9.86
8.29
6.44
4.33
2.07
-0.13
-2.13
-3.97
-5.81
-7.91
-10.50
-13.75
-17.74
-22.52
-27.95
-33.70
-39.09
-43.06
-44.49
-42.48
-36.82
-28.07
-17.45
-6.43
3.71
12.17
18.72
23.44
26.60
28.40
28.98
28.47
27.10
25.16
22.95
20.72
18.61
16.62
14.71
12.85
11.06
9.41
7.94
6.67
5.51
4.29
2.79
0.84
-1.71
-4.81
-8.31
-11.94
-15.47
-18.75
-21.84
-25.01
-28.56
-32.70
-37.24
-41.58
-44.74
-45.63
-43.42
-37.82
-29.30
-18.87
-7.83
2.52
11.27
17.98
22.64
25.50
26.88
27.08
26.30
24.74
22.63
20.29
18.05
16.16
14.65
13.46
12.47
11.59
10.87
10.33
9.98
9.63
9.03
7.85
5.95
3.35
0.26
-2.98
-6.10
-8.93
-11.49
-13.90
-16.44
-19.41
-23.10
-27.63
-32.71
-37.63
-41.29
-42.52
-40.44
-34.82
-26.21
-15.80
-5.04
4.83
13.05
19.39
23.95
27.04
28.89
29.64
29.41
28.33
26.61
24.50
22.29
20.28
18.63
17.36
16.36
15.41
14.31
12.97
11.49
10.06
8.84
7.84
6.88
5.66
3.92
1.57
-1.22
-4.18
-7.00
-9.51
-11.77
-14.01
-16.60
-19.90
-24.07
-28.98
-34.19
-38.96
-42.42
-43.72
-42.21
-37.62
-30.18
-20.56
-9.81
0.93
10.72
18.96
25.48
30.35
33.80
36.01
37.08
37.11
36.24
34.66
32.61
30.24
27.67
24.97
22.21
19.55
17.12
15.01
13.22
11.66
10.19
8.64
6.86
4.72
2.10
-0.99
-4.53
-8.22
-11.69
-14.60
-16.80
-18.49
-20.19
-22.56
-26.12
-31.03
-36.87
-42.70
-47.34
-49.57
-48.59
-44.15
-36.59
-26.82
-15.99
-5.27
4.38
12.34
18.34
22.40
24.65
25.28
24.50
22.56
19.80
16.67
13.56
10.85
8.69
7.08
5.94
5.20
4.85
4.98
5.62
6.63
7.71
8.37
8.15
6.77
4.25
0.93
-2.65
-6.02
-8.86
-11.17
-13.20
-15.34
-17.99
-21.49
-25.91
-31.02
-36.16
-40.31
-42.27
-41.11
-36.42
-28.51
-18.38
-7.36
3.19
12.33
19.57
24.90
28.52
30.75
31.84
31.92
31.09
29.44
27.18
24.68
22.35
20.53
19.33
18.61
18.10
17.52
16.80
16.03
15.39
14.96
14.53
13.64
11.80
8.71
4.50
-0.29
-4.97
-8.92
-11.85
-13.92
-15.65
-17.68
-20.54
-24.51
-29.57
-35.38
-41.30
-46.47
-49.81
-50.33
-47.36
-40.82
-31.34
-20.06
-8.32
2.69
12.19
19.81
25.57
29.60
32.08
33.15
32.96
31.72
29.68
27.20
24.59
22.15
20.03
18.25
16.64
15.01
13.27
11.45
9.75
8.44
7.63
7.13
6.49
5.19
2.87
-0.46
-4.43
-8.39
-11.79
-14.38
-16.35
-18.17
-20.34
-23.23
-26.96
-31.38
-36.07
-40.41
-43.56
-44.60
-42.76
-37.65
-29.49
-19.12
-7.74
3.36
13.20
21.22
27.28
31.49
33.97
34.84
34.24
32.41
29.69
26.57
23.54
20.89
18.68
16.78
14.98
13.21
11.57
10.25
9.44
9.06
8.76
8.09
6.60
4.08
0.68
-3.21
-7.08
-10.54
-13.38
-15.74
-17.87
-20.16
-22.99
-26.54
-30.79
-35.40
-39.67
-42.67
-43.39
-40.99
-35.16
-26.29
-15.42
-4.02
6.42
14.91
21.09
25.17
27.72
29.17
29.74
29.40
28.05
25.75
22.82
19.72
16.88
14.52
12.57
10.79
9.05
7.33
5.77
4.54
3.62
2.77
1.56
-0.38
-3.13
-6.46
-9.84
-12.78
-15.07
-16.96
-19.02
-21.94
-26.21
-31.80
-38.10
-43.99
-48.11
-49.18
-46.44
-39.82
-29.99
-18.20
-5.87
5.72
15.66
23.54
29.27
32.95
34.75
34.91
33.73
31.60
28.98
26.28
23.73
21.34
19.03
16.72
14.44
12.37
10.65
9.34
8.28
7.14
5.56
3.30
0.35
-3.06
-6.57
-9.86
-12.65
-14.91
-16.83
-18.73
-21.03
-24.07
-28.04
-32.79
-37.76
-42.04
-44.46
-43.98
-39.96
-32.49
-22.40
-11.01
0.25
10.21
18.25
24.27
28.47
31.21
32.73
33.17
32.66
31.34
29.41
27.18
24.87
22.67
20.65
18.74
16.85
15.00
13.27
11.79
10.65
9.75
8.89
7.75
6.09
3.83
1.06
-1.94
-4.94
-7.76
-10.46
-13.26
-16.51
-20.57
-25.65
-31.59
-37.87
-43.49
-47.20
-47.82
-44.68
-37.81
-28.07
-16.86
-5.65
4.40
12.67
19.02
23.62
26.67
28.31
28.66
27.87
26.22
24.07
21.75
19.49
17.40
15.42
13.58
11.93
10.58
9.68
9.31
9.39
9.63
9.62
8.94
7.33
4.77
1.49
-2.09
-5.53
-8.58
-11.26
-13.90
-17.02
-21.08
-26.33
-32.58
-39.15
-44.96
-48.77
-49.44
-46.31
-39.50
-29.82
-18.59
-7.23
3.09
11.68
18.31
23.08
26.23
27.96
28.47
28.00
26.80
25.15
23.29
21.40
19.60
17.91
16.34
14.93
13.69
12.66
11.83
11.11
10.26
8.93
6.78
3.61
-0.52
-5.28
-10.21
-14.89
-19.11
-23.00
-26.92
-31.29
-36.42
-42.29
-48.49
-54.27
-58.58
-60.37
-58.87
-53.81
-45.55
-34.99
-23.34
-11.78
-1.21
7.82
14.97
20.01
22.78
23.31
21.99
19.60
17.25
16.11
17.13
20.72
26.56
33.62
40.58
46.19
49.53
50.13
47.83
42.65
34.79
24.85
14.15
4.96
0.04
1.53
10.09
24.50
42.04
59.48
74.13
84.43
90.36
93.15
94.53
96.54
101.13
109.68
122.40
137.85
150.94
155.76
147.40
123.69
86.64
41.66
-4.80
-47.54
-83.81
-113.04
-137.26
-157.47
-173.62
-184.80
-190.33
-190.49
-186.85
-181.98
-178.76
-179.37
-182.96
-188.66
-195.10
-200.64
-203.46
-201.81
-194.48
-181.32
-163.29
-142.01
-119.62
-97.21
-74.14
-48.05
-16.16
22.94
67.72
113.78
155.52
188.15
209.92
222.47
229.24
232.99
233.92
229.41
215.90
191.79
159.36
125.10
97.52
83.66
86.08
101.82
123.66
142.88
152.36
148.58
132.14
106.83
78.14
51.51
31.21
19.35
15.57
17.32
20.59
21.23
16.02
3.18
-17.45
-44.66
-76.13
-108.61
-138.22
-161.02
-173.83
-175.23
-165.98
-148.79
-127.41
-105.40
-85.18
-67.68
-52.55
-38.93
-26.03
-13.71
-2.51
6.65
13.02
16.49
17.87
18.64
20.33
24.05
30.09
37.96
46.50
54.08
58.90
59.21
53.78
42.22
25.29
4.84
-16.55
-36.00
-50.79
-58.76
-58.94
-51.98
-40.40
-28.41
-20.79
-21.45
-31.89
-50.67
-73.95
-97.05
-115.97
-128.23
-132.83
-129.61
-118.90
-101.65
-80.01
-57.46
-38.39
-26.66
-24.05
-29.45
-38.95
-47.61
-51.48
-49.15
-42.10
-33.69
-27.66
-26.56
-30.90
-38.96
-47.41
-52.32
-50.35
-39.53
-19.86
6.56
35.68
62.05
80.10
85.87
78.69
61.92
41.85
25.19
16.37
15.64
19.50
23.02
22.70
18.43
13.37
11.68
15.97
25.40
35.92
42.49
41.79
34.27
24.20
17.79
20.44
34.22
57.11
83.91
108.49
126.12
134.67
134.41
126.89
113.80
96.50
76.18
54.35
33.12
15.02
2.58
-2.25
1.27
12.28
28.21
45.38
59.89
68.63
70.05
64.33
53.13
39.00
24.71
12.73
4.92
2.23
4.55
10.65
18.50
25.65
29.79
29.11
22.86
11.41
-3.68
-20.09
-35.22
-46.66
-52.59
-52.07
-45.05
-32.55
-16.47
0.69
16.22
27.96
34.69
36.41
34.04
29.13
23.16
17.27
11.95
7.07
1.92
-4.49
-12.90
-23.41
-35.07
-46.09
-54.47
-58.60
-57.90
-52.86
-44.91
-36.04
-28.41
-24.01
-24.29
-29.82
-39.98
-53.29
-67.72
-81.46
-93.34
-102.86
-110.00
-114.80
-117.38
-118.08
-117.77
-117.81
-119.74
-124.59
-132.32
-141.65
-150.34
-155.77
-155.38
-147.19
-130.37
-105.82
-76.63
-47.54
-23.60
-8.20
-1.45
0.01
1.55
8.06
21.74
41.25
62.80
82.08
96.17
104.06
106.11
103.06
95.56
84.61
72.31
62.20
58.47
64.54
81.42
106.92
136.23
163.51
183.87
194.70
195.88
189.15
176.78
160.60
141.56
119.95
95.94
70.08
43.50
17.78
-5.41
-24.84
-40.05
-51.40
-59.86
-66.51
-72.00
-76.31
-78.83
-78.79
-75.84
-70.32
-63.14
-55.35
-47.77
-40.81
-34.62
-29.37
-25.30
-22.43
-20.14
-17.11
-11.76
-3.12
8.42
20.86
31.22
36.63
35.43
27.70
15.00
-0.38
-16.24
-30.89
-43.28
-52.74
-58.85
-61.48
-60.91
-57.91
-53.62
-49.16
-45.31
-42.36
-40.15
-38.35
-36.75
-35.48
-34.91
-35.53
-37.69
-41.36
-46.22
-51.65
-57.13
-62.36
-67.38
-72.41
-77.60
-82.71
-86.96
-89.28
-88.64
-84.44
-76.83
-66.61
-55.08
-43.64
-33.50
-25.39
-19.42
-14.96
-10.91
-5.92
1.20
11.03
23.34
37.11
50.91
63.34
73.52
81.23
86.77
90.70
93.41
95.08
95.65
95.01
93.24
90.79
88.32
86.54
86.08
87.20
89.97
94.17
99.31
104.61
109.10
111.87
112.28
110.25
106.19
100.96
95.53
90.77
87.40
85.89
86.54
89.35
93.94
99.46
104.76
108.70
110.56
110.27
108.37
105.69
103.11
101.23
100.39
100.65
101.84
103.63
105.45
106.55
106.19
103.83
99.21
92.38
83.53
72.79
60.23
46.21
31.72
18.50
8.80
4.57
6.72
14.73
26.83
40.66
54.12
65.76
74.89
81.19
84.42
84.36
81.01
74.98
67.45
59.99
53.95
49.87
47.16
44.17
38.74
28.87
13.41
-7.66
-33.23
-61.47
-90.27
-117.79
-142.67
-164.11
-181.60
-194.62
-202.44
-204.21
-199.36
-187.99
-171.02
-150.17
-127.53
-105.19
-85.01
-68.50
-56.85
-50.74
-50.02
-53.53
-59.28
-64.84
-68.21
-68.34
-65.30
-59.96
-53.42
-46.51
-39.70
-33.19
-27.31
-22.64
-19.83
-19.22
-20.44
-22.41
-23.59
-22.74
-19.37
-13.99
-7.68
-1.45
4.37
10.26
17.17
25.88
36.38
47.64
57.82
64.63
66.11
61.20
50.07
34.42
16.97
0.94
-10.82
-16.52
-15.75
-9.38
0.82
12.65
23.93
32.53
36.56
34.59
25.87
10.66
-9.79
-33.39
-57.73
-80.68
-100.76
-117.22
-129.73
-137.98
-141.56
-140.02
-133.28
-121.91
-107.31
-91.42
-76.28
-63.48
-53.91
-47.68
-44.38
-43.20
-43.26
-43.65
-43.55
-42.35
-39.68
-35.56
-30.21
-24.07
-17.50
-10.72
-3.74
3.61
11.50
19.94
28.63
37.02
44.43
50.30
54.27
56.32
56.65
55.64
53.65
51.07
48.18
45.23
42.45
39.96
37.83
36.08
34.63
33.51
32.73
32.43
32.71
33.68
35.36
37.68
40.60
44.16
48.47
53.73
60.05
67.34
75.30
83.59
91.90
100.16
108.31
116.30
123.80
130.28
135.16
137.93
138.24
135.75
129.92
119.90
104.84
84.20
58.38
28.83
-2.07
-31.64
-57.75
-79.27
-96.36
-110.13
-122.08
-133.52
-145.18
-157.08
-168.72
-179.51
-188.83
-196.26
-201.58
-204.66
-205.57
-204.67
-202.60
-199.79
-196.08
-190.22
-180.02
-163.36
-139.33
-109.40
-77.47
-48.71
-27.70
-16.72
-14.89
-18.92
-24.64
-28.72
-29.63
-27.56
-23.47
-18.09
-11.56
-3.57
5.91
16.12
25.58
32.60
35.99
35.63
32.47
28.02
23.82
20.94
19.67
19.78
20.62
21.53
22.06
22.05
21.69
21.37
21.38
21.78
22.35
22.63
22.25
21.08
19.26
17.06
14.63
11.91
8.59
4.43
-0.63
-6.30
-12.01
-17.10
-21.12
-23.82
-25.35
-26.16
-26.91
-28.27
-30.77
-34.46
-38.90
-43.15
-46.11
-46.78
-44.56
-39.23
-30.92
-20.01
-7.14
6.61
19.78
30.80
38.55
42.70
43.87
43.21
41.82
40.36
38.81
36.83
34.19
31.05
27.77
24.66
21.55
17.71
12.27
4.71
-4.67
-14.54
-22.79
-27.25
-26.67
-21.25
-12.85
-4.38
1.17
1.88
-2.18
-8.65
-13.33
-11.46
0.63
23.93
56.23
92.66
127.25
154.85
172.43
179.47
177.34
168.11
153.78
135.89
115.50
93.11
68.56
40.96
9.17
-27.22
-67.11
-107.73
-145.41
-177.13
-201.76
-220.36
-235.34
-248.92
-261.88
-273.12
-280.40
-281.68
-276.27
-265.17
-250.44
-234.03
-216.93
-198.94
-179.25
-157.16
-132.83
-107.46
-82.69
-59.84
-39.34
-20.71
-3.15
13.82
30.48
46.85
62.91
78.81
94.80
110.86
126.39
140.15
150.48
156.82
160.24
163.50
170.62
185.74
211.93
250.21
297.00
344.58
383.50
405.16
405.19
385.04
350.75
309.79
268.10
232.03
200.40
170.23
138.89
104.95
68.23
29.59
-9.32
-46.45
-79.45
-106.54
-126.81
-141.25
-152.78
-165.11
-180.93
-200.24
-219.86
-234.42
-238.79
-229.73
-207.52
-175.94
-140.86
-108.13
-81.66
-62.71
-50.05
-40.93
-31.47
-17.43
4.85
37.27
78.55
123.55
163.81
189.73
193.37
171.34
126.37
66.79
4.23
-49.60
-86.06
-101.62
-97.83
-79.83
-54.00
-26.02
-0.07
20.91
34.68
39.52
34.71
21.42
2.86
-16.42
-32.07
-41.45
-44.25
-41.91
-36.60
-30.14
-23.66
-17.65
-12.28
-7.43
-2.63
2.94
10.22
19.73
31.14
43.15
53.85
61.29
64.14
61.92
54.78
43.23
27.85
9.35
-11.28
-32.56
-52.59
-69.36
-81.29
-87.55
-88.24
-84.24
-76.87
-67.50
-57.29
-47.11
-37.56
-29.09
-22.08
-16.84
-13.59
-12.32
-12.76
-14.38
-16.51
-18.62
-20.40
-21.88
-23.30
-25.01
-27.22
-29.92
-32.87
-35.62
-37.70
-38.76
-38.75
-37.98
-37.04
-36.61
-37.21
-39.03
-41.87
-45.12
-47.96
-49.43
-48.67
-45.01
-38.25
-28.65
-17.08
-4.67
7.36
18.10
27.01
33.97
38.95
41.93
42.73
41.22
37.54
32.17
26.01
19.96
14.67
10.24
6.35
2.39
-2.15
-7.48
-13.50
-20.01
-26.81
-33.91
-41.40
-49.25
-57.07
-64.13
-69.55
-72.45
-72.20
-68.30
-60.39
-48.15
-31.42
-10.45
13.91
40.12
66.27
90.39
110.98
127.13
138.57
145.47
148.23
147.39
143.58
137.45
129.58
120.41
110.19
99.07
87.23
74.88
62.36
49.97
38.02
26.76
16.43
7.28
-0.27
-5.94
-9.62
-11.56
-12.43
-13.13
-14.65
-17.74
-22.73
-29.43
-37.07
-44.48
-50.34
-53.52
-53.46
-50.31
-44.89
-38.42
-32.05
-26.68
-22.70
-20.18
-19.09
-19.42
-21.24
-24.54
-29.18
-34.78
-40.83
-46.66
-51.52
-54.59
-55.04
-52.10
-45.28
-34.48
-20.12
-3.14
15.10
33.14
49.58
63.36
73.80
80.59
83.62
82.95
78.78
71.51
61.93
51.24
41.01
32.82
27.86
26.69
29.07
34.08
40.37
46.50
51.18
53.53
53.13
49.99
44.49
37.22
28.83
19.88
10.83
2.02
-6.28
-13.93
-20.92
-27.41
-33.74
-40.21
-47.05
-54.28
-61.69
-69.00
-75.92
-82.33
-88.19
-93.53
-98.23
-102.03
-104.45
-104.87
-102.63
-97.02
-87.46
-73.56
-55.31
-33.20
-8.28
17.92
43.56
66.83
86.17
100.54
109.58
113.49
112.99
109.08
102.80
95.08
86.65
78.00
69.48
61.34
53.79
46.90
40.69
35.09
29.95
25.13
20.47
15.92
11.57
7.55
4.01
0.93
-1.81
-4.45
-7.18
-10.08
-13.05
-15.94
-18.56
-20.74
-22.21
-22.53
-21.17
-17.67
-11.96
-4.44
3.91
11.93
18.55
23.13
25.54
26.04
25.07
23.00
20.15
16.71
12.91
9.08
5.62
2.93
1.23
0.50
0.38
0.35
-0.15
-1.45
-3.58
-6.27
-9.07
-11.58
-13.60
-15.22
-16.67
-18.20
-19.94
-21.86
-23.80
-25.50
-26.58
-26.42
-24.28
-19.42
-11.47
-0.73
11.66
24.06
34.72
42.33
46.42
47.33
45.93
43.30
40.32
37.59
35.39
33.73
32.48
31.49
30.66
29.95
29.35
28.82
28.20
27.33
26.04
24.36
22.50
20.85
19.75
19.35
19.54
19.95
20.08
19.42
17.58
14.44
10.22
5.51
1.19
-1.78
-2.64
-1.07
2.67
7.89
13.63
19.06
23.64
27.21
29.88
31.84
33.19
33.86
33.62
32.24
29.59
25.72
20.87
15.41
9.77
4.32
-0.62
-4.89
-8.45
-11.37
-13.82
-15.94
-17.84
-19.61
-21.24
-22.72
-24.05
-25.31
-26.65
-28.23
-30.23
-32.64
-35.28
-37.77
-39.57
-40.08
-38.85
-35.65
-30.61
-24.23
-17.28
-10.56
-4.69
-0.02
3.48
5.98
7.73
8.89
9.54
9.73
9.59
9.26
8.88
8.53
8.14
7.54
6.54
4.97
2.80
0.15
-2.76
-5.63
-8.23
-10.50
-12.62
-14.97
-18.00
-22.01
-27.04
-32.77
-38.59
-43.76
-47.53
-49.29
-48.70
-45.74
-40.72
-34.22
-26.93
-19.58
-12.73
-6.77
-1.95
1.55
3.58
4.02
2.84
0.30
-3.09
-6.64
-9.66
-11.70
-12.69
-12.96
-13.01
-13.24
-13.65
-13.70
-12.46
-8.84
-2.03
8.20
21.37
36.43
51.96
66.51
78.77
87.73
92.90
94.34
92.74
89.12
84.50
79.46
73.88
67.11
58.35
47.24
34.13
19.97
5.95
-6.95
-18.15
-27.35
-34.37
-38.88
-40.50
-38.96
-34.29
-27.07
-18.34
-9.45
-1.80
3.55
6.11
6.11
4.48
2.42
1.03
0.84
1.79
3.34
4.86
5.88
6.16
5.52
3.64
0.09
-5.41
-12.73
-21.10
-29.32
-36.06
-40.37
-41.91
-40.98
-38.36
-34.95
-31.57
-28.76
-26.81
-25.81
-25.72
-26.48
-27.95
-29.95
-32.08
-33.87
-34.82
-34.64
-33.39
-31.57
-29.96
-29.29
-29.93
-31.76
-34.26
-36.78
-38.93
-40.69
-42.42
-44.53
-47.18
-50.24
-53.25
-55.72
-57.25
-57.48
-55.97
-52.08
-44.87
-33.30
-16.53
5.74
33.01
63.86
96.09
127.08
154.32
175.94
191.21
200.71
206.05
209.48
213.06
218.11
224.60
230.98
234.35
231.09
217.93
193.14
157.33
113.48
66.16
20.18
-20.78
-54.77
-81.61
-102.16
-117.56
-128.74
-136.40
-141.16
-143.69
-144.63
-144.30
-142.56
-138.87
-132.59
-123.36
-111.36
-97.35
-82.39
-67.65
-54.06
-42.18
-32.19
-24.05
-17.63
-12.85
-9.73
-8.25
-8.49
-10.45
-14.04
-18.94
-24.57
-30.10
-34.66
-37.54
-38.17
-36.49
-32.89
-28.27
-23.82
-20.80
-20.10
-21.98
-25.86
-29.96
-32.33
-31.27
-26.09
-17.44
-6.93
3.71
13.45
22.34
32.01
43.87
58.74
76.15
94.61
112.55
129.26
145.30
158.34
166.57
167.73
160.38
144.89
123.49
99.06
73.80
48.36
22.46
-0.49
-17.92
-26.27
-22.27
-5.28
21.25
49.96
71.53
75.22
56.19
17.21
-31.99
-79.07
-114.82
-136.38
-146.98
-152.71
-158.55
-166.75
-174.98
-179.57
-178.24
-171.27
-160.78
-149.10
-137.37
-125.11
-110.43
-92.09
-70.96
-49.33
-31.22
-20.09
-17.16
-21.03
-28.18
-34.37
-36.68
-34.93
-31.38
-29.46
-31.88
-39.30
-50.09
-60.79
-67.20
-65.91
-55.53
-36.77
-12.09
14.99
40.82
61.26
73.24
76.62
76.27
79.17
91.62
117.00
153.92
197.00
238.22
269.66
285.83
284.87
267.91
237.93
198.34
152.23
102.35
51.50
3.08
-39.33
-72.90
-96.70
-111.90
-121.24
-127.96
-134.71
-142.92
-152.66
-163.14
-173.13
-181.55
-187.33
-189.34
-186.37
-177.57
-162.82
-142.97
-119.82
-95.69
-72.93
-53.37
-38.02
-27.06
-19.87
-15.27
-11.81
-8.19
-3.85
0.91
4.96
6.77
5.10
-0.25
-8.27
-17.17
-25.03
-30.76
-34.12
-35.58
-35.88
-35.33
-33.40
-28.77
-19.83
-5.28
15.00
40.13
68.19
96.10
119.97
136.27
143.26
141.95
135.83
129.01
125.06
125.85
131.30
139.82
149.07
156.62
160.65
162.46
162.61
162.31
162.87
164.77
167.24
168.57
166.99
161.55
152.42
139.96
124.39
105.09
80.61
49.65
12.79
-27.42
-67.10
-102.34
-130.90
-152.35
-167.90
-179.27
-187.59
-192.82
-194.08
-190.51
-182.07
-170.05
-156.34
-142.80
-130.51
-119.57
-109.29
-99.01
-88.47
-78.02
-68.48
-60.52
-54.35
-49.66
-45.88
-42.49
-39.27
-36.30
-33.76
-31.74
-30.15
-28.70
-27.18
-25.55
-23.90
-22.50
-21.60
-21.30
-21.63
-22.49
-23.70
-24.93
-25.64
-25.23
-23.23
-19.51
-14.48
-8.96
-3.92
-0.13
2.11
2.94
2.77
2.11
1.32
0.58
-0.15
-1.03
-2.27
-3.95
-5.91
-7.64
-8.37
-7.27
-3.78
2.05
9.59
17.68
24.99
30.37
33.11
33.05
30.53
26.10
20.36
13.77
6.72
-0.40
-7.05
-12.59
-16.35
-17.88
-17.20
-14.85
-11.72
-8.83
-6.94
-6.30
-6.59
-7.07
-6.90
-5.52
-2.81
0.81
4.65
8.11
10.92
13.21
15.30
17.45
19.62
21.59
23.06
23.86
24.04
23.77
23.23
22.39
21.11
19.23
16.78
14.03
11.52
9.94
9.87
11.72
15.59
21.29
28.42
36.50
44.98
53.40
61.30
68.22
73.72
77.47
79.30
79.27
77.67
74.83
71.11
66.70
61.58
55.52
48.20
39.36
28.96
17.29
4.94
-7.38
-19.08
-29.88
-39.87
-49.40
-58.94
-68.87
-79.47
-90.88
-103.01
-115.52
-127.68
-138.40
-146.55
-151.34
-152.79
-151.83
-149.94
-148.54
-148.34
-148.92
-148.89
-146.50
-140.45
-130.38
-117.00
-101.81
-86.56
-72.76
-61.41
-52.61
-45.51
-38.28
-28.51
-14.10
5.86
30.41
56.74
81.14
100.36
113.01
120.31
125.72
133.44
146.65
165.81
188.29
209.24
223.52
227.71
221.49
207.34
189.23
170.82
154.27
140.15
128.11
117.76
108.91
101.27
94.05
85.81
75.10
61.14
44.40
26.46
9.30
-5.45
-16.92
-25.04
-30.14
-32.61
-32.76
-30.97
-27.72
-23.63
-19.20
-14.70
-10.01
-4.93
0.60
6.19
11.00
13.98
14.23
11.45
6.11
-0.60
-7.15
-12.05
-14.35
-13.74
-10.59
-5.79
-0.37
4.90
9.72
14.36
19.32
24.97
31.25
37.68
43.70
49.07
54.05
59.17
64.60
69.74
73.29
73.88
71.00
65.33
58.46
51.92
46.33
41.06
34.91
26.95
17.19
6.57
-3.67
-12.73
-20.56
-27.58
-34.16
-40.06
-44.40
-46.11
-44.45
-39.38
-31.67
-22.65
-13.90
-6.73
-1.97
0.28
0.58
-0.02
-0.31
0.58
2.88
5.99
8.57
8.92
5.57
-2.21
-13.99
-28.33
-43.25
-57.05
-68.90
-78.98
-88.12
-97.09
-106.03
-114.35
-121.15
-125.76
-127.90
-127.49
-124.13
-116.98
-104.95
-87.45
-64.99
-39.29
-12.87
11.72
32.46
48.11
58.07
62.15
60.61
54.36
45.17
35.49
27.86
24.02
24.35
27.77
32.40
36.31
38.24
37.78
35.16
30.66
24.19
15.37
3.83
-10.15
-25.51
-40.51
-53.24
-62.23
-66.84
-67.32
-64.51
-59.49
-53.19
-46.25
-38.98
-31.50
-23.96
-16.63
-9.95
-4.40
-0.39
1.85
2.41
1.69
0.50
-0.05
1.18
5.02
11.58
20.03
28.78
35.92
39.87
39.85
35.97
29.10
20.49
11.38
2.83
-4.36
-9.69
-13.06
-14.75
-15.49
-16.26
-18.20
-22.28
-29.05
-38.39
-49.28
-59.98
-68.49
-73.16
-73.29
-69.35
-62.69
-54.91
-47.18
-40.00
-33.27
-26.77
-20.53
-14.83
-10.00
-6.00
-2.33
1.66
6.33
11.50
16.37
20.00
21.80
21.81
20.75
19.63
19.33
20.35
22.74
26.27
30.52
34.99
38.96
41.62
42.12
39.92
34.98
27.80
19.40
11.07
4.11
-0.42
-1.97
-0.63
2.88
7.54
12.37
16.89
21.09
25.20
29.21
32.52
34.13
33.12
29.31
23.50
17.21
12.06
9.06
8.27
9.00
10.35
11.53
12.04
11.62
9.96
6.61
1.21
-6.36
-15.81
-26.42
-37.41
-48.17
-58.47
-68.43
-78.22
-87.74
-96.56
-103.91
-108.96
-111.09
-110.07
-106.15
-100.01
-92.67
-85.27
-78.83
-73.98
-70.72
-68.41
-65.99
-62.39
-56.89
-49.27
-39.70
-28.60
-16.54
-4.25
7.25
16.80
23.36
26.38
26.12
23.58
20.12
16.91
14.51
12.73
10.87
8.09
3.97
-1.26
-6.70
-11.09
-13.25
-12.56
-9.14
-3.77
2.45
8.56
14.03
18.76
22.89
26.51
29.49
31.53
32.32
31.82
30.30
28.25
26.22
24.50
23.14
21.94
20.64
19.01
16.97
14.47
11.46
7.93
3.95
-0.16
-3.93
-6.86
-8.58
-9.09
-8.75
-8.20
-8.09
-8.95
-10.84
-13.45
-16.03
-17.77
-17.96
-16.33
-13.10
-8.81
-4.12
0.49
4.83
8.90
12.82
16.65
20.34
23.81
27.02
29.98
32.76
35.33
37.61
39.41
40.56
40.99
40.81
40.24
39.49
38.68
37.79
36.77
35.55
34.18
32.77
31.35
29.84
28.01
25.59
22.48
18.94
15.42
12.46
10.31
8.81
7.46
5.67
3.13
0.08
-2.77
-4.47
-4.32
-2.21
1.28
5.12
8.18
9.71
9.52
7.95
5.64
3.22
1.08
-0.61
-1.83
-2.52
-2.56
-1.77
-0.07
2.38
5.22
7.98
10.26
11.95
13.29
14.76
16.91
20.09
24.29
29.19
34.25
38.93
42.80
45.69
47.65
48.86
49.60
50.09
50.55
51.01
51.41
51.52
51.16
50.13
48.45
46.24
43.68
40.90
37.86
34.44
30.56
26.30
21.91
17.77
14.09
10.88
7.94
4.90
1.47
-2.48
-6.95
-11.79
-16.73
-21.35
-25.07
-27.22
-27.19
-24.74
-20.05
-13.70
-6.45
1.02
8.27
15.07
21.35
27.04
31.97
36.00
38.94
40.65
41.07
40.27
38.44
35.88
32.90
29.68
26.20
22.25
17.63
12.30
6.48
0.62
-4.85
-9.67
-13.84
-17.56
-21.03
-24.40
-27.65
-30.75
-33.68
-36.43
-38.82
-40.45
-40.74
-39.14
-35.47
-30.03
-23.67
-17.39
-12.03
-7.93
-4.91
-2.50
-0.29
1.89
3.80
4.99
5.09
4.01
2.09
0.04
-1.36
-1.54
-0.29
2.14
5.26
8.47
11.18
12.94
13.46
12.57
10.38
7.15
3.28
-0.89
-5.21
-9.72
-14.54
-19.65
-24.82
-29.59
-33.32
-35.34
-35.10
-32.19
-26.54
-18.38
-8.31
2.80
14.03
24.47
33.31
39.78
43.29
43.39
39.99
33.51
24.90
15.53
6.84
0.00
-4.35
-6.26
-6.35
-5.59
-4.98
-5.30
-6.85
-9.49
-12.70
-15.90
-18.66
-20.89
-22.75
-24.49
-26.41
-28.69
-31.44
-34.65
-38.15
-41.57
-44.34
-45.77
-45.28
-42.65
-38.18
-32.61
-26.95
-22.06
-18.55
-16.48
-15.58
-15.37
-15.38
-15.31
-15.03
-14.60
-14.14
-13.86
-13.85
-14.16
-14.76
-15.52
-16.27
-16.89
-17.35
-17.78
-18.39
-19.35
-20.66
-22.17
-23.58
-24.68
-25.33
-25.62
-25.77
-26.03
-26.64
-27.75
-29.37
-31.28
-33.04
-33.98
-33.36
-30.66
-25.78
-19.15
-11.67
-4.36
1.93
6.71
9.93
11.85
12.82
13.18
13.24
13.19
13.25
13.50
13.86
14.14
14.03
13.30
11.93
10.11
8.21
6.65
5.73
5.51
5.78
6.19
6.29
5.78
4.61
2.97
1.27
-0.17
-1.24
-2.17
-3.40
-5.36
-8.16
-11.51
-14.74
-17.03
-17.71
-16.40
-13.12
-8.13
-2.00
4.57
10.76
15.76
18.92
19.92
18.87
16.33
13.07
9.88
7.26
5.34
3.88
2.53
1.03
-0.63
-2.28
-3.72
-4.90
-6.00
-7.39
-9.43
-12.29
-15.90
-20.00
-24.28
-28.50
-32.52
-36.27
-39.71
-42.91
-45.91
-48.97
-52.38
-56.40
-61.05
-65.89
-69.99
-72.13
-71.06
-66.00
-56.91
-44.63
-30.67
-16.79
-4.51
5.21
12.04
16.13
17.91
17.82
16.26
13.57
10.12
6.35
2.58
-0.99
-4.52
-8.39
-13.02
-18.63
-25.07
-31.87
-38.48
-44.52
-50.00
-55.23
-60.68
-66.73
-73.43
-80.56
-87.78
-94.73
-101.18
-107.05
-112.38
-117.20
-121.40
-124.59
-125.97
-124.30
-118.23
-106.70
-89.48
-67.51
-42.86
-18.28
3.60
20.89
33.10
41.06
46.64
52.22
60.05
71.71
87.66
107.15
128.20
148.06
163.80
173.02
174.36
167.76
154.31
135.92
114.84
93.21
72.83
54.87
39.86
27.75
18.04
10.10
3.34
-2.54
-7.62
-11.83
-15.06
-17.28
-18.52
-18.76
-17.96
-16.02
-12.87
-8.60
-3.46
2.20
8.04
13.78
19.17
24.02
28.10
31.21
33.26
34.42
35.18
36.25
38.28
41.67
46.30
51.62
56.87
61.30
64.36
65.82
65.72
64.29
61.87
58.78
55.21
51.16
46.42
40.68
33.75
25.79
17.27
8.87
1.15
-5.62
-11.59
-17.09
-22.37
-27.44
-31.93
-35.40
-37.54
-38.35
-38.14
-37.37
-36.39
-35.26
-33.86
-31.90
-29.21
-25.80
-21.90
-17.83
-13.99
-10.74
-8.39
-7.14
-6.95
-7.48
-8.07
-7.94
-6.47
-3.49
0.62
5.06
8.88
11.34
12.08
11.16
8.94
5.87
2.44
-0.96
-4.13
-7.02
-9.66
-12.00
-13.85
-14.75
-14.24
-11.97
-7.95
-2.56
3.54
9.69
15.41
20.51
24.92
28.57
31.24
32.60
32.36
30.50
27.30
23.43
19.64
16.57
14.49
13.28
12.54
11.80
10.80
9.44
7.80
5.96
3.92
1.65
-0.90
-3.62
-6.37
-9.00
-11.53
-14.15
-17.15
-20.65
-24.47
-28.02
-30.47
-30.99
-29.04
-24.56
-17.98
-10.07
-1.71
6.35
13.60
19.75
24.71
28.40
30.68
31.47
30.74
28.69
25.75
22.50
19.48
17.03
15.24
13.98
13.09
12.38
11.75
11.12
10.30
9.08
7.28
4.79
1.64
-1.99
-5.91
-9.90
-13.86
-17.75
-21.63
-25.55
-29.45
-33.08
-36.03
-37.84
-38.21
-37.18
-35.16
-32.81
-30.82
-29.66
-29.50
-30.25
-31.72
-33.70
-36.14
-39.06
-42.55
-46.75
-51.78
-57.67
-64.31
-71.45
-78.63
-85.26
-90.75
-94.46
-95.87
-94.68
-90.90
-84.89
-77.36
-69.31
-61.87
-56.11
-52.70
-51.61
-51.88
-51.67
-48.60
-40.39
-25.61
-4.04
23.28
54.36
86.69
117.47
143.89
163.29
173.68
174.34
166.17
151.72
134.43
117.64
103.56
92.90
85.01
78.62
72.65
66.65
60.87
55.92
52.31
50.04
48.49
46.66
43.52
38.47
31.52
23.28
14.60
6.25
-1.39
-8.43
-15.30
-22.61
-30.84
-40.15
-50.22
-60.18
-68.87
-74.94
-77.37
-75.63
-69.92
-61.09
-50.32
-38.83
-27.56
-17.09
-7.69
0.50
7.34
12.64
16.23
18.03
18.12
16.82
14.65
12.18
10.02
8.65
8.36
9.11
10.57
12.10
12.90
12.26
9.85
5.79
0.68
-4.52
-8.80
-11.23
-11.16
-8.32
-2.68
5.31
14.96
25.36
35.64
45.11
53.37
60.32
65.99
70.39
73.40
74.80
74.34
71.93
67.69
61.89
54.90
47.04
38.61
29.97
21.53
13.88
7.65
3.43
1.50
1.74
3.51
5.85
7.72
8.30
7.15
4.29
0.12
-4.76
-9.73
-14.28
-18.14
-21.26
-23.89
-26.46
-29.38
-32.79
-36.28
-38.90
-39.34
-36.41
-29.50
-18.97
-6.20
6.82
17.92
25.38
28.24
26.49
20.82
12.56
3.25
-5.52
-12.33
-16.18
-16.71
-14.43
-10.69
-7.37
-6.19
-8.01
-12.42
-17.86
-22.32
-24.32
-23.44
-20.52
-17.08
-14.65
-14.10
-15.61
-18.79
-23.07
-27.79
-32.15
-35.14
-35.60
-32.53
-25.46
-14.79
-1.59
12.70
26.74
39.60
50.65
59.32
64.87
66.42
63.29
55.56
44.26
31.25
18.68
8.33
1.07
-3.11
-4.86
-4.97
-4.06
-2.57
-0.87
0.51
0.92
-0.28
-3.48
-8.62
-15.34
-23.08
-31.27
-39.29
-46.35
-51.41
-53.28
-50.92
-43.70
-31.75
-15.98
1.93
19.78
35.13
45.76
50.12
47.79
39.63
27.58
14.24
2.19
-6.56
-10.87
-10.64
-6.87
-1.50
2.98
4.16
0.52
-8.00
-19.91
-32.77
-44.14
-52.48
-57.50
-60.00
-61.25
-62.24
-63.52
-65.20
-67.24
-69.63
-72.34
-75.10
-77.15
-77.37
-74.58
-67.91
-57.23
-43.09
-26.54
-8.79
9.17
26.76
43.77
60.18
75.80
89.97
101.57
109.14
111.33
107.35
97.36
82.52
64.87
46.89
31.11
19.63
13.78
13.84
19.09
27.97
38.42
48.21
55.11
57.22
53.25
42.97
27.61
9.70
-7.46
-20.89
-28.84
-31.15
-28.99
-23.89
-17.00
-8.79
0.67
11.15
21.88
31.70
39.63
45.29
49.07
51.68
53.66
54.89
54.61
51.80
45.71
36.13
23.50
8.56
-7.69
-24.15
-39.53
-52.38
-61.55
-66.59
-68.20
-68.19
-68.77
-71.71
-77.41
-84.69
-91.19
-94.28
-92.09
-84.18
-71.56
-56.30
-40.85
-27.46
-17.80
-12.78
-12.44
-15.90
-21.47
-26.98
-30.37
-30.44
-27.25
-22.00
-16.35
-11.53
-7.69
-4.04
0.61
6.96
14.84
23.20
30.64
36.00
38.82
39.33
38.27
36.48
34.62
33.03
31.74
30.56
29.40
28.43
28.08
28.73
30.33
32.13
33.05
32.19
29.53
26.14
23.81
24.25
28.29
35.50
44.26
52.44
58.04
59.73
57.12
50.73
41.82
32.20
24.02
19.29
19.44
24.73
34.07
45.10
54.88
60.62
60.49
54.12
42.51
27.73
12.31
-1.28
-11.00
-15.65
-15.06
-10.18
-2.79
5.08
11.82
16.58
19.29
20.19
19.26
16.00
9.79
0.38
-11.40
-23.60
-33.59
-39.17
-39.38
-34.99
-28.13
-21.31
-16.42
-14.14
-13.86
-14.30
-14.22
-12.95
-10.56
-7.58
-4.67
-2.36
-0.94
-0.51
-1.11
-2.72
-5.18
-8.12
-10.83
-12.33
-11.59
-7.83
-0.89
8.57
19.20
29.29
37.22
41.80
42.46
39.17
32.35
22.79
11.60
0.13
-10.26
-18.56
-24.31
-27.75
-29.62
-30.71
-31.66
-32.73
-33.97
-35.42
-37.23
-39.62
-42.77
-46.66
-51.06
-55.70
-60.34
-64.76
-68.69
-71.52
-72.38
-70.28
-64.58
-55.25
-43.02
-29.11
-14.71
-0.66
12.73
25.46
37.53
48.73
58.73
67.28
74.47
80.68
86.33
91.47
95.58
97.67
96.73
92.24
84.40
74.13
62.64
51.01
39.82
29.13
18.68
8.19
-2.37
-12.73
-22.42
-30.91
-37.76
-42.73
-45.81
-47.05
-46.56
-44.43
-40.83
-36.09
-30.67
-25.16
-20.16
-16.14
-13.47
-12.32
-12.69
-14.34
-16.75
-19.20
-20.86
-21.15
-19.91
-17.45
-14.38
-11.29
-8.53
-6.12
-3.92
-1.87
-0.16
0.78
0.39
-1.78
-5.77
-11.21
-17.23
-22.67
-26.33
-27.26
-25.20
-20.56
-14.25
-7.35
-0.79
4.85
9.25
12.32
14.19
15.03
15.16
15.04
15.10
15.55
16.08
15.89
13.95
9.37
1.53
-9.84
-24.63
-42.31
-62.11
-82.99
-103.64
-122.52
-136.36
-141.60
-135.73
-118.48
-92.19
-60.88
-28.60
1.65
28.17
50.68
69.50
84.64
96.14
104.49
110.73
115.93
120.68
124.92
126.69
124.85
119.11
110.20
99.41
88.04
77.00
66.73
57.26
48.25
39.07
28.70
16.22
1.42
-14.74
-30.30
-43.03
-51.36
-55.08
-55.15
-53.29
-51.07
-49.30
-48.03
-46.98
-46.06
-45.69
-46.83
-50.57
-57.85
-68.89
-82.85
-97.75
-110.83
-119.00
-119.50
-110.50
-91.58
-64.09
-31.22
2.49
31.92
52.61
61.85
59.35
47.06
28.51
7.64
-12.02
-27.91
-38.53
-43.41
-43.07
-39.08
-33.81
-29.84
-28.93
-31.12
-34.28
-34.76
-28.71
-13.78
9.81
39.28
70.35
98.79
121.75
138.19
148.49
153.59
154.33
151.17
144.39
134.46
122.07
107.99
92.77
76.69
59.83
42.30
24.35
6.30
-11.69
-29.76
-48.18
-67.16
-86.43
-105.16
-122.18
-136.27
-146.51
-152.37
-153.72
-150.67
-143.64
-133.30
-120.60
-106.66
-92.62
-79.35
-67.35
-56.74
-47.43
-39.22
-31.90
-25.27
-19.01
-12.74
-6.06
1.24
8.96
16.40
22.41
25.83
25.99
23.24
19.13
16.14
16.98
23.50
35.84
52.00
68.26
80.12
83.82
77.58
62.40
41.95
21.65
7.22
2.94
10.37
27.82
50.83
73.52
90.28
97.29
93.33
79.58
58.85
34.46
9.46
-13.65
-32.84
-46.41
-53.16
-52.68
-45.68
-34.08
-20.57
-7.77
2.43
9.39
13.48
15.58
16.42
16.15
14.45
10.94
5.65
-0.61
-6.35
-9.88
-9.92
-6.25
0.06
6.86
11.50
11.72
6.42
-3.96
-17.46
-31.10
-41.80
-47.18
-46.19
-39.31
-28.42
-16.25
-5.76
0.52
1.01
-4.37
-14.06
-25.05
-33.55
-36.13
-30.87
-18.14
-0.60
17.67
32.53
41.11
42.52
37.78
29.04
18.70
8.70
0.25
-6.08
-10.18
-12.26
-12.64
-11.66
-9.60
-6.66
-3.20
0.13
2.37
2.46
-0.47
-6.55
-15.06
-24.64
-33.72
-41.03
-45.83
-47.94
-47.34
-44.14
-38.37
-30.36
-20.85
-11.12
-2.83
2.40
3.48
0.22
-6.55
-15.18
-23.62
-29.91
-32.43
-30.23
-23.08
-11.53
3.21
19.39
35.17
48.91
59.53
66.56
69.95
69.83
66.36
59.65
49.95
37.77
23.97
9.69
-3.85
-15.49
-24.31
-29.77
-31.93
-31.53
-29.91
-28.82
-29.76
-33.50
-39.77
-47.43
-54.90
-60.80
-64.15
-64.38
-61.04
-53.46
-40.84
-22.69
0.59
27.34
54.75
79.53
98.88
111.25
116.62
116.19
111.69
104.73
96.38
87.20
77.53
67.73
58.30
49.79
42.52
36.52
31.52
27.11
22.95
18.83
14.71
10.64
6.67
2.75
-1.24
-5.42
-9.84
-14.24
-18.09
-20.52
-20.58
-17.40
-10.58
-0.37
12.31
26.05
39.30
50.83
60.15
67.64
74.34
81.38
89.28
97.53
104.54
108.15
106.38
98.14
83.56
63.94
41.24
17.66
-4.86
-24.78
-40.97
-52.77
-59.97
-62.90
-62.40
-59.88
-57.02
-55.50
-56.69
-61.22
-68.82
-78.30
-87.77
-95.09
-98.38
-96.58
-89.73
-78.97
-66.17
-53.40
-42.28
-33.68
-27.67
-23.87
-21.77
-21.08
-21.77
-23.80
-26.94
-30.62
-34.07
-36.55
-37.54
-36.92
-34.91
-31.91
-28.34
-24.49
-20.49
-16.25
-11.54
-6.09
0.28
7.53
15.26
22.83
29.56
34.98
38.98
41.78
43.76
45.13
45.89
45.73
44.35
41.65
37.99
34.06
30.65
28.27
27.02
26.63
26.66
26.83
27.12
27.76
28.96
30.66
32.51
33.88
34.11
32.72
29.54
24.74
18.77
12.21
5.61
-0.63
-6.42
-11.89
-17.32
-22.89
-28.49
-33.64
-37.63
-39.68
-39.26
-36.17
-30.64
-23.23
-14.65
-5.67
2.99
10.65
16.76
20.90
22.87
22.77
20.98
18.02
14.44
10.66
6.89
3.21
-0.37
-3.80
-6.89
-9.44
-11.32
-12.52
-13.21
-13.60
-13.87
-14.18
-14.72
-15.72
-17.46
-20.11
-23.58
-27.33
-30.46
-31.96
-31.04
-27.50
-21.72
-14.59
-7.10
-0.06
6.04
11.03
14.91
17.70
19.39
19.94
19.38
17.86
15.62
12.94
10.02
6.99
3.90
0.78
-2.34
-5.32
-8.01
-10.22
-11.86
-12.96
-13.65
-14.22
-14.98
-16.22
-18.15
-20.80
-23.99
-27.32
-30.16
-31.79
-31.51
-28.89
-23.91
-17.03
-9.07
-0.99
6.34
12.39
17.04
20.41
22.71
24.10
24.62
24.29
23.26
21.82
20.33
19.06
18.05
17.01
15.58
13.43
10.52
7.12
3.71
0.78
-1.41
-2.92
-4.12
-5.56
-7.77
-11.06
-15.41
-20.44
-25.55
-30.02
-33.16
-34.45
-33.57
-30.43
-25.29
-18.67
-11.34
-4.09
2.45
7.97
12.44
15.99
18.72
20.55
21.28
20.75
19.03
16.46
13.59
10.92
8.79
7.17
5.83
4.47
2.90
1.11
-0.73
-2.44
-3.98
-5.45
-7.13
-9.34
-12.27
-15.87
-19.83
-23.55
-26.32
-27.51
-26.71
-23.92
-19.54
-14.15
-8.43
-2.95
1.98
6.25
9.78
12.54
14.43
15.38
15.40
14.61
13.20
11.45
9.61
7.87
6.34
4.99
3.68
2.22
0.47
-1.60
-3.80
-5.91
-7.72
-9.17
-10.46
-11.90
-13.83
-16.43
-19.62
-23.06
-26.19
-28.34
-28.87
-27.36
-23.67
-18.11
-11.32
-4.07
2.90
9.09
14.27
18.38
21.39
23.21
23.76
23.06
21.34
19.02
16.61
14.44
12.64
11.06
9.48
7.78
6.00
4.33
2.99
2.01
1.26
0.45
-0.69
-2.37
-4.64
-7.46
-10.80
-14.64
-18.89
-23.30
-27.35
-30.27
-31.28
-29.85
-25.99
-20.21
-13.43
-6.57
-0.38
4.81
8.92
12.06
14.32
15.71
16.25
16.01
15.14
13.87
12.39
10.88
9.39
7.92
6.40
4.80
3.17
1.64
0.40
-0.46
-1.01
-1.51
-2.26
-3.55
-5.48
-8.05
-11.15
-14.67
-18.44
-22.16
-25.32
-27.29
-27.42
-25.38
-21.30
-15.69
-9.33
-2.96
2.89
7.92
11.96
14.93
16.74
17.36
16.91
15.68
14.05
12.41
10.91
9.54
8.09
6.35
4.25
1.89
-0.50
-2.70
-4.59
-6.23
-7.77
-9.40
-11.24
-13.34
-15.70
-18.34
-21.28
-24.47
-27.63
-30.18
-31.46
-30.91
-28.36
-24.15
-19.03
-13.87
-9.38
-5.91
-3.46
-1.90
-1.20
-1.45
-2.76
-4.99
-7.72
-10.22
-11.80
-12.11
-11.33
-10.12
-9.27
-9.38
-10.62
-12.60
-14.49
-15.18
-13.61
-9.14
-1.83
7.33
16.66
24.22
28.48
28.85
25.77
20.50
14.53
9.14
5.15
2.94
2.58
3.96
6.71
10.29
13.93
16.87
18.56
18.73
17.47
15.09
12.01
8.67
5.39
2.47
0.10
-1.65
-2.84
-3.65
-4.28
-4.86
-5.36
-5.66
-5.57
-5.02
-4.08
-3.05
-2.37
-2.46
-3.54
-5.60
-8.30
-11.10
-13.44
-14.84
-15.05
-14.06
-12.05
-9.30
-6.04
-2.54
0.97
4.18
6.76
8.40
8.94
8.41
7.04
5.15
3.12
1.25
-0.22
-1.19
-1.72
-2.00
-2.26
-2.71
-3.38
-4.16
-4.88
-5.38
-5.61
-5.65
-5.62
-5.69
-6.02
-6.78
-8.08
-9.97
-12.28
-14.59
-16.29
-16.74
-15.46
-12.31
-7.53
-1.69
4.51
10.42
15.61
20.01
23.75
27.08
30.09
32.57
34.06
34.05
32.29
28.99
24.80
20.56
16.93
14.17
12.09
10.28
8.31
6.01
3.43
0.78
-1.78
-4.26
-6.76
-9.46
-12.44
-15.71
-19.19
-22.77
-26.23
-29.29
-31.58
-32.64
-32.05
-29.58
-25.24
-19.35
-12.48
-5.34
1.35
7.06
11.46
14.48
16.24
16.96
16.84
16.09
14.87
13.38
11.90
10.71
9.99
9.75
9.81
9.86
9.59
8.86
7.66
6.15
4.51
2.85
1.18
-0.61
-2.67
-5.12
-8.01
-11.33
-14.97
-18.73
-22.26
-25.08
-26.61
-26.31
-23.88
-19.37
-13.30
-6.42
0.38
6.44
11.36
15.08
17.68
19.32
20.10
20.06
19.21
17.66
15.60
13.29
10.99
8.89
7.07
5.51
4.11
2.78
1.42
0.02
-1.38
-2.77
-4.13
-5.53
-7.03
-8.68
-10.50
-12.50
-14.74
-17.30
-20.16
-23.14
-25.79
-27.47
-27.52
-25.49
-21.34
-15.49
-8.68
-1.71
4.76
10.28
14.65
17.78
19.67
20.36
20.02
18.96
17.58
16.26
15.21
14.43
13.78
13.02
12.05
10.87
9.57
8.26
6.93
5.51
3.93
2.20
0.40
-1.33
-2.99
-4.70
-6.72
-9.32
-12.66
-16.60
-20.77
-24.51
-27.08
-27.82
-26.32
-22.58
-17.02
-10.39
-3.56
2.70
7.92
11.94
14.88
16.94
18.27
18.93
18.90
18.19
16.90
15.29
13.66
12.32
11.38
10.83
10.45
10.01
9.33
8.33
7.01
5.43
3.63
1.66
-0.43
-2.57
-4.72
-6.92
-9.26
-11.95
-15.11
-18.77
-22.67
-26.29
-28.92
-29.82
-28.49
-24.80
-19.10
-12.10
-4.66
2.46
8.73
13.86
17.72
20.29
21.59
21.73
20.95
19.56
17.90
16.25
14.72
13.38
12.24
11.34
10.73
10.35
10.06
9.61
8.77
7.44
5.69
3.71
1.76
-0.01
-1.60
-3.11
-4.70
-6.55
-8.82
-11.57
-14.77
-18.22
-21.47
-23.96
-25.06
-24.29
-21.48
-16.78
-10.68
-3.88
2.90
9.03
14.07
17.77
20.11
21.15
21.09
20.14
18.53
16.51
14.34
12.32
10.64
9.41
8.58
7.97
7.36
6.55
5.44
4.06
2.48
0.82
-0.82
-2.40
-3.90
-5.35
-6.82
-8.43
-10.38
-12.81
-15.77
-19.12
-22.50
-25.32
-26.89
-26.64
-24.25
-19.76
-13.61
-6.51
0.74
7.39
12.91
17.08
19.93
21.64
22.42
22.48
21.95
20.96
19.65
18.17
16.69
15.37
14.30
13.51
12.93
12.46
11.93
11.16
10.02
8.42
6.40
4.08
1.65
-0.70
-2.79
-4.63
-6.38
-8.31
-10.77
-13.95
-17.80
-21.86
-25.37
-27.44
-27.35
-24.77
-19.88
-13.29
-5.87
1.52
8.18
13.63
17.71
20.44
22.02
22.74
22.85
22.51
21.81
20.73
19.28
17.56
15.77
14.16
12.97
12.28
12.01
11.85
11.45
10.49
8.87
6.71
4.27
1.86
-0.35
-2.37
-4.30
-6.31
-8.52
-11.03
-13.93
-17.25
-20.93
-24.64
-27.73
-29.39
-28.91
-25.98
-20.85
-14.27
-7.22
-0.62
4.93
9.18
12.12
13.88
14.65
14.59
13.91
12.84
11.56
10.21
8.88
7.60
6.37
5.17
3.99
2.82
1.68
0.68
-0.08
-0.59
-0.91
-1.26
-1.85
-2.85
-4.24
-5.88
-7.57
-9.20
-10.80
-12.54
-14.55
-16.84
-19.19
-21.19
-22.30
-22.02
-19.99
-16.14
-10.72
-4.25
2.58
9.03
14.52
18.68
21.38
22.67
22.75
21.87
20.32
18.43
16.52
14.87
13.61
12.79
12.30
12.04
11.88
11.75
11.57
11.24
10.68
9.79
8.58
7.08
5.40
3.61
1.77
-0.11
-2.12
-4.32
-6.80
-9.66
-12.88
-16.26
-19.35
-21.48
-21.98
-20.42
-16.80
-11.68
-5.83
-0.13
4.82
8.74
11.65
13.69
15.02
15.67
15.69
15.10
14.04
12.73
11.38
10.16
9.14
8.29
7.59
7.00
6.54
6.24
6.12
6.11
6.03
5.64
4.76
3.32
1.43
-0.65
-2.65
-4.40
-5.91
-7.42
-9.21
-11.51
-14.31
-17.34
-20.04
-21.75
-21.87
-20.08
-16.41
-11.26
-5.28
0.79
6.34
10.96
14.44
16.72
17.86
18.00
17.36
16.23
14.88
13.55
12.33
11.21
10.10
8.93
7.72
6.54
5.47
4.53
3.64
2.68
1.50
0.01
-1.73
-3.60
-5.48
-7.24
-8.83
-10.31
-11.81
-13.54
-15.69
-18.33
-21.38
-24.48
-27.06
-28.38
-27.80
-24.96
-20.01
-13.53
-6.41
0.42
6.25
10.72
13.80
15.69
16.66
16.93
16.62
15.89
14.88
13.77
12.69
11.73
10.88
10.11
9.36
8.65
7.98
7.33
6.63
5.77
4.65
3.24
1.60
-0.13
-1.82
-3.36
-4.74
-6.03
-7.37
-8.92
-10.84
-13.20
-15.88
-18.51
-20.48
-21.12
-19.91
-16.68
-11.80
-6.00
-0.14
5.09
9.33
12.58
15.01
16.81
18.06
18.71
18.73
18.14
17.11
15.85
14.56
13.34
12.23
11.18
10.18
9.23
8.41
7.76
7.28
6.83
6.24
5.38
4.22
2.88
1.54
0.31
-0.79
-1.83
-2.96
-4.30
-5.99
-8.08
-10.59
-13.43
-16.27
-18.55
-19.62
-18.93
-16.34
-12.16
-7.11
-2.04
2.36
5.74
8.10
9.61
10.45
10.79
10.70
10.25
9.54
8.72
7.96
7.34
6.84
6.32
5.62
4.70
3.63
2.58
1.82
1.46
1.45
1.52
1.31
0.52
-0.90
-2.80
-4.86
-6.70
-8.15
-9.31
-10.55
-12.35
-15.06
-18.64
-22.69
-26.51
-29.20
-30.04
-28.77
-25.64
-21.32
-16.61
-12.11
-8.13
-4.71
-1.50
1.71
4.87
7.52
9.04
8.98
7.37
4.81
2.26
1.17
3.06
9.30
20.82
37.77
59.16
83.07
106.91
125.46
134.52
132.21
120.01
102.16
83.79
68.62
58.15
51.87
48.24
45.87
43.68
41.05
37.79
34.17
30.77
28.43
27.82
29.00
31.52
34.17
35.33
33.03
26.19
13.33
-4.74
-24.26
-39.13
-42.95
-32.41
-9.19
19.91
45.36
58.71
56.31
40.16
16.30
-8.31
-29.10
-44.13
-53.15
-55.98
-51.79
-39.58
-19.80
4.43
29.01
47.74
56.11
53.35
42.59
28.87
16.56
7.34
0.00
-8.18
-20.61
-38.52
-60.73
-84.85
-108.89
-132.29
-155.59
-179.19
-202.15
-223.58
-241.52
-254.17
-260.60
-261.12
-256.81
-248.80
-237.81
-216.92
-183.60
-139.78
-91.65
-46.82
-10.90
14.09
29.09
36.38
38.48
36.15
30.22
22.14
14.19
9.17
9.69
17.43
30.90
48.22
64.61
74.68
74.56
63.92
46.33
27.80
14.23
9.06
12.57
21.67
32.73
43.50
53.74
64.14
74.83
84.41
90.19
89.87
82.06
67.60
49.05
29.74
12.11
-3.05
-16.27
-28.61
-40.51
-51.92
-61.76
-68.55
-71.02
-69.24
-64.74
-59.78
-56.41
-55.50
-56.92
-59.14
-60.05
-57.60
-51.25
-42.17
-32.03
-21.93
-11.53
0.07
14.04
30.54
49.04
68.04
83.92
94.04
97.26
97.96
98.72
101.13
104.46
110.52
122.64
143.71
174.04
209.87
244.06
268.26
277.17
265.50
235.10
193.54
150.42
113.37
85.35
65.28
50.05
37.26
27.92
21.43
15.52
6.25
-10.71
-38.28
-76.18
-120.80
-165.73
-202.88
-224.99
-228.55
-215.07
-190.05
-160.39
-131.63
-106.53
-85.18
-66.39
-49.24
-33.79
-21.06
-12.18
-7.44
-5.96
-6.05
-5.80
-3.84
0.22
6.02
12.75
19.58
26.10
32.41
38.88
45.71
52.57
58.69
63.48
66.82
68.99
70.24
70.17
67.66
61.47
51.08
37.37
22.52
9.11
-1.15
-8.29
-14.07
-20.99
-30.92
-44.14
-59.14
-73.63
-85.69
-94.82
-101.97
-108.85
-116.68
-125.32
-133.17
-137.87
-137.35
-130.72
-118.28
-101.32
-81.45
-60.37
-39.76
-21.35
-6.72
3.04
7.74
8.20
5.92
2.66
-0.06
-1.17
-0.10
3.34
8.94
16.11
24.03
31.92
39.26
46.03
52.71
59.85
67.63
75.48
82.16
86.04
85.78
80.80
71.65
59.75
47.02
35.17
25.23
17.39
11.19
5.96
1.22
-3.24
-7.39
-11.35
-15.43
-20.07
-25.51
-31.62
-37.89
-43.73
-48.88
-53.64
-58.60
-64.19
-70.18
-75.60
-79.25
-80.40
-79.36
-77.33
-75.52
-74.10
-71.63
-65.61
-53.81
-35.72
-13.09
10.77
32.78
51.47
67.35
82.04
96.78
111.18
123.10
129.72
129.50
123.36
114.34
105.63
98.43
91.05
80.26
64.08
44.16
25.65
14.29
12.60
17.64
22.22
18.94
4.72
-17.38
-39.98
-55.69
-61.17
-58.15
-51.10
-43.84
-37.57
-30.96
-22.18
-11.01
0.60
9.47
12.94
10.27
2.75
-7.10
-16.65
-24.13
-29.01
-31.78
-33.46
-34.98
-36.70
-38.12
-37.99
-34.75
-27.20
-15.08
0.84
18.92
37.22
53.91
67.47
76.72
80.82
79.19
71.69
58.86
42.01
23.05
4.18
-12.60
-25.92
-35.17
-40.51
-42.68
-42.72
-41.69
-40.53
-39.96
-40.48
-42.43
-45.96
-50.93
-56.88
-63.06
-68.42
-71.93
-72.77
-70.50
-65.15
-57.17
-47.30
-36.44
-25.52
-15.35
-6.53
0.64
6.22
10.56
14.09
17.09
19.54
21.15
21.52
20.45
18.03
14.57
10.53
6.25
1.99
-2.12
-5.95
-9.37
-12.27
-14.63
-16.59
-18.31
-19.99
-21.66
-23.21
-24.52
-25.46
-25.90
-25.67
-24.53
-22.14
-18.25
-12.80
-6.03
1.55
9.33
16.74
23.40
29.10
33.81
37.50
40.18
41.83
42.49
42.30
41.46
40.26
38.90
37.53
36.22
34.96
33.69
32.33
30.86
29.31
27.72
26.14
24.61
23.19
21.86
20.61
19.32
17.83
15.92
13.39
10.13
6.24
2.02
-1.99
-5.17
-6.98
-7.04
-5.29
-2.00
2.35
7.08
11.56
15.28
17.99
19.74
20.71
21.11
21.03
20.41
19.15
17.24
14.86
12.41
10.32
8.93
8.39
8.65
9.57
11.00
12.81
14.88
17.09
19.28
21.39
23.42
25.46
27.58
29.78
31.86
33.55
34.59
34.96
34.99
35.29
36.61
39.54
44.27
50.49
57.42
64.11
69.65
73.41
75.00
74.35
71.63
67.26
61.97
56.74
52.61
50.42
50.50
52.54
55.70
58.83
60.81
60.69
57.79
51.64
42.03
29.16
13.74
-3.02
-19.62
-34.70
-47.45
-57.79
-66.31
-73.94
-81.49
-89.44
-97.75
-106.04
-113.73
-120.10
-124.55
-126.60
-126.06
-123.04
-117.99
-111.54
-104.29
-96.69
-88.93
-81.02
-72.93
-64.65
-56.30
-48.17
-40.70
-34.34
-29.46
-26.07
-23.73
-21.57
-18.58
-13.97
-7.52
0.33
8.69
16.55
23.20
28.33
32.09
34.86
37.12
39.29
41.50
43.43
44.26
42.99
38.87
31.99
23.48
15.23
9.10
6.11
6.02
7.60
9.45
10.80
11.91
13.84
17.95
25.51
37.45
54.38
76.28
102.09
129.34
154.36
173.19
182.82
182.22
172.83
158.01
142.04
128.82
120.73
118.01
118.84
119.98
117.84
109.45
92.80
66.82
31.21
-13.41
-64.57
-116.97
-162.49
-192.01
-198.79
-181.84
-147.31
-106.69
-72.58
-54.02
-53.74
-68.54
-92.14
-118.71
-145.01
-170.44
-195.42
-219.62
-241.03
-256.47
-262.98
-259.34
-246.50
-227.22
-204.97
-182.63
-161.68
-141.87
-121.78
-99.73
-74.65
-46.52
-16.53
13.24
40.32
62.36
77.74
86.04
88.29
86.87
85.02
85.98
92.10
104.38
122.38
144.52
168.54
191.85
211.80
226.16
233.52
233.57
226.90
214.34
196.21
172.31
142.38
107.25
69.47
33.21
3.11
-17.20
-26.31
-25.35
-17.25
-5.70
6.06
15.80
22.52
26.06
26.85
25.48
22.56
18.71
14.63
11.14
9.05
8.88
10.61
13.56
16.46
17.83
16.33
11.08
1.89
-10.63
-25.13
-39.61
-51.95
-60.45
-64.33
-63.88
-60.17
-54.65
-48.71
-43.70
-40.90
-41.59
-46.72
-56.58
-70.45
-86.68
-103.19
-118.08
-130.28
-139.55
-146.32
-151.14
-154.35
-155.88
-155.30
-151.94
-144.98
-133.71
-117.66
-96.94
-72.31
-45.21
-17.50
9.01
32.88
53.49
71.19
87.27
103.52
121.62
142.34
164.94
187.03
205.05
215.18
214.54
202.09
178.79
147.09
110.03
70.61
31.60
-4.29
-34.24
-55.64
-66.85
-68.04
-61.33
-50.24
-38.41
-28.48
-21.52
-17.28
-15.00
-14.06
-14.18
-15.22
-16.76
-17.98
-17.99
-16.27
-13.04
-9.14
-5.62
-3.19
-1.86
-1.07
-0.04
1.82
4.70
8.42
12.60
16.76
20.30
22.57
22.93
21.15
17.75
14.04
11.67
11.82
14.57
18.79
22.69
24.77
24.49
22.49
20.15
18.87
19.43
21.82
25.32
28.92
31.59
32.50
31.11
27.16
20.73
12.31
2.81
-6.53
-14.30
-19.36
-21.15
-19.99
-17.05
-14.04
-12.66
-14.10
-18.72
-25.95
-34.56
-42.90
-49.24
-52.13
-50.63
-44.62
-34.88
-23.02
-11.07
-0.85
6.52
10.89
12.96
13.70
13.88
13.78
13.28
12.21
10.73
9.34
8.62
8.88
9.95
11.30
12.41
13.02
13.22
13.28
13.41
13.45
12.86
10.85
6.61
-0.45
-10.37
-22.67
-36.40
-50.39
-63.50
-74.81
-83.70
-89.69
-92.40
-91.50
-86.81
-78.49
-67.01
-53.13
-37.65
-21.33
-4.82
11.29
26.34
39.63
50.55
58.77
64.41
68.01
70.31
71.99
73.33
74.10
73.73
71.62
67.49
61.51
54.29
46.46
38.48
30.41
22.12
13.51
4.60
-4.36
-13.16
-21.71
-29.97
-37.76
-44.57
-49.54
-51.62
-50.18
-45.24
-37.60
-28.63
-19.67
-11.72
-5.11
0.29
4.78
8.53
11.47
13.31
13.75
12.63
10.02
6.30
2.08
-1.91
-5.04
-6.94
-7.68
-7.70
-7.60
-7.89
-8.75
-10.05
-11.46
-12.76
-13.90
-14.95
-16.01
-17.02
-17.92
-18.71
-19.65
-21.10
-23.37
-26.35
-29.41
-31.57
-31.91
-30.02
-26.18
-21.30
-16.35
-12.14
-8.88
-6.41
-4.40
-2.67
-1.31
-0.60
-0.79
-1.89
-3.74
-6.07
-8.76
