1675144125.00
64.000000
-0.00
-0.00
-0.00
-0.00
-0.00
-0.00
-0.00
-0.00
-0.00
-0.00
0.00
0.01
0.01
-0.00
-0.03
-0.05
-0.05
0.00
0.13
0.36
0.66
1.01
1.37
1.72
2.06
2.40
2.79
3.24
3.80
4.42
5.06
5.66
6.20
6.68
7.15
7.68
8.31
9.14
10.09
11.04
11.88
12.56
13.14
13.76
14.65
15.96
17.91
20.32
22.90
25.38
27.58
29.57
31.68
34.32
37.81
42.54
48.15
54.10
59.83
64.97
69.58
74.14
79.34
85.71
93.76
103.00
112.62
121.73
129.77
136.75
143.30
150.75
157.77
166.64
177.95
191.79
206.97
220.57
228.25
225.36
208.53
176.87
132.76
80.05
23.07
-34.94
-92.44
-149.16
-205.23
-260.37
-313.74
-363.87
-409.83
-450.91
-486.50
-515.74
-537.23
-549.22
-549.96
-538.37
-514.21
-478.67
-433.88
-382.45
-327.02
-269.84
-212.63
-156.66
-102.95
-52.37
-5.90
35.58
71.43
101.35
125.50
144.38
158.69
169.15
176.37
180.75
182.57
182.07
179.51
175.23
169.65
163.18
156.15
148.81
141.30
133.69
126.02
118.33
110.69
103.16
95.80
88.68
81.83
75.25
68.95
62.95
57.25
51.86
46.78
42.03
37.59
33.45
29.61
26.07
22.81
19.83
17.11
14.67
12.48
10.54
8.83
7.35
6.07
4.97
4.05
3.27
2.62
2.09
1.65
1.30
1.01
0.79
0.61
0.48
0.37
0.28
0.22
0.17
0.14
0.11
0.10
0.09
0.08
0.09
0.09
0.11
0.13
0.15
0.18
0.21
0.25
0.29
0.33
0.37
0.42
0.47
0.51
0.56
0.61
0.66
0.71
0.77
0.83
0.91
1.00
1.10
1.20
1.29
1.38
1.46
1.54
1.65
1.81
2.00
2.23
2.48
2.75
3.01
3.28
3.57
3.90
4.29
4.73
5.22
5.74
6.26
6.77
7.28
7.82
8.43
9.14
9.95
10.83
11.72
12.55
13.28
13.93
14.57
15.30
16.18
17.15
18.08
18.70
18.76
18.05
16.49
14.16
11.22
7.82
4.03
-0.21
-4.98
-10.31
-16.10
-22.05
-27.71
-32.63
-36.51
-39.24
-40.99
-42.02
-42.63
-43.05
-43.57
-44.50
-46.01
-47.92
-49.49
-49.51
-46.69
-40.44
-31.31
-20.85
-11.11
-3.71
0.76
2.91
3.90
4.77
5.92
7.34
8.97
11.03
14.06
18.36
23.58
28.58
31.87
32.26
29.54
24.63
19.05
14.27
11.04
9.38
8.71
8.30
7.72
6.90
6.05
5.33
4.66
3.61
1.58
-1.96
-7.16
-13.66
-20.46
-26.19
-29.55
-29.69
-26.46
-20.36
-12.26
-2.73
7.25
16.74
25.05
31.75
36.78
40.44
43.43
46.65
50.91
56.49
63.16
70.29
77.15
83.31
88.81
94.06
99.46
105.05
110.44
115.06
118.51
120.69
121.85
122.38
122.60
122.61
122.38
121.87
121.28
121.07
121.82
124.07
128.04
133.45
139.51
145.07
148.89
149.95
147.71
142.14
133.52
122.27
108.74
93.35
76.80
60.21
45.15
33.40
26.56
25.75
31.44
43.43
60.81
81.91
104.17
124.35
138.92
144.90
140.71
126.70
104.97
78.54
50.32
22.26
-4.99
-31.76
-58.74
-86.53
-115.41
-145.32
-175.97
-206.85
-237.13
-265.62
-290.87
-311.56
-326.87
-336.66
-341.44
-341.96
-338.84
-332.40
-322.84
-310.54
-296.17
-280.65
-264.68
-248.34
-231.03
-211.69
-189.43
-163.98
-136.04
-107.10
-78.94
-53.08
-30.28
-10.43
7.31
24.20
41.38
59.53
78.47
97.10
113.65
126.25
133.72
136.25
135.50
134.10
134.83
139.67
149.24
162.76
178.55
194.69
209.73
222.74
233.12
240.01
242.10
237.71
225.46
204.90
176.93
143.53
107.10
69.57
31.76
-6.58
-46.09
-86.96
-128.43
-169.00
-207.58
-244.47
-281.87
-322.79
-368.48
-416.12
-457.92
-483.45
-483.81
-455.91
-404.02
-337.62
-267.17
-200.45
-141.86
-94.04
-59.88
-42.44
-42.40
-55.19
-70.29
-74.32
-56.54
-13.52
49.95
124.11
199.34
269.77
333.74
391.36
441.69
480.84
504.17
510.51
501.55
481.64
457.07
433.64
414.89
401.56
391.68
383.19
376.53
372.55
371.52
373.42
377.26
381.18
382.94
378.55
365.68
347.46
326.49
303.42
278.83
252.86
225.25
195.59
158.03
109.23
58.51
11.83
-31.07
-70.28
-106.14
-139.11
-169.72
-210.03
-267.55
-324.52
-370.52
-407.75
-437.61
-461.23
-479.52
-493.22
-521.56
-576.74
-631.05
-668.71
-694.22
-710.85
-721.50
-728.90
-735.59
-768.02
-843.32
-926.26
-996.49
-1059.34
-1118.03
-1174.83
-1231.67
-1136.36
-817.59
-519.17
-330.07
-191.51
-86.01
-1.59
69.66
132.58
189.91
218.82
204.88
185.28
181.96
190.61
208.28
232.07
258.50
283.40
283.44
242.56
186.71
133.99
87.08
53.76
43.06
61.04
108.10
166.79
220.13
275.45
334.36
388.59
433.63
467.91
492.42
510.29
519.60
519.04
516.16
511.38
497.59
470.05
428.63
377.58
323.36
269.43
217.30
170.40
130.14
96.42
70.22
51.96
40.07
30.47
17.91
-1.54
-28.20
-58.02
-83.85
-98.51
-97.64
-81.28
-53.40
-19.82
13.71
42.50
62.92
72.30
69.51
55.86
35.36
13.55
-4.83
-18.19
-28.61
-40.27
-56.70
-78.76
-104.51
-130.81
-155.34
-177.47
-197.57
-215.42
-229.34
-236.61
-235.02
-224.26
-206.23
-184.14
-160.79
-137.51
-113.71
-87.70
-58.28
-26.21
5.24
31.01
46.11
47.96
38.15
22.42
8.91
5.64
18.01
46.99
88.61
134.31
172.25
189.63
176.21
128.17
50.64
-42.53
-132.78
-203.14
-244.44
-258.10
-254.53
-247.99
-250.57
-268.50
-301.49
-344.79
-391.89
-436.28
-471.87
-492.94
-494.49
-473.26
-429.46
-367.42
-294.98
-221.49
-155.32
-101.73
-61.99
-34.26
-15.14
-1.53
8.14
13.71
13.83
7.02
-7.48
-29.20
-56.43
-86.55
-116.80
-144.73
-168.61
-187.37
-200.47
-207.55
-208.27
-202.28
-189.26
-169.20
-142.47
-109.98
-73.06
-33.37
7.32
47.29
85.05
119.41
149.50
174.77
194.86
209.51
218.45
221.43
218.21
208.82
193.55
173.15
148.73
121.58
92.98
63.95
35.29
7.66
-18.17
-41.16
-59.92
-72.99
-79.11
-77.68
-68.91
-53.77
-33.62
-9.68
17.40
47.59
81.31
118.86
159.91
203.26
247.13
289.51
328.81
364.25
395.83
424.31
451.09
478.24
507.95
541.41
577.29
610.63
633.17
635.44
610.06
554.71
473.49
375.78
273.36
177.06
94.64
30.24
-15.07
-42.43
-54.88
-57.34
-56.10
-57.74
-67.13
-85.73
-110.98
-137.18
-157.36
-165.79
-159.73
-140.05
-110.64
-76.94
-44.27
-16.53
4.49
18.88
27.98
33.45
36.60
38.16
38.46
37.75
36.50
35.30
34.70
34.88
35.57
36.21
36.32
35.73
34.65
33.49
32.69
32.36
32.32
32.11
31.31
29.57
26.79
22.97
18.17
12.51
6.12
-0.61
-7.09
-12.52
-16.11
-17.26
-15.75
-11.72
-5.69
1.69
9.71
17.74
25.35
32.30
38.57
44.23
49.32
53.79
57.37
59.78
60.78
60.35
58.75
56.47
54.06
51.95
50.25
48.77
47.08
44.65
41.16
36.67
31.59
26.60
22.30
19.04
16.71
14.85
12.71
9.44
4.40
-2.56
-10.54
-17.52
-20.64
-17.01
-4.90
15.49
41.86
70.61
97.99
121.27
139.25
151.96
160.03
164.04
164.16
160.26
152.20
140.03
124.23
105.75
86.16
67.58
52.44
42.96
40.38
44.32
52.65
61.87
68.23
68.87
62.72
50.54
34.37
16.49
-1.31
-18.13
-33.60
-47.55
-59.62
-69.35
-76.47
-81.16
-84.18
-86.55
-89.20
-92.65
-96.91
-101.60
-106.15
-109.98
-112.59
-113.56
-112.49
-109.10
-103.17
-94.61
-83.58
-70.44
-55.77
-40.30
-24.82
-10.04
3.50
15.48
25.86
34.82
42.71
49.95
56.94
64.08
71.63
79.70
88.26
97.14
106.15
115.15
124.10
133.10
142.24
151.65
161.47
171.88
183.11
195.16
207.33
217.80
223.63
221.34
208.14
183.19
148.21
107.26
65.38
27.06
-5.01
-30.37
-50.23
-66.67
-81.89
-97.96
-116.73
-139.53
-166.41
-195.27
-221.59
-239.42
-243.45
-231.35
-205.17
-170.99
-136.86
-110.10
-95.15
-92.91
-101.46
-117.54
-137.75
-159.20
-179.44
-196.39
-208.32
-214.29
-214.38
-209.70
-202.08
-193.41
-185.07
-177.43
-169.78
-160.48
-147.62
-129.87
-107.19
-81.12
-54.41
-30.08
-10.33
4.14
14.07
21.02
26.51
31.32
35.33
37.82
38.01
35.52
30.62
24.09
17.08
10.70
5.81
2.84
1.81
2.59
5.11
9.60
16.60
26.78
40.58
57.99
78.28
100.12
121.81
141.66
158.28
170.80
178.87
182.49
181.94
177.63
170.25
160.82
150.61
140.90
132.52
125.50
119.12
112.25
104.07
94.54
84.48
75.15
67.50
61.67
56.95
52.11
46.06
38.29
28.99
18.52
7.05
-5.74
-20.48
-37.63
-57.17
-78.73
-101.89
-126.54
-152.46
-178.44
-201.42
-216.61
-218.69
-204.17
-173.31
-130.64
-83.61
-39.94
-5.03
19.32
34.23
42.18
45.22
44.39
40.16
33.49
26.50
22.28
23.76
32.36
46.99
64.09
78.74
86.63
85.70
77.20
65.21
55.10
51.36
55.81
66.88
80.18
90.25
92.56
84.98
68.09
44.36
16.84
-11.76
-39.20
-63.03
-80.20
-87.56
-83.41
-69.24
-50.28
-34.22
-28.25
-36.28
-57.79
-88.96
-124.76
-160.57
-192.27
-215.44
-224.91
-216.03
-187.12
-141.49
-87.56
-36.31
2.49
23.42
26.33
15.25
-3.71
-24.25
-40.76
-48.95
-46.39
-33.25
-12.61
10.39
30.07
41.91
43.43
34.30
16.02
-8.19
-33.38
-53.24
-61.55
-54.60
-33.25
-3.50
25.42
44.70
49.58
40.90
23.98
5.52
-9.39
-18.60
-22.29
-21.18
-15.29
-4.04
12.69
33.36
54.73
72.86
84.79
89.63
88.51
83.50
76.03
66.17
52.93
35.52
14.72
-6.67
-24.69
-36.05
-39.94
-38.66
-36.61
-37.84
-43.70
-51.86
-57.35
-55.06
-42.33
-20.08
7.89
36.82
62.98
84.39
100.27
110.05
112.90
108.10
95.98
78.33
57.83
36.65
15.18
-8.21
-36.10
-70.04
-109.09
-149.88
-187.94
-219.87
-244.78
-264.18
-280.21
-293.41
-301.49
-300.17
-285.58
-256.75
-216.64
-170.85
-124.85
-81.13
-38.24
8.01
61.98
125.70
197.64
272.97
344.61
404.71
446.06
463.81
457.24
431.11
395.38
362.58
343.41
342.49
356.54
376.00
389.28
387.65
368.19
333.65
289.79
242.23
194.29
146.89
99.78
52.92
6.86
-37.80
-81.14
-124.04
-167.16
-209.55
-247.87
-276.95
-291.75
-289.79
-272.99
-247.91
-223.88
-209.72
-210.44
-225.30
-248.20
-270.19
-282.95
-281.59
-265.60
-237.71
-201.59
-159.92
-113.66
-62.92
-8.61
46.39
97.32
138.64
165.66
175.75
168.60
145.97
111.41
70.33
29.92
-1.56
-16.93
-12.78
8.35
37.74
63.04
72.50
59.45
24.50
-25.17
-79.08
-127.36
-163.53
-185.37
-193.98
-192.27
-183.62
-171.22
-157.85
-145.67
-135.97
-128.84
-123.30
-117.66
-110.18
-99.86
-86.87
-72.49
-58.67
-47.37
-39.90
-36.53
-36.47
-38.02
-39.27
-38.68
-35.51
-29.99
-23.09
-16.13
-10.25
-6.08
-3.67
-2.61
-2.29
-2.18
-2.02
-1.85
-1.92
-2.44
-3.45
-4.77
-6.12
-7.27
-8.17
-8.89
-9.43
-9.61
-9.04
-7.31
-4.23
0.01
4.84
9.63
13.83
17.21
19.77
21.57
22.65
22.94
22.36
20.86
18.54
15.67
12.58
9.66
7.25
5.55
4.60
4.31
4.48
4.99
5.74
6.74
8.06
9.89
12.61
16.84
23.39
32.98
45.82
61.21
77.37
91.71
101.34
103.90
98.20
84.60
64.77
41.19
16.33
-7.71
-29.42
-47.49
-60.55
-67.24
-66.70
-59.28
-46.78
-32.03
-17.81
-5.83
3.73
11.69
18.93
25.54
30.63
32.99
31.94
27.84
22.05
16.30
11.90
9.43
8.76
9.35
10.66
12.27
13.83
15.11
15.90
16.10
15.70
14.85
13.73
12.54
11.36
10.17
8.88
7.44
5.97
4.87
4.88
6.85
11.62
19.83
31.74
47.20
65.48
85.30
104.90
122.33
135.92
144.64
148.28
147.32
142.54
134.59
123.76
110.05
93.45
74.15
52.72
30.07
7.37
-13.96
-32.30
-46.06
-54.01
-55.64
-51.47
-43.01
-32.39
-21.80
-12.86
-6.31
-2.12
0.16
0.71
-0.86
-5.62
-14.87
-29.40
-48.90
-71.52
-94.24
-113.51
-126.34
-131.08
-127.86
-118.28
-104.73
-89.60
-74.67
-60.86
-48.45
-37.44
-27.82
-19.68
-13.03
-7.57
-2.63
2.72
9.26
17.28
26.42
35.71
44.00
50.37
54.47
56.64
57.68
58.49
59.60
61.01
62.18
62.35
60.90
57.67
53.03
47.83
43.05
39.52
37.62
37.16
37.52
37.96
37.95
37.48
37.11
37.71
40.08
44.72
51.69
60.69
71.24
82.73
94.36
105.13
113.89
119.61
121.59
119.53
113.38
102.94
87.61
66.58
39.27
6.05
-31.35
-69.87
-105.88
-136.11
-158.41
-171.93
-176.74
-173.29
-162.18
-144.45
-122.11
-98.41
-77.33
-62.40
-55.44
-55.87
-61.06
-67.66
-72.81
-75.10
-74.35
-71.01
-65.40
-57.46
-46.96
-33.84
-18.53
-1.86
15.07
31.10
45.14
56.37
64.32
69.07
71.20
71.56
70.83
69.10
65.59
58.93
47.76
31.53
10.95
-11.98
-34.61
-54.37
-69.46
-79.06
-83.07
-81.88
-76.02
-66.18
-53.29
-38.58
-23.35
-8.57
5.37
18.72
31.73
43.86
53.24
56.79
51.36
35.32
9.98
-20.24
-48.91
-70.02
-80.32
-80.62
-75.21
-69.69
-68.25
-71.96
-78.72
-84.88
-87.38
-85.17
-79.17
-71.07
-61.92
-51.52
-38.94
-23.71
-6.79
9.47
22.37
30.32
33.56
33.75
32.70
31.05
28.02
22.32
13.73
4.11
-2.86
-3.22
5.23
21.60
42.08
61.42
74.91
79.87
76.01
64.77
48.37
29.08
9.10
-9.24
-23.49
-31.49
-32.13
-25.94
-15.14
-2.79
8.40
17.07
23.49
28.77
33.72
37.85
39.44
36.59
28.86
18.11
8.14
2.96
4.64
12.06
21.27
27.28
26.40
17.67
2.76
-15.37
-34.19
-52.51
-70.06
-86.42
-100.07
-108.48
-109.19
-101.31
-86.26
-67.33
-48.20
-31.46
-17.90
-7.07
1.37
6.68
7.18
1.61
-9.32
-22.27
-32.20
-34.57
-27.52
-12.82
5.04
20.94
31.36
35.57
35.23
33.10
31.56
31.84
34.20
38.47
44.62
52.77
62.74
73.74
84.26
92.49
96.87
96.63
91.80
82.87
70.38
54.74
36.44
16.49
-3.53
-21.91
-37.70
-51.44
-65.33
-82.41
-105.36
-135.08
-169.99
-206.13
-238.21
-261.11
-271.35
-267.97
-252.58
-228.59
-199.90
-169.78
-140.04
-111.06
-82.22
-52.54
-21.16
12.36
47.84
84.26
119.60
151.22
176.76
195.30
208.03
217.92
228.28
241.09
255.90
270.12
280.36
284.25
281.55
274.13
265.02
256.99
251.44
247.87
244.00
236.40
221.35
196.01
159.54
114.05
64.55
17.85
-19.48
-43.28
-53.10
-52.01
-45.16
-37.76
-33.34
-33.05
-35.85
-39.52
-41.66
-40.52
-35.45
-26.87
-16.07
-4.88
4.87
11.72
14.91
14.33
10.42
4.02
-3.63
-10.93
-16.16
-18.08
-16.42
-12.29
-7.74
-5.00
-5.36
-8.48
-12.26
-13.36
-8.22
5.71
28.82
58.90
91.60
121.69
144.91
159.10
164.48
162.70
155.42
143.43
126.75
105.46
80.46
53.60
26.72
0.72
-24.84
-51.02
-78.22
-105.41
-130.48
-151.79
-169.64
-186.88
-207.90
-236.54
-273.74
-316.17
-356.48
-385.17
-393.74
-377.67
-338.34
-282.91
-222.09
-166.71
-124.42
-97.70
-83.77
-76.26
-67.85
-52.90
-29.29
1.17
33.49
61.40
79.27
83.69
73.74
50.32
15.08
-29.98
-81.98
-136.07
-184.93
-219.92
-233.70
-223.18
-191.18
-145.58
-96.47
-52.47
-18.26
5.84
22.38
34.52
44.08
51.09
54.41
52.96
46.78
37.33
26.92
17.80
11.13
6.72
3.32
-0.53
-5.67
-11.96
-18.49
-24.29
-28.90
-32.61
-36.20
-40.27
-44.80
-48.95
-51.45
-51.10
-47.27
-40.17
-30.69
-20.14
-9.76
-0.47
7.27
13.46
18.28
21.95
24.62
26.40
27.47
28.14
28.76
29.66
30.94
32.45
33.91
35.00
35.57
35.66
35.50
35.29
35.09
34.70
33.71
31.75
28.66
24.69
20.40
16.49
13.45
11.31
9.60
7.57
4.50
0.07
-5.53
-11.66
-17.41
-21.88
-24.26
-23.88
-20.27
-13.27
-3.05
9.89
25.05
42.41
62.70
87.17
116.78
151.06
187.40
221.10
246.49
258.60
254.65
234.72
201.46
159.26
113.20
68.31
29.12
-0.82
-19.42
-26.56
-24.14
-15.51
-4.47
5.90
13.82
18.78
20.98
20.69
17.92
12.54
4.58
-5.49
-16.90
-28.87
-40.95
-53.10
-65.44
-77.87
-89.70
-99.73
-106.59
-109.22
-107.29
-101.21
-92.04
-81.01
-69.21
-57.38
-45.89
-34.87
-24.36
-14.49
-5.46
2.46
9.03
14.18
18.04
21.01
23.59
26.23
29.09
32.07
34.85
37.15
38.86
40.14
41.32
42.64
44.10
45.35
45.79
44.85
42.28
38.24
33.35
28.39
24.07
20.82
18.70
17.47
16.69
15.93
14.84
13.28
11.32
9.26
7.56
6.75
7.16
8.76
11.00
12.98
13.61
12.14
8.31
2.47
-4.66
-12.24
-19.64
-26.52
-32.73
-38.18
-42.65
-45.74
-46.88
-45.41
-40.69
-32.34
-20.41
-5.61
10.77
26.97
41.23
52.19
59.17
62.21
61.88
59.05
54.59
49.27
43.72
38.37
33.49
29.01
24.51
19.14
11.79
1.34
-13.07
-31.63
-53.67
-77.45
-100.32
-119.15
-131.02
-134.04
-127.89
-113.89
-94.57
-72.84
-51.18
-31.18
-13.44
2.03
15.40
26.77
36.09
43.33
48.60
52.23
54.70
56.56
58.22
59.86
61.36
62.38
62.66
62.23
61.56
61.46
62.72
65.72
70.12
74.97
79.07
81.49
81.95
80.87
79.19
77.89
77.73
78.97
81.32
83.78
84.55
81.21
71.22
52.76
25.68
-8.06
-44.67
-79.42
-107.94
-127.23
-136.21
-135.62
-127.51
-114.68
-99.99
-85.86
-73.93
-64.84
-58.30
-53.38
-48.94
-44.04
-38.29
-32.08
-26.63
-23.67
-24.87
-30.90
-40.78
-51.73
-59.82
-61.26
-53.72
-37.08
-13.25
14.47
42.36
66.99
85.64
96.59
99.28
94.37
83.47
68.55
51.26
32.45
12.22
-9.48
-32.30
-55.28
-77.08
-96.60
-113.22
-126.68
-136.50
-141.60
-140.41
-131.57
-114.70
-90.95
-62.67
-32.73
-3.66
22.78
45.49
63.72
76.79
84.36
86.63
84.62
79.95
74.39
69.34
65.54
63.16
61.89
61.15
60.04
57.38
51.83
42.19
27.85
9.10
-12.76
-35.66
-57.16
-74.94
-87.14
-92.51
-90.53
-81.46
-66.52
-48.00
-29.04
-13.21
-3.49
-1.42
-6.43
-16.00
-26.41
-34.05
-36.67
-33.98
-27.59
-20.20
-14.56
-12.56
-14.78
-20.49
-27.83
-34.42
-37.80
-36.04
-28.22
-14.62
3.42
24.02
45.23
65.53
83.94
99.76
112.37
121.08
125.19
124.12
117.51
105.46
88.71
68.81
47.74
27.36
8.38
-10.06
-29.95
-53.09
-79.54
-106.69
-129.82
-143.87
-145.62
-135.00
-114.96
-90.09
-64.81
-42.27
-24.34
-12.49
-8.75
-15.57
-34.89
-66.59
-107.35
-151.03
-190.45
-220.00
-237.56
-244.94
-246.43
-246.40
-247.17
-248.31
-247.60
-242.83
-233.37
-220.51
-206.64
-193.71
-182.18
-170.93
-158.09
-142.34
-123.87
-104.55
-87.08
-73.90
-66.39
-64.48
-67.05
-72.23
-77.96
-82.18
-83.23
-80.33
-73.90
-65.66
-57.90
-52.37
-49.09
-45.93
-39.20
-25.14
-1.77
30.19
67.41
105.42
140.37
170.64
197.08
222.49
250.36
283.71
324.21
371.48
422.47
471.38
510.58
533.00
535.12
519.01
492.07
464.02
442.54
429.79
421.71
410.29
387.60
349.44
296.97
236.12
175.59
124.24
88.87
72.60
74.09
87.72
105.21
117.94
119.37
106.51
79.88
42.42
-1.93
-49.35
-96.66
-141.37
-181.56
-215.89
-243.60
-264.47
-278.57
-285.98
-286.33
-278.45
-260.43
-229.97
-185.42
-127.25
-59.23
11.41
75.33
123.87
152.08
160.55
155.12
144.24
135.31
131.69
131.71
130.03
120.76
100.78
71.33
37.57
6.11
-18.05
-33.53
-42.77
-50.57
-61.60
-78.67
-102.06
-130.48
-162.29
-196.62
-233.21
-271.32
-308.52
-339.94
-359.04
-359.57
-337.97
-295.32
-237.76
-175.03
-117.54
-73.24
-45.35
-32.42
-30.05
-33.65
-40.43
-49.79
-62.13
-76.99
-91.88
-102.60
-104.91
-96.59
-78.53
-54.44
-29.12
-6.64
10.88
23.13
30.84
34.66
34.66
30.57
22.43
11.19
-1.28
-12.82
-21.77
-27.54
-30.66
-32.12
-32.65
-32.29
-30.43
-26.33
-19.65
-10.78
-0.71
9.32
18.23
25.42
30.75
34.42
36.66
37.71
37.81
37.22
36.31
35.44
34.88
34.64
34.48
34.02
32.84
30.66
27.45
23.49
19.14
14.75
10.43
6.08
1.49
-3.44
-8.51
-13.14
-16.56
-18.07
-17.25
-14.11
-9.08
-2.81
3.99
10.75
17.08
22.83
27.97
32.66
37.02
41.18
45.20
49.02
52.59
55.84
58.76
61.41
63.88
66.24
68.52
70.68
72.60
74.24
75.61
76.89
78.36
80.33
82.94
86.10
89.60
93.16
96.69
100.56
105.50
112.45
122.12
134.43
148.19
161.07
169.97
171.74
163.96
145.49
116.69
79.34
36.40
-8.33
-50.47
-85.69
-110.54
-123.43
-125.22
-118.88
-108.37
-97.06
-86.62
-76.97
-67.13
-56.43
-45.21
-34.73
-26.30
-20.38
-16.33
-12.79
-8.50
-2.95
3.62
10.60
17.57
24.60
32.12
40.61
50.21
60.61
71.17
81.21
90.42
98.84
106.85
114.72
122.21
128.45
132.12
132.00
127.57
119.44
109.24
99.12
91.09
86.37
84.99
85.76
86.56
84.85
78.54
66.67
50.00
30.90
12.67
-1.62
-10.34
-13.88
-14.57
-15.70
-20.38
-30.55
-46.59
-67.51
-91.38
-115.99
-139.18
-159.24
-175.08
-186.51
-194.24
-199.72
-204.76
-210.85
-218.73
-228.13
-237.88
-246.44
-252.40
-254.99
-254.22
-250.86
-245.99
-240.56
-234.92
-228.55
-220.11
-207.85
-190.25
-166.63
-137.50
-104.45
-69.73
-35.67
-4.21
23.33
46.29
64.58
78.60
89.18
97.37
104.19
110.23
115.53
119.66
122.17
122.98
122.58
121.82
121.50
122.00
123.19
124.57
125.54
125.66
124.58
122.10
118.08
112.71
106.63
100.99
97.02
95.54
96.49
99.01
101.92
104.49
106.88
110.20
115.91
125.07
137.70
152.68
168.02
181.42
190.79
194.61
191.90
182.43
166.54
145.15
119.58
91.14
60.67
28.27
-6.52
-43.97
-83.12
-121.12
-153.71
-176.61
-187.48
-187.03
-178.80
-167.38
-156.20
-146.11
-135.64
-122.67
-106.36
-88.09
-70.74
-56.91
-47.29
-40.22
-32.75
-22.41
-8.52
7.60
23.38
36.59
46.40
53.69
60.61
69.48
81.74
97.40
115.01
132.35
147.27
158.49
165.99
171.01
175.53
181.63
190.81
203.54
219.14
235.90
251.53
263.66
270.35
270.23
262.60
247.18
224.15
194.25
158.91
120.37
81.36
44.46
11.39
-17.46
-42.93
-66.67
-90.39
-115.39
-142.18
-170.52
-199.31
-226.51
-249.36
-265.10
-272.09
-270.89
-264.56
-257.71
-254.71
-257.67
-265.41
-274.17
-279.47
-278.35
-270.58
-258.39
-245.00
-232.85
-222.51
-212.70
-201.05
-185.21
-163.67
-136.14
-103.51
-67.53
-30.39
5.74
39.19
68.99
94.96
117.41
136.48
151.75
161.84
164.66
158.18
141.60
116.19
85.31
53.41
24.34
0.10
-19.63
-36.58
-52.60
-68.66
-84.70
-100.39
-115.72
-131.02
-146.08
-159.18
-166.90
-165.13
-150.76
-123.29
-85.27
-41.31
3.67
45.99
83.70
116.11
142.62
161.68
170.87
167.90
152.18
125.88
93.92
62.32
35.72
15.40
-1.26
-19.24
-43.21
-75.18
-113.56
-154.16
-191.95
-222.95
-244.73
-256.15
-256.49
-245.16
-221.92
-187.43
-143.58
-93.24
-39.79
13.54
63.93
109.25
147.78
178.32
199.95
211.87
213.44
204.47
185.77
159.60
129.65
100.21
74.69
54.25
37.33
20.41
-0.30
-27.07
-59.67
-95.48
-130.43
-160.29
-181.61
-192.22
-191.03
-177.87
-153.36
-119.05
-77.62
-32.84
11.04
50.20
82.18
106.57
124.65
138.68
150.70
161.56
170.64
176.16
175.92
168.20
152.38
129.15
100.34
68.41
35.82
4.56
-24.02
-48.98
-69.38
-83.99
-91.55
-91.38
-83.98
-71.22
-55.84
-40.43
-26.61
-14.82
-4.81
3.69
10.54
15.39
18.14
19.42
20.50
22.88
27.74
35.54
45.93
57.85
69.58
78.81
82.96
79.96
68.99
51.01
28.74
5.69
-14.98
-31.46
-43.72
-53.12
-61.61
-70.93
-82.11
-95.47
-110.99
-128.61
-148.47
-170.73
-195.16
-220.43
-244.00
-262.40
-272.33
-271.96
-261.76
-244.37
-223.36
-201.64
-180.13
-157.67
-131.89
-100.73
-63.50
-21.14
24.42
71.23
117.94
163.94
208.92
252.36
293.24
330.04
360.78
383.23
395.27
395.56
384.35
363.87
338.01
310.87
285.03
260.39
234.43
203.79
166.35
122.52
75.03
27.47
-17.51
-59.38
-99.34
-139.17
-179.86
-221.14
-261.78
-300.16
-334.60
-363.13
-383.23
-391.98
-386.82
-366.56
-332.00
-285.92
-232.36
-175.63
-119.62
-67.33
-20.63
20.03
55.84
89.62
125.15
165.92
213.86
268.73
328.25
388.84
446.21
495.75
532.61
552.26
551.49
529.89
490.63
440.05
385.88
334.64
289.60
250.39
214.15
177.71
139.22
98.63
56.92
15.01
-26.93
-69.09
-111.30
-152.49
-190.90
-224.87
-253.47
-276.60
-294.63
-308.04
-317.25
-322.69
-324.87
-324.24
-320.94
-314.69
-304.97
-291.68
-275.47
-257.76
-240.19
-223.96
-209.53
-196.83
-185.72
-176.37
-169.04
-163.52
-158.66
-152.52
-143.05
-128.94
-110.26
-88.63
-66.71
-47.12
-31.40
-19.17
-8.21
4.66
22.24
45.72
74.11
104.64
133.75
158.23
175.92
186.14
189.62
188.28
184.80
181.87
181.20
182.84
184.96
184.72
179.49
168.07
150.85
128.96
103.07
72.71
36.76
-5.14
-51.33
-97.85
-139.58
-172.38
-194.75
-208.30
-216.48
-222.41
-227.08
-228.80
-224.33
-210.91
-188.04
-158.12
-125.71
-96.01
-73.16
-59.51
-55.35
-59.18
-67.84
-76.72
-80.34
-73.49
-52.89
-18.74
24.85
70.79
111.26
140.06
154.41
155.15
145.74
130.60
113.54
97.09
82.61
70.82
62.24
57.34
56.12
57.89
61.21
64.36
65.98
65.68
64.04
62.27
61.55
62.37
64.35
66.39
67.08
65.33
60.77
53.87
45.71
37.56
30.42
24.74
20.38
16.82
13.50
10.06
6.46
2.91
-0.36
-3.27
-6.02
-8.99
-12.50
-16.62
-21.02
-24.96
-27.55
-28.00
-25.94
-21.55
-15.51
-8.79
-2.33
3.19
7.45
10.47
12.48
13.77
14.54
14.88
14.81
14.32
13.43
12.24
10.90
9.58
8.45
7.63
7.11
6.82
6.62
6.43
6.22
6.07
6.00
5.98
5.87
5.52
4.83
3.82
2.64
1.51
0.58
-0.15
-0.80
-1.57
-2.64
-4.08
-5.90
-7.95
-9.99
-11.67
-12.62
-12.49
-11.09
-8.42
-4.66
-0.10
4.94
10.18
15.39
20.38
24.93
28.85
31.93
34.12
35.46
36.13
36.35
36.31
36.20
36.13
36.19
36.40
36.76
37.17
37.60
38.07
38.70
39.58
40.76
42.18
43.69
45.20
46.71
48.37
50.44
53.17
56.70
60.96
65.53
69.64
72.20
71.98
68.11
60.34
49.26
36.12
22.43
9.39
-2.33
-12.66
-21.78
-29.81
-36.63
-41.91
-45.17
-45.96
-43.87
-38.65
-30.32
-19.45
-7.25
4.57
14.13
20.01
21.66
19.55
14.88
9.10
3.34
-1.87
-6.62
-11.34
-16.48
-22.25
-28.53
-34.95
-41.04
-46.41
-50.85
-54.31
-56.86
-58.54
-59.38
-59.49
-59.14
-58.69
-58.48
-58.61
-58.81
-58.50
-56.96
-53.67
-48.51
-41.75
-34.02
-25.97
-18.25
-11.26
-5.26
-0.34
3.56
6.58
8.90
10.65
11.87
12.57
12.72
12.38
11.73
11.04
10.55
10.42
10.62
11.00
11.37
11.56
11.48
11.09
10.38
9.32
7.86
6.04
3.98
1.86
-0.14
-1.92
-3.57
-5.29
-7.37
-10.06
-13.48
-17.55
-22.02
-26.44
-30.24
-32.82
-33.70
-32.58
-29.49
-24.72
-18.81
-12.41
-6.14
-0.43
4.45
8.47
11.72
14.32
16.39
18.01
19.32
20.44
21.50
22.55
23.57
24.48
25.31
26.27
27.70
29.91
32.93
36.39
39.52
41.37
41.12
38.26
32.77
24.99
15.59
5.31
-5.08
-14.92
-23.68
-31.00
-36.71
-40.81
-43.45
-44.86
-45.25
-44.73
-43.32
-40.95
-37.61
-33.39
-28.53
-23.30
-17.91
-12.34
-6.40
0.12
7.29
14.91
22.54
29.62
35.58
39.91
42.28
42.61
41.20
38.72
36.14
34.37
33.89
34.66
36.15
37.82
39.52
41.61
44.80
49.67
56.28
63.97
71.58
77.81
81.58
82.24
79.68
74.21
66.55
57.56
48.04
38.35
28.25
16.86
2.96
-14.37
-35.10
-57.77
-79.48
-96.47
-105.09
-102.87
-89.26
-65.73
-35.20
-1.17
33.13
65.39
94.22
119.00
139.58
156.05
168.58
177.26
181.86
181.75
175.95
163.50
143.96
117.84
86.67
52.68
18.29
-14.50
-44.33
-70.49
-92.73
-111.08
-125.68
-136.79
-144.57
-149.08
-150.23
-148.04
-143.05
-136.69
-131.23
-129.26
-132.78
-142.15
-155.63
-169.67
-179.86
-182.29
-174.76
-157.32
-132.07
-102.35
-71.80
-43.53
-19.83
-2.20
8.43
11.58
7.30
-3.59
-19.44
-37.94
-56.60
-73.18
-86.06
-94.32
-97.58
-95.85
-89.50
-79.31
-66.44
-52.36
-38.50
-26.00
-15.42
-6.83
0.05
5.64
10.37
14.57
18.52
22.37
26.18
29.91
33.47
36.76
39.74
42.41
44.75
46.65
47.94
48.42
48.06
47.14
46.29
46.41
48.42
52.94
60.08
69.33
79.84
90.58
100.78
110.01
118.17
125.26
131.26
135.94
138.96
139.98
138.82
135.58
130.67
124.84
119.02
114.05
110.46
108.13
106.11
102.60
95.29
81.87
60.90
32.34
-2.06
-39.14
-75.02
-106.08
-129.71
-144.68
-150.92
-149.15
-140.49
-126.31
-108.21
-88.20
-68.50
-51.26
-38.05
-29.43
-24.86
-22.92
-21.83
-19.96
-16.16
-9.91
-1.17
9.87
22.97
37.89
54.37
72.01
90.14
107.80
123.72
136.38
144.34
146.67
143.43
135.86
126.18
116.92
110.17
107.01
107.40
110.49
115.01
119.60
122.97
123.74
120.47
111.77
96.61
74.52
45.75
11.16
-27.94
-69.97
-113.08
-155.21
-194.01
-227.07
-252.37
-268.85
-276.89
-278.33
-275.94
-272.57
-270.26
-269.60
-269.56
-267.77
-261.15
-246.93
-223.61
-191.67
-153.77
-114.00
-76.54
-44.34
-18.17
3.13
21.73
39.48
57.18
74.56
90.90
105.86
119.77
133.49
147.81
163.00
178.52
193.30
206.13
216.23
223.63
229.04
233.45
237.44
240.69
241.99
239.80
232.89
220.80
203.85
182.84
158.63
132.14
104.36
76.42
49.33
23.43
-2.03
-28.81
-58.99
-93.77
-132.75
-173.72
-213.31
-248.19
-276.10
-296.46
-310.14
-318.88
-324.33
-327.52
-328.67
-327.55
-323.96
-318.06
-310.23
-300.67
-288.93
-273.78
-253.72
-227.72
-196.03
-160.52
-124.23
-90.35
-61.12
-37.19
-17.66
-0.79
15.01
30.48
45.41
59.10
70.96
80.87
88.81
94.12
95.08
89.11
74.14
50.16
20.23
-10.01
-34.34
-48.35
-51.06
-44.92
-34.27
-23.21
-13.98
-6.63
0.12
7.60
16.24
25.57
34.68
43.00
50.60
57.96
65.49
73.13
80.16
85.64
88.78
89.15
86.65
81.27
72.99
61.94
48.79
34.90
22.11
12.05
5.50
2.24
1.38
2.07
4.00
7.28
11.87
17.06
21.40
23.21
21.47
16.24
8.68
0.51
-6.62
-11.54
-13.75
-13.40
-11.33
-9.02
-8.12
-9.69
-13.54
-17.97
-20.37
-18.45
-11.36
-0.17
12.76
24.84
34.27
40.44
43.60
44.22
42.51
38.46
32.18
24.25
15.88
8.52
3.43
1.33
2.20
5.29
9.23
12.32
12.93
10.22
4.56
-2.28
-7.76
-9.50
-6.32
1.37
11.90
23.27
34.10
43.88
52.62
60.23
66.12
69.66
71.05
72.05
75.79
85.58
103.26
128.13
157.02
185.57
209.98
228.08
239.52
245.12
245.93
242.91
237.02
229.75
223.19
219.41
219.42
222.28
224.81
222.56
211.37
189.03
156.27
116.48
74.58
35.23
1.43
-26.28
-49.57
-71.24
-94.07
-119.75
-148.53
-179.28
-210.04
-238.50
-262.51
-280.48
-291.81
-297.37
-299.76
-303.03
-311.71
-329.18
-355.94
-388.57
-420.04
-441.53
-445.25
-427.02
-387.51
-331.58
-266.18
-197.78
-130.62
-66.33
-4.72
55.04
113.58
171.34
229.03
287.87
349.19
413.01
476.71
534.52
578.67
601.81
599.95
574.06
529.81
475.41
418.45
363.56
311.61
260.89
209.32
156.45
104.12
55.75
14.89
-16.24
-37.29
-49.71
-56.08
-59.53
-63.22
-70.07
-82.39
-101.57
-127.73
-159.71
-195.21
-231.51
-266.05
-297.11
-324.07
-347.35
-367.98
-387.00
-404.86
-421.01
-433.80
-440.78
-439.23
-426.92
-402.67
-366.65
-320.42
-266.59
-208.17
-147.96
-88.23
-30.83
22.18
67.91
102.61
122.77
126.75
116.27
96.97
77.02
64.45
64.12
75.68
93.59
109.19
113.77
101.30
69.74
20.99
-39.93
-105.90
-168.71
-220.22
-253.96
-266.82
-260.11
-239.18
-211.48
-183.93
-160.76
-142.89
-128.88
-116.68
-104.94
-93.25
-81.55
-69.41
-55.89
-40.04
-21.69
-1.76
17.95
35.40
49.22
59.15
65.93
70.83
75.02
79.01
82.62
85.22
86.31
85.90
84.57
83.31
82.94
83.80
85.49
87.13
87.73
86.72
84.10
80.50
76.79
73.71
71.59
70.28
69.31
68.14
66.45
64.19
61.55
58.81
56.12
53.52
50.96
48.53
46.54
45.63
46.65
50.48
57.84
69.05
83.90
101.42
119.77
136.29
147.97
152.12
147.22
133.36
112.15
86.19
58.29
31.08
6.88
-12.30
-24.80
-29.68
-27.07
-18.33
-5.72
8.19
21.13
31.30
37.22
37.48
30.88
16.89
-3.80
-29.04
-55.61
-80.10
-99.81
-113.20
-119.92
-120.44
-115.72
-106.99
-95.73
-83.64
-72.49
-63.83
-58.65
-57.16
-58.83
-62.54
-66.86
-70.38
-71.92
-70.66
-66.28
-58.89
-48.98
-37.30
-24.60
-11.55
1.43
14.08
26.26
37.76
48.21
57.18
64.26
69.35
72.68
74.82
76.45
78.12
80.12
82.51
85.26
88.35
91.83
95.77
100.13
104.76
109.41
113.82
117.81
121.33
124.42
127.24
130.05
133.15
136.77
140.94
145.44
149.78
153.42
155.87
156.93
156.71
155.59
154.05
152.56
151.45
150.84
150.65
150.59
150.23
149.08
146.66
142.64
136.81
129.14
119.73
108.63
95.79
80.95
63.74
43.84
21.22
-3.74
-30.27
-57.47
-84.55
-110.96
-136.23
-159.71
-180.40
-196.99
-208.34
-213.92
-214.04
-209.79
-202.56
-193.52
-183.37
-172.32
-160.37
-147.55
-134.13
-120.53
-107.19
-94.36
-82.07
-70.14
-58.32
-46.39
-34.33
-22.31
-10.77
-0.25
8.81
16.32
22.87
29.63
38.14
49.83
65.48
84.86
106.73
129.19
150.30
168.71
184.00
196.59
207.21
216.27
223.29
226.87
225.26
217.14
202.40
182.35
159.34
135.96
114.21
94.87
77.50
60.75
43.06
23.26
0.95
-23.32
-48.33
-72.61
-94.87
-114.36
-131.06
-145.47
-158.45
-170.74
-182.82
-194.61
-205.51
-214.42
-220.04
-221.25
-217.52
-209.11
-196.87
-181.80
-164.50
-144.83
-122.18
-95.90
-66.04
-33.59
-0.33
31.79
61.28
87.53
110.69
131.28
149.68
166.02
180.21
192.27
202.47
211.30
219.23
226.37
232.39
236.58
238.15
236.54
231.65
223.79
213.69
202.25
190.27
178.32
166.58
154.84
142.56
129.11
113.89
96.62
77.41
56.72
35.19
13.41
-8.33
-30.06
-52.10
-74.90
-98.81
-123.90
-149.94
-176.37
-202.38
-226.99
-249.02
-267.15
-279.99
-286.47
-286.38
-280.79
-272.15
-263.73
-258.66
-258.89
-264.60
-274.25
-285.34
-295.27
-302.06
-304.62
-302.53
-295.69
-284.00
-267.25
-245.23
-218.06
-186.45
-151.84
-116.22
-81.81
-50.44
-23.14
-0.06
19.21
35.22
48.29
58.54
66.12
71.54
75.69
79.59
83.93
88.77
93.55
97.47
99.95
100.93
100.95
100.87
101.37
102.77
104.91
107.38
109.73
111.71
113.31
114.62
115.79
116.98
118.36
120.03
121.76
122.67
121.09
114.84
101.94
81.50
54.48
23.72
-6.75
-32.94
-52.12
-63.56
-68.51
-69.51
-69.23
-69.38
-70.10
-70.13
-67.50
-60.45
-48.27
-31.44
-11.33
10.35
32.17
53.07
72.33
89.30
103.17
112.84
117.05
114.40
103.43
83.03
52.77
13.52
-32.38
-81.22
-128.57
-170.00
-201.93
-222.10
-229.88
-226.15
-213.13
-193.83
-171.45
-148.74
-127.44
-108.17
-90.42
-72.91
-53.98
-32.05
-6.16
23.51
55.31
86.03
111.42
127.18
130.30
120.10
98.78
71.03
42.83
19.92
6.26
3.10
8.98
20.46
33.45
44.52
51.89
55.62
57.17
58.33
60.20
62.57
64.07
62.99
58.51
51.30
43.53
37.97
36.68
40.11
46.79
54.04
59.08
60.05
56.51
48.78
36.84
19.40
-5.69
-39.74
-80.80
-122.19
-153.48
-164.22
-149.09
-111.37
-63.00
-20.45
1.60
-4.74
-39.15
-95.57
-166.12
-243.85
-322.82
-396.49
-456.57
-494.16
-502.99
-482.65
-439.57
-384.76
-329.37
-280.52
-239.55
-203.24
-166.88
-127.48
-85.40
-43.96
-7.45
21.31
42.57
59.68
77.47
99.88
127.84
158.86
188.02
209.84
220.16
217.02
200.82
174.02
140.95
107.58
80.78
66.64
68.34
84.60
109.85
136.51
158.05
171.09
175.58
172.87
163.17
144.52
114.00
70.42
17.01
-38.25
-84.90
-114.18
-122.73
-114.04
-96.44
-79.12
-68.08
-63.93
-62.59
-57.92
-44.98
-22.03
9.41
45.98
84.49
123.22
161.92
200.63
238.35
272.35
298.74
314.09
317.13
309.41
294.51
276.07
255.70
231.91
200.63
157.22
98.80
26.11
-55.97
-139.02
-212.67
-266.76
-293.35
-288.60
-253.79
-195.45
-124.31
-53.15
5.87
43.80
56.55
45.37
16.02
-23.02
-62.68
-95.30
-115.90
-122.77
-117.08
-102.14
-82.20
-61.43
-43.07
-28.87
-19.02
-12.36
-7.05
-1.30
6.02
15.09
25.22
35.26
44.10
51.06
56.04
59.45
62.00
64.35
66.94
69.92
73.17
76.46
79.53
82.11
83.87
84.51
83.79
81.70
78.51
74.72
71.01
67.98
66.11
65.61
66.56
68.96
72.82
78.22
85.37
94.42
105.23
117.12
128.46
136.70
138.85
132.24
115.23
87.62
50.90
8.21
-35.90
-76.03
-107.07
-125.63
-131.35
-127.11
-118.15
-110.05
-106.73
-109.19
-115.62
-122.70
-127.02
-126.20
-119.13
-105.69
-86.38
-62.09
-34.00
-3.46
28.09
59.02
87.21
110.35
126.34
134.26
134.98
131.15
126.06
121.98
118.92
114.63
105.88
90.37
68.23
42.15
16.26
-5.60
-21.33
-30.98
-36.26
-39.44
-42.56
-46.93
-53.22
-61.54
-71.49
-81.89
-90.48
-93.78
-87.76
-69.16
-37.00
6.22
54.67
100.76
137.49
160.80
170.39
169.14
161.32
150.66
139.25
127.56
115.02
100.80
84.08
64.17
40.51
13.11
-17.11
-48.04
-76.72
-100.03
-115.37
-121.01
-116.27
-101.42
-77.78
-47.77
-14.82
17.25
45.21
67.31
83.66
95.81
105.73
114.83
123.46
131.10
136.89
140.35
141.63
141.51
141.00
140.97
141.72
142.88
143.55
142.53
138.82
131.94
122.03
109.64
95.36
79.49
61.94
42.48
21.14
-1.50
-24.22
-45.51
-64.07
-79.37
-91.88
-103.02
-114.63
-128.17
-144.10
-161.57
-178.86
-194.21
-206.75
-216.93
-226.26
-236.65
-249.71
-266.31
-286.28
-308.09
-328.43
-342.14
-342.85
-324.87
-285.55
-227.10
-156.73
-84.66
-20.96
27.53
58.62
74.31
78.82
76.54
70.74
63.49
56.21
50.18
46.64
46.51
49.85
55.77
62.61
68.74
73.21
76.29
79.28
83.95
91.58
102.35
115.16
128.13
139.51
148.33
154.62
159.18
162.98
166.61
170.06
172.99
175.01
176.11
176.87
178.57
182.91
191.39
204.39
220.09
234.17
240.68
233.96
211.07
173.28
125.78
75.66
29.36
-9.20
-38.90
-60.54
-75.74
-86.31
-94.36
-102.43
-113.18
-128.48
-148.60
-172.27
-197.77
-224.36
-253.03
-285.65
-322.83
-361.73
-395.44
-414.47
-410.14
-378.20
-321.09
-247.78
-171.20
-104.47
-57.00
-32.25
-27.42
-35.22
-46.71
-54.22
-53.39
-43.79
-28.23
-11.22
2.67
10.07
8.99
-1.36
-21.01
-49.35
-85.00
-125.54
-167.49
-206.52
-237.93
-257.38
-261.61
-249.11
-220.53
-178.46
-126.79
-69.72
-10.83
47.44
103.67
156.99
206.70
252.34
293.93
331.87
366.31
395.95
417.22
424.53
412.12
376.78
320.08
248.89
173.68
105.14
50.63
12.03
-14.43
-36.33
-62.17
-98.51
-147.43
-205.79
-265.41
-315.36
-344.79
-345.77
-315.72
-258.71
-185.37
-110.71
-50.34
-15.70
-10.23
-28.00
-55.77
-77.44
-79.47
-54.91
-4.90
62.31
134.21
197.16
239.18
251.94
232.20
182.89
113.29
37.42
-29.02
-73.22
-89.04
-79.06
-53.53
-27.31
-14.97
-26.40
-63.98
-122.10
-189.34
-252.20
-299.10
-322.95
-322.08
-299.05
-258.39
-204.54
-141.29
-72.92
-5.76
50.88
86.50
93.34
70.82
27.46
-21.11
-57.41
-68.53
-50.69
-10.15
39.39
81.78
103.28
96.02
59.40
-0.31
-71.96
-142.34
-199.47
-235.44
-247.62
-238.34
-213.00
-177.48
-136.11
-91.02
-43.06
6.37
53.75
93.36
118.82
126.05
115.77
94.14
71.12
57.22
59.92
81.41
118.43
163.68
207.85
241.49
256.53
247.95
215.45
164.51
105.98
53.79
20.96
15.58
38.32
82.27
135.12
182.64
212.13
215.04
188.16
133.42
56.97
-32.37
-124.63
-210.27
-281.38
-332.67
-361.78
-369.14
-357.51
-330.81
-293.22
-248.64
-200.54
-152.03
-105.77
-63.65
-26.26
7.30
39.03
71.53
107.26
148.06
194.54
245.03
294.57
335.00
357.26
355.31
329.87
289.57
247.99
217.68
204.30
204.35
207.68
203.42
185.59
155.17
117.63
78.05
37.42
-7.53
-60.96
-123.61
-190.36
-251.21
-295.13
-314.70
-308.93
-283.24
-246.85
-208.86
-175.11
-146.98
-122.20
-96.87
-67.41
-31.69
10.61
57.99
106.91
151.64
184.41
196.99
183.26
142.50
81.09
11.68
-50.32
-91.48
-104.15
-87.97
-48.71
4.27
60.75
111.52
149.44
170.09
172.24
157.97
132.05
100.54
68.95
40.92
17.87
-0.42
-14.67
-25.45
-33.13
-38.23
-41.65
-44.45
-47.29
-49.99
-51.59
-50.81
-46.86
-39.94
-31.14
-21.73
-12.48
-3.21
6.84
18.27
30.87
43.48
54.72
63.98
72.24
82.02
96.39
117.47
145.09
176.44
206.83
231.41
247.07
253.68
254.19
253.37
255.92
264.38
278.07
293.32
304.87
307.75
298.70
276.76
243.11
200.55
153.09
105.56
63.05
30.11
9.52
1.43
3.06
9.54
15.46
16.65
11.44
0.89
-11.95
-23.41
-30.58
-32.26
-29.11
-23.18
-17.02
-12.71
-11.27
-12.57
-15.69
-19.42
-22.74
-25.26
-27.27
-29.74
-33.86
-40.49
-49.48
-59.48
-68.40
-74.28
-76.19
-74.58
-70.97
-66.96
-63.38
-59.94
-55.41
-48.21
-36.96
-20.81
0.25
25.25
52.11
77.82
99.13
113.53
119.94
118.81
111.56
99.73
84.48
66.62
47.07
27.09
8.16
-8.65
-23.04
-35.57
-47.09
-58.11
-68.63
-78.26
-86.63
-93.78
-100.15
-106.66
-114.54
-125.11
-139.32
-157.05
-176.47
-194.04
-205.57
-207.88
-200.41
-185.77
-168.80
-154.69
-146.94
-146.44
-151.70
-159.93
-168.32
-174.61
-177.09
-174.24
-164.55
-146.69
-120.14
-85.73
-45.79
-3.75
36.74
72.76
102.77
126.71
145.61
160.88
173.67
184.55
193.46
200.04
203.90
204.93
203.31
199.54
194.12
187.25
178.68
167.69
153.53
136.01
115.89
94.83
74.68
56.61
40.58
25.46
9.86
-6.90
-24.27
-40.68
-54.31
-64.02
-69.67
-71.99
-72.10
-71.02
-69.49
-67.96
-66.60
-65.33
-63.81
-61.62
-58.47
-54.40
-49.73
-44.91
-40.24
-35.95
-32.33
-29.91
-29.47
-31.69
-36.72
-43.83
-51.42
-57.43
-59.86
-57.29
-49.08
-35.48
-17.38
3.92
27.02
50.68
73.95
96.16
116.63
134.38
147.94
155.62
156.05
148.85
135.12
117.37
99.03
83.44
72.99
68.49
69.17
73.10
77.91
81.43
82.26
79.90
74.68
67.47
59.31
51.07
43.31
36.27
29.92
23.97
17.81
10.67
1.86
-8.68
-20.16
-31.02
-39.69
-45.54
-49.45
-53.64
-60.45
-71.01
-84.37
-97.66
-107.39
-111.03
-108.04
-99.96
-89.37
-78.73
-69.52
-62.11
-56.25
-51.63
-48.19
-46.00
-45.06
-45.12
-45.84
-47.07
-49.02
-52.20
-57.05
-63.63
-71.56
-80.45
-90.57
-103.18
-120.26
-143.39
-172.58
-205.47
-237.87
-265.29
-284.78
-296.01
-300.90
-302.11
-301.19
-297.73
-289.84
-275.74
-255.28
-230.62
-205.53
-183.63
-166.80
-154.35
-143.53
-130.99
-114.25
-92.63
-67.06
-39.44
-11.95
13.15
33.27
45.47
47.04
36.92
17.17
-6.65
-26.81
-36.16
-31.18
-13.34
11.71
37.07
57.82
72.87
84.61
96.68
111.42
128.57
145.81
160.47
171.20
178.41
183.30
186.23
185.68
178.49
161.22
131.71
90.14
39.32
-15.76
-68.38
-110.78
-135.24
-135.76
-110.11
-61.38
2.10
68.68
126.69
167.67
188.28
190.25
178.77
160.31
140.72
124.19
113.16
108.36
109.28
114.37
121.13
126.24
125.95
116.99
97.53
67.86
30.01
-13.44
-60.71
-111.47
-165.78
-221.97
-275.04
-316.78
-337.69
-330.34
-292.33
-227.69
-146.51
-62.88
7.80
52.14
62.13
37.75
-12.14
-71.49
-121.49
-146.38
-138.03
-98.12
-36.79
31.00
89.65
126.12
132.12
105.23
49.59
-24.16
-100.34
-161.59
-193.12
-187.61
-147.94
-86.54
-21.69
27.99
48.93
35.78
-8.14
-72.79
-144.58
-209.87
-257.67
-281.73
-281.14
-259.55
-223.11
-178.02
-128.94
-79.37
-33.17
3.90
24.46
22.51
-2.84
-44.86
-90.64
-125.55
-139.04
-128.10
-96.87
-53.27
-4.59
44.85
93.06
138.07
176.20
202.32
212.54
206.73
189.31
167.49
148.12
134.66
126.52
120.73
114.25
106.13
97.76
91.56
89.37
91.33
95.71
99.41
98.81
90.33
70.87
38.28
-7.87
-65.43
-129.25
-191.75
-244.43
-279.95
-294.08
-286.63
-261.14
-223.29
-178.91
-132.50
-86.71
-42.79
-1.74
34.67
63.62
81.73
86.44
77.57
58.20
34.40
13.89
3.77
8.36
28.40
61.68
104.67
154.02
206.93
260.20
309.08
347.21
368.24
368.50
349.11
315.93
277.40
241.06
211.02
187.37
167.76
149.92
133.66
121.08
115.12
117.43
126.58
137.89
145.00
142.39
127.95
104.00
76.38
52.06
36.41
31.39
35.41
44.58
54.44
61.13
61.96
55.49
41.73
22.73
2.75
-12.39
-17.22
-8.92
11.17
37.78
63.69
82.59
91.31
90.38
82.97
72.88
62.65
52.86
42.51
30.04
14.38
-4.63
-26.41
-50.16
-75.24
-101.43
-128.69
-156.94
-185.89
-214.95
-243.37
-270.12
-293.53
-310.98
-318.96
-313.90
-293.74
-259.52
-215.80
-169.65
-128.20
-96.12
-74.27
-60.11
-49.57
-39.20
-27.29
-13.71
1.11
17.12
34.60
53.40
72.19
88.39
99.04
102.10
97.48
87.00
73.67
60.44
49.22
40.52
33.79
28.12
23.01
18.79
16.55
17.66
23.07
32.83
45.81
60.12
73.74
85.16
93.75
99.63
103.29
105.06
104.90
102.57
97.85
90.83
81.83
71.24
59.37
46.41
32.60
18.43
4.66
-7.73
-17.87
-25.19
-29.60
-31.41
-31.27
-30.01
-28.38
-26.97
-26.03
-25.51
-25.15
-24.72
-24.15
-23.65
-23.52
-23.93
-24.86
-25.99
-26.95
-27.38
-27.25
-26.69
-25.95
-25.23
-24.58
-23.98
-23.43
-23.07
-23.12
-23.78
-25.05
-26.62
-28.02
-28.64
-28.05
-26.04
-22.71
-18.33
-13.28
-7.98
-2.88
1.65
5.36
8.22
10.45
12.39
14.40
16.67
19.21
21.81
24.23
26.27
27.83
28.95
29.65
29.98
29.93
29.46
28.52
27.12
25.28
23.10
20.71
18.29
16.02
14.03
12.37
10.96
9.59
8.02
6.00
3.38
0.14
-3.60
-7.61
-11.64
-15.39
-18.63
-21.12
-22.63
-23.00
-22.17
-20.18
-17.25
-13.71
-9.94
-6.27
-2.95
-0.09
2.28
4.22
5.80
7.14
8.31
9.37
10.31
11.08
11.64
12.03
12.44
13.11
14.30
16.10
18.38
20.80
22.94
24.51
25.42
25.92
26.44
27.59
29.93
33.84
39.33
46.02
53.13
59.75
65.11
68.84
71.08
72.28
72.93
73.21
72.85
71.25
67.68
61.60
52.86
41.81
29.29
16.48
4.68
-5.06
-12.19
-16.85
-19.69
-21.58
-23.11
-24.36
-24.96
-24.36
-22.30
-18.96
-14.86
-10.59
-6.49
-2.62
1.16
4.87
8.28
10.92
12.32
12.26
10.93
8.90
6.86
5.35
4.54
4.25
4.04
3.44
2.20
0.37
-1.79
-3.94
-5.87
-7.67
-9.58
-11.97
-15.01
-18.68
-22.67
-26.52
-29.80
-32.22
-33.64
-34.09
-33.67
-32.50
-30.73
-28.47
-25.85
-22.99
-20.05
-17.21
-14.65
-12.57
-11.05
-10.06
-9.49
-9.20
-9.07
-9.11
-9.34
-9.77
-10.34
-10.91
-11.37
-11.70
-12.03
-12.56
-13.45
-14.78
-16.53
-18.58
-20.75
-22.87
-24.75
-26.20
-27.10
-27.43
-27.29
-26.91
-26.57
-26.55
-27.03
-28.08
-29.64
-31.53
-33.52
-35.32
-36.72
-37.48
-37.40
-36.34
-34.21
-31.05
-27.05
-22.60
-18.15
-14.10
-10.67
-7.86
-5.56
-3.66
-2.18
-1.18
-0.78
-0.98
-1.73
-2.84
-4.17
-5.57
-6.90
-8.00
-8.68
-8.79
-8.24
-7.10
-5.57
-3.90
-2.38
-1.18
-0.42
-0.09
-0.17
-0.58
-1.25
-2.09
-2.99
-3.85
-4.59
-5.19
-5.76
-6.48
-7.55
-9.08
-11.00
-13.01
-14.67
-15.58
-15.45
-14.24
-12.12
-9.39
-6.36
-3.30
-0.35
2.42
4.99
7.36
9.53
11.47
13.12
14.41
15.27
15.73
15.88
15.86
15.77
15.69
15.59
15.40
15.07
14.58
13.99
13.35
12.71
12.06
11.31
10.33
9.01
7.37
5.51
3.66
1.99
0.61
-0.55
-1.67
-2.93
-4.45
-6.22
-8.18
-10.24
-12.39
-14.65
-17.01
-19.36
-21.45
-22.98
-23.65
-23.31
-21.94
-19.76
-17.06
-14.14
-11.28
-8.65
-6.34
-4.42
-2.93
-1.91
-1.35
-1.10
-0.94
-0.63
0.02
0.99
2.14
3.17
3.86
4.04
3.65
2.76
1.47
-0.12
-2.00
-4.20
-6.87
-10.11
-13.98
-18.36
-23.00
-27.57
-31.78
-35.49
-38.63
-41.25
-43.36
-45.00
-46.22
-47.12
-47.84
-48.47
-48.97
-49.16
-48.72
-47.35
-44.84
-41.17
-36.54
-31.23
-25.57
-19.83
-14.18
-8.71
-3.49
1.35
5.58
8.84
10.76
11.09
9.79
7.15
3.59
-0.32
-4.06
-7.19
-9.44
-10.60
-10.53
-9.11
-6.23
-1.85
4.00
11.03
18.77
26.45
33.20
38.20
40.87
41.13
39.26
35.85
31.58
26.98
22.38
17.87
13.48
9.16
4.99
1.11
-2.28
-4.93
-6.60
-7.03
-6.07
-3.67
0.05
4.77
9.99
15.18
19.83
23.64
26.53
28.62
30.18
31.39
32.40
33.20
33.67
33.66
33.05
31.74
29.77
27.24
24.40
21.52
18.93
16.85
15.45
14.75
14.67
15.00
15.47
15.76
15.61
14.88
13.62
12.03
10.40
9.00
7.92
7.06
6.16
4.94
3.20
0.87
-1.94
-5.00
-8.03
-10.77
-13.04
-14.68
-15.46
-15.14
-13.44
-10.12
-5.18
1.15
8.32
15.62
22.34
27.92
32.15
35.18
37.47
39.66
42.31
45.65
49.52
53.35
56.44
58.20
58.51
57.85
57.21
57.78
60.50
65.65
72.62
80.04
86.19
89.56
89.36
85.73
79.66
72.46
65.28
58.53
51.68
43.34
31.72
15.34
-6.07
-31.03
-56.18
-76.95
-89.00
-89.62
-78.82
-59.37
-35.76
-12.59
6.82
21.15
30.75
36.77
40.30
42.03
42.43
42.20
42.41
44.35
48.76
55.35
62.53
67.81
68.75
63.78
52.85
37.30
19.31
1.24
-15.07
-28.46
-38.47
-45.10
-48.73
-49.96
-49.56
-48.23
-46.34
-43.69
-39.70
-34.07
-27.48
-22.08
-21.29
-28.83
-47.49
-78.03
-118.71
-165.59
-213.16
-255.02
-284.61
-296.06
-285.43
-252.23
-200.36
-137.87
-75.18
-22.17
14.64
33.68
38.04
33.49
26.12
20.38
18.29
19.78
23.64
28.34
32.57
35.41
36.35
35.25
32.34
28.14
23.40
18.98
15.57
13.43
12.21
11.08
9.31
6.87
4.97
5.84
11.87
24.33
42.15
61.65
77.22
82.96
74.39
49.97
11.70
-35.26
-83.51
-124.78
-151.49
-158.39
-144.01
-111.40
-67.83
-22.85
14.35
37.98
47.32
46.48
42.27
40.95
45.18
52.61
56.68
49.53
25.86
-13.80
-61.99
-106.20
-133.24
-134.20
-108.17
-62.79
-11.61
31.04
55.00
57.36
42.64
20.24
0.92
-6.73
1.55
24.91
58.15
93.66
123.89
143.84
152.32
151.79
146.45
139.82
132.81
123.33
107.49
81.50
43.84
-3.35
-54.02
-99.43
-130.39
-140.27
-127.51
-96.59
-56.67
-18.18
10.89
27.62
34.08
35.23
35.84
38.52
43.42
49.61
56.52
64.55
74.34
85.80
97.27
105.65
107.19
98.62
77.68
43.34
-4.11
-62.58
-127.42
-191.06
-243.64
-275.18
-278.77
-253.43
-205.28
-145.98
-89.27
-46.89
-25.50
-25.69
-42.80
-68.78
-94.22
-110.42
-111.18
-94.32
-62.46
-22.40
16.94
47.28
63.02
62.30
46.64
19.91
-12.89
-46.61
-77.11
-102.37
-123.28
-143.18
-165.86
-193.22
-223.44
-251.06
-269.06
-271.64
-256.44
-224.90
-181.06
-129.99
-76.36
-23.98
24.32
66.96
103.97
137.23
169.89
205.33
245.85
291.67
340.63
388.49
429.60
457.93
468.36
458.06
427.53
380.83
324.61
266.18
211.52
163.90
123.63
88.92
57.15
25.65
-7.98
-45.75
-88.75
-136.21
-184.72
-228.41
-260.52
-275.90
-273.17
-255.36
-228.71
-200.16
-174.94
-155.34
-140.99
-130.12
-120.77
-111.47
-101.11
-88.57
-72.66
-52.41
-27.72
0.10
28.32
53.16
71.01
79.75
79.62
73.28
64.87
58.34
55.97
57.73
61.81
65.98
68.92
70.76
72.74
76.07
80.99
86.43
90.60
91.94
90.02
85.81
81.17
78.01
77.36
78.94
81.18
81.69
78.09
68.75
53.48
33.64
11.69
-9.60
-28.09
-42.86
-54.37
-64.02
-73.50
-84.09
-96.33
-109.89
-123.90
-137.35
-149.54
-160.28
-169.65
-177.42
-182.53
-182.76
-175.37
-158.23
-131.10
-96.19
-57.71
-20.50
11.37
35.49
51.10
58.49
58.42
51.87
40.34
26.01
11.70
0.21
-6.40
-7.52
-4.06
2.00
8.33
13.08
15.37
15.43
14.30
13.41
14.06
17.04
22.39
29.59
37.81
46.28
54.50
62.33
69.84
77.15
84.32
91.37
98.39
105.60
113.22
121.33
129.64
137.46
143.95
148.51
151.01
151.79
151.23
149.31
145.27
137.90
126.05
109.45
89.01
66.81
45.52
27.69
15.14
8.79
8.70
14.35
24.79
38.79
54.86
71.39
86.87
100.16
110.76
118.85
125.23
130.97
136.88
143.00
148.31
150.94
148.82
140.43
125.35
104.13
77.91
47.78
14.60
-20.82
-57.30
-93.15
-126.54
-156.20
-182.07
-205.37
-227.97
-251.39
-276.02
-300.84
-323.95
-343.36
-357.84
-367.14
-371.96
-373.35
-372.08
-368.18
-360.79
-348.38
-329.30
-302.38
-267.43
-225.56
-179.11
-131.27
-85.54
-44.90
-11.31
14.71
33.90
47.82
58.21
66.48
73.53
79.84
85.63
91.09
96.38
101.54
106.53
111.16
115.29
118.87
121.98
124.83
127.62
130.52
133.58
136.77
139.97
143.05
145.86
148.24
150.01
150.97
151.07
150.43
149.46
148.77
148.93
150.26
152.56
155.22
157.41
158.51
158.34
157.25
155.90
154.91
154.61
154.94
155.60
156.24
156.68
156.89
156.79
156.08
154.12
150.07
143.14
132.96
119.61
103.54
85.19
64.71
41.81
15.92
-13.42
-46.17
-81.63
-118.64
-156.03
-192.91
-228.72
-262.67
-293.28
-318.37
-335.68
-344.00
-344.06
-338.30
-329.49
-318.90
-305.07
-284.32
-252.82
-209.15
-155.92
-99.28
-46.65
-3.88
26.64
46.06
57.57
64.51
69.02
71.91
73.45
74.27
75.85
80.07
88.46
101.47
118.11
136.28
153.39
167.17
176.26
180.32
179.96
176.38
170.90
164.70
158.70
153.63
150.09
148.57
149.21
151.56
154.37
155.76
153.68
146.54
133.73
115.70
93.64
68.88
42.45
15.04
-12.87
-40.79
-68.14
-94.56
-120.26
-146.06
-173.12
-202.28
-233.38
-264.98
-294.61
-319.40
-336.82
-345.12
-343.60
-332.72
-314.00
-290.00
-264.02
-239.48
-218.87
-202.79
-189.51
-175.43
-156.60
-130.44
-96.90
-58.47
-18.92
18.27
51.03
78.91
102.48
122.54
139.70
154.39
166.89
177.19
184.60
187.49
183.64
171.26
150.22
122.80
93.16
65.88
44.19
28.84
18.38
10.49
3.50
-2.80
-7.43
-9.46
-9.21
-8.71
-11.10
-19.25
-34.59
-56.46
-82.43
-109.15
-133.22
-152.08
-164.99
-173.72
-182.57
-196.86
-220.18
-251.83
-285.72
-311.82
-319.92
-303.71
-263.45
-206.08
-143.04
-86.77
-47.33
-30.13
-34.85
-55.82
-83.71
-107.95
-119.44
-112.62
-86.37
-43.62
9.73
66.09
117.15
155.02
173.43
169.19
143.38
101.43
52.08
5.47
-29.18
-45.29
-39.99
-14.57
25.74
72.71
116.50
147.42
157.74
143.24
104.14
45.45
-23.63
-91.44
-146.22
-178.65
-183.70
-161.52
-117.16
-59.42
0.91
52.94
87.77
100.25
90.33
63.22
28.25
-3.47
-22.02
-21.27
-0.44
36.03
80.05
122.24
154.39
171.06
170.23
152.71
121.33
80.07
33.94
-10.80
-46.72
-66.17
-63.35
-36.87
8.72
63.29
113.60
147.37
156.83
141.00
105.63
61.42
20.71
-6.24
-13.94
-3.07
20.06
45.77
64.35
69.25
58.79
35.56
4.28
-30.70
-66.61
-101.77
-133.91
-159.06
-172.10
-168.57
-146.68
-108.14
-57.19
0.92
61.19
118.77
168.44
204.08
219.36
209.65
174.24
117.65
49.14
-19.30
-75.84
-111.64
-122.81
-110.89
-81.76
-43.61
-4.41
29.99
56.62
74.92
85.32
88.09
82.92
69.59
49.12
24.50
0.41
-18.23
-27.98
-28.16
-20.69
-8.68
5.51
21.34
39.70
61.31
85.01
106.97
121.77
124.52
112.93
88.18
54.20
16.20
-20.72
-52.26
-75.03
-86.58
-85.66
-72.66
-49.87
-21.12
9.17
37.14
60.38
78.05
90.52
98.51
102.26
101.25
94.32
80.41
59.51
33.26
4.88
-21.46
-41.95
-54.05
-56.77
-50.32
-35.53
-13.72
13.01
41.25
66.32
83.01
87.06
76.52
52.37
18.04
-21.60
-61.28
-95.99
-121.36
-134.11
-132.82
-118.56
-95.00
-67.45
-41.18
-19.79
-4.36
6.01
13.03
17.83
20.52
20.53
17.62
12.65
7.63
4.99
6.60
13.04
23.46
36.12
49.04
60.66
70.10
76.95
81.05
82.11
79.74
73.54
63.56
50.54
36.08
22.25
11.11
4.09
1.70
3.46
8.20
14.46
20.91
26.62
31.23
34.90
38.29
42.26
47.80
55.71
66.47
80.02
95.53
111.20
124.34
131.74
130.53
119.04
97.31
66.97
30.64
-8.90
-49.20
-88.22
-124.07
-154.83
-178.70
-194.43
-201.85
-202.00
-196.81
-188.41
-178.57
-168.37
-158.30
-148.51
-139.04
-129.90
-120.97
-111.92
-102.22
-91.21
-78.36
-63.52
-47.04
-29.73
-12.62
3.35
17.64
30.24
41.48
51.83
61.63
70.85
79.25
86.59
92.94
98.84
105.19
112.98
122.89
134.94
148.37
161.71
173.08
180.58
182.72
178.82
169.32
155.77
140.46
125.71
113.09
102.96
94.50
86.36
77.41
67.23
56.16
45.01
34.51
25.06
16.60
8.84
1.47
-5.68
-12.81
-20.25
-28.49
-38.13
-49.47
-62.13
-74.88
-85.74
-92.50
-93.44
-87.91
-76.58
-61.31
-44.50
-28.51
-15.16
-5.50
0.36
3.08
3.93
4.41
5.81
8.81
13.30
18.49
23.30
26.82
28.54
28.52
27.27
25.54
24.10
23.48
23.79
24.64
25.20
24.43
21.42
15.72
7.47
-2.68
-13.70
-24.53
-34.18
-41.94
-47.37
-50.30
-50.78
-48.96
-44.95
-38.69
-30.03
-19.07
-6.39
6.82
19.09
29.38
37.54
44.38
51.04
58.34
66.17
73.62
79.37
82.27
81.46
76.36
66.31
50.68
29.18
2.62
-26.67
-55.01
-78.11
-92.23
-94.95
-85.51
-64.50
-33.56
4.97
48.06
91.99
132.58
165.91
189.16
201.46
204.17
200.26
193.33
186.48
181.66
179.51
179.42
179.75
178.18
172.18
159.70
139.72
112.57
79.57
42.45
2.82
-37.82
-77.80
-114.79
-145.76
-167.50
-177.53
-174.97
-160.82
-137.82
-109.64
-80.16
-52.69
-29.56
-11.84
0.59
8.86
14.64
19.67
25.26
32.13
40.31
49.32
58.32
66.28
72.24
75.52
75.78
73.17
68.16
61.37
53.31
44.23
34.07
22.63
9.73
-4.66
-20.35
-37.20
-55.38
-75.43
-98.22
-124.39
-153.87
-185.35
-216.30
-243.37
-263.29
-273.78
-274.19
-265.65
-250.71
-232.52
-214.00
-197.16
-182.72
-170.30
-158.90
-147.58
-135.97
-124.46
-113.89
-104.97
-97.75
-91.45
-84.75
-76.48
-66.18
-54.24
-41.54
-28.83
-16.32
-3.75
9.13
21.91
33.28
41.35
44.34
41.34
32.64
19.74
4.74
-10.32
-24.06
-36.02
-46.45
-55.95
-65.03
-73.65
-81.08
-85.95
-86.60
-81.51
-69.85
-51.88
-29.15
-4.27
19.60
39.56
53.78
61.94
65.32
66.08
66.22
66.45
65.48
60.24
46.87
22.29
-14.48
-61.62
-114.71
-167.41
-212.46
-242.79
-252.78
-239.62
-204.44
-152.59
-92.69
-34.51
13.74
47.48
66.46
74.15
75.92
77.27
82.34
93.05
108.88
127.23
144.33
156.50
161.55
159.47
152.27
142.91
134.00
126.58
119.71
110.75
96.36
73.95
43.19
6.93
-28.97
-57.15
-71.25
-68.28
-49.72
-20.83
11.62
41.78
66.33
84.33
96.06
101.61
100.54
92.44
78.02
59.60
40.33
22.93
8.25
-5.13
-19.94
-38.64
-62.02
-88.68
-115.74
-140.20
-160.03
-174.75
-185.25
-193.37
-201.34
-210.99
-223.00
-235.98
-246.51
-249.95
-242.32
-222.09
-191.06
-153.68
-115.02
-78.81
-46.30
-16.64
11.75
39.93
67.95
95.41
122.21
148.96
176.47
204.84
232.68
257.15
274.72
282.32
278.39
263.10
237.98
205.10
166.36
123.39
77.72
31.20
-13.93
-55.36
-91.23
-120.53
-143.41
-161.23
-176.38
-191.76
-209.69
-230.68
-252.50
-270.38
-278.43
-271.93
-249.27
-212.65
-167.00
-117.86
-69.31
-22.84
22.42
68.57
117.62
170.33
225.52
279.83
328.12
364.58
384.32
385.08
368.01
337.22
298.37
256.83
216.23
178.08
142.08
106.61
69.20
26.90
-22.77
-80.32
-142.87
-203.84
-254.44
-286.67
-296.45
-285.09
-258.57
-224.75
-190.40
-159.47
-133.17
-111.26
-93.41
-79.68
-69.97
-63.44
-58.33
-52.62
-44.95
-35.30
-24.73
-14.87
-6.98
-1.34
2.78
6.66
11.51
17.83
25.14
32.20
37.53
40.00
39.33
36.11
31.44
26.54
22.26
18.93
16.31
13.87
10.99
7.27
2.61
-2.72
-8.19
-13.12
-16.83
-18.77
-18.54
-15.99
-11.21
-4.49
3.64
12.55
21.58
30.20
38.08
45.06
51.09
56.12
60.08
62.96
64.91
66.29
67.69
69.76
72.92
77.20
82.12
86.90
90.79
93.47
95.26
97.08
100.10
105.30
113.11
123.25
134.81
146.49
156.75
164.00
166.81
164.11
155.48
141.32
122.66
100.87
77.24
52.77
28.38
5.21
-14.93
-29.68
-36.72
-34.75
-24.26
-7.76
10.79
27.14
37.87
41.22
37.17
27.03
12.75
-3.62
-20.25
-35.63
-48.64
-58.63
-65.51
-69.80
-72.36
-74.11
-75.68
-77.27
-78.68
-79.55
-79.57
-78.64
-76.85
-74.38
-71.45
-68.25
-64.99
-61.91
-59.24
-57.21
-55.94
-55.39
-55.39
-55.60
-55.55
-54.76
-52.68
-48.90
-43.15
-35.45
-26.06
-15.56
-4.70
5.72
15.06
22.90
29.13
33.92
37.54
40.34
42.56
44.36
45.76
46.76
47.35
47.53
47.42
47.17
46.93
46.81
46.74
46.49
45.74
44.20
41.74
38.49
34.80
31.13
27.84
25.03
22.45
19.53
15.58
9.99
2.50
-6.71
-16.90
-26.91
-35.44
-41.29
-43.66
-42.34
-37.69
-30.46
-21.65
-12.23
-3.00
5.50
12.96
19.23
24.33
28.36
31.45
33.77
35.52
36.93
38.19
39.45
40.82
42.33
43.98
45.74
47.56
49.35
51.00
52.34
53.26
53.72
53.83
53.80
53.84
54.10
54.61
55.30
56.00
56.61
57.11
57.59
58.24
59.27
60.91
63.27
66.32
69.70
72.75
74.50
73.84
69.83
62.04
50.65
36.47
20.59
4.14
-12.01
-27.14
-40.62
-51.79
-59.98
-64.74
-66.11
-64.70
-61.52
-57.69
-54.04
-50.88
-48.03
-45.03
-41.44
-37.05
-31.97
-26.62
-21.50
-17.08
-13.63
-11.18
-9.57
-8.49
-7.65
-6.82
-5.89
-4.90
-3.98
-3.30
-3.02
-3.19
-3.70
-4.29
-4.47
-3.58
-0.85
4.35
12.32
22.76
34.61
46.18
55.35
59.86
57.64
47.16
27.65
-0.49
-35.55
-74.40
-112.85
-146.35
-170.93
-184.10
-185.29
-175.84
-158.34
-135.88
-111.20
-86.31
-62.31
-39.56
-17.85
3.28
24.33
45.66
67.26
88.72
109.23
127.82
143.56
155.81
164.41
169.56
171.81
171.73
169.78
166.18
160.93
153.91
145.09
134.67
123.16
111.31
100.06
90.40
83.35
79.91
80.82
86.22
95.28
105.95
115.29
120.20
118.53
109.86
95.66
78.81
62.44
48.78
38.50
30.62
23.16
14.07
2.14
-12.53
-28.49
-43.40
-54.85
-61.14
-61.91
-58.37
-53.04
-49.05
-49.06
-54.19
-63.43
-73.70
-80.82
-80.98
-72.32
-55.70
-34.54
-13.67
2.19
9.90
8.50
-0.89
-15.80
-33.46
-51.79
-70.14
-89.63
-112.90
-143.33
-183.43
-232.99
-287.72
-339.11
-376.13
-388.30
-369.21
-319.07
-245.24
-160.25
-78.25
-11.05
34.73
58.32
63.58
56.64
43.61
29.15
16.25
6.58
1.06
0.04
3.19
9.36
16.67
23.33
28.31
31.51
33.06
32.21
26.72
13.52
-9.23
-39.99
-72.99
-99.73
-112.30
-106.72
-84.56
-51.92
-16.46
15.58
41.01
59.24
70.74
75.69
73.86
65.52
52.21
36.68
21.72
8.71
-3.04
-15.84
-32.12
-53.38
-79.65
-109.76
-141.70
-172.64
-198.82
-215.70
-218.76
-204.87
-173.42
-126.71
-69.24
-6.43
56.50
115.03
165.02
202.70
224.97
230.43
220.32
198.83
172.06
146.35
126.47
114.43
109.08
106.31
100.25
85.34
58.83
23.03
-14.26
-42.01
-50.30
-34.83
0.48
44.51
83.17
104.66
103.41
81.03
44.51
3.13
-34.33
-61.28
-73.93
-71.28
-55.01
-29.01
1.51
30.99
54.47
67.98
68.26
52.65
19.71
-29.35
-89.17
-149.56
-197.31
-220.26
-212.20
-176.42
-125.38
-76.68
-46.55
-43.97
-68.05
-109.75
-156.41
-196.45
-222.19
-230.08
-219.64
-192.50
-152.41
-105.57
-60.16
-24.63
-5.29
-4.35
-19.37
-44.40
-71.75
-93.68
-103.78
-97.81
-74.38
-35.22
14.91
69.30
120.83
163.54
193.49
208.61
208.20
192.49
162.72
121.61
73.63
24.55
-19.67
-54.32
-76.82
-87.06
-86.88
-79.19
-67.09
-53.29
-39.80
-27.87
-18.11
-10.67
-5.39
-1.90
0.35
2.05
3.88
6.42
10.01
14.66
20.13
26.08
32.31
38.93
46.35
55.11
65.59
77.72
90.86
103.86
115.50
124.83
131.51
135.72
137.99
139.07
139.91
141.84
146.55
155.61
169.46
186.51
202.89
213.33
213.04
199.56
173.86
139.90
102.90
67.34
35.51
7.17
-19.70
-47.85
-80.11
-119.02
-166.37
-222.27
-283.89
-344.77
-395.70
-427.12
-432.38
-410.39
-366.29
-309.66
-251.05
-198.52
-155.72
-122.20
-95.32
-72.50
-52.56
-35.58
-21.84
-10.86
-1.12
9.26
21.44
35.20
48.83
60.17
67.71
71.39
72.47
72.86
74.13
76.88
80.67
84.45
87.06
87.79
86.53
83.76
80.22
76.55
73.00
69.22
64.44
57.88
49.13
38.56
27.32
17.13
9.77
6.53
7.83
13.10
21.01
29.87
38.11
44.62
48.82
50.60
50.12
47.70
43.64
38.28
31.98
25.09
17.89
10.61
3.39
-3.65
-10.49
-17.17
-23.86
-30.85
-38.47
-46.92
-56.11
-65.63
-74.81
-82.92
-89.48
-94.45
-98.24
-101.63
-105.51
-110.67
-117.55
-126.09
-135.54
-144.51
-151.29
-154.33
-152.94
-147.71
-140.51
-133.69
-129.02
-126.79
-125.47
-122.34
-114.49
-99.97
-78.30
-50.66
-19.43
12.34
41.45
65.20
81.96
91.54
95.32
95.76
95.60
96.93
100.74
106.92
114.67
122.98
131.01
138.15
144.04
148.64
152.21
155.33
158.66
162.65
167.28
171.96
175.81
178.05
178.50
177.80
177.39
178.96
183.54
190.57
197.52
200.48
195.47
180.15
154.78
122.05
85.88
49.90
16.49
-13.47
-39.79
-62.47
-81.23
-95.67
-105.62
-111.24
-112.73
-109.95
-102.46
-89.85
-72.28
-50.69
-26.84
-2.77
19.64
39.02
54.61
66.33
74.44
79.49
82.28
84.03
86.73
93.60
108.81
136.21
177.20
228.71
282.71
327.88
353.37
352.66
325.88
278.98
220.44
157.33
93.09
27.99
-37.79
-101.24
-155.58
-192.38
-205.32
-193.53
-162.37
-121.29
-80.06
-45.37
-19.51
-1.19
12.06
21.85
28.04
29.26
24.19
12.61
-4.29
-24.41
-45.46
-65.63
-84.10
-100.73
-115.53
-127.76
-135.65
-136.91
-130.00
-115.62
-97.10
-79.54
-67.51
-63.07
-64.85
-69.05
-71.57
-70.11
-64.90
-58.03
-51.87
-47.82
-45.96
-45.62
-46.30
-47.94
-50.71
-54.55
-58.86
-62.84
-66.14
-69.66
-75.48
-86.04
-102.94
-125.95
-152.96
-180.91
-207.14
-230.45
-251.19
-270.53
-289.44
-308.04
-325.58
-340.88
-352.80
-360.37
-362.68
-358.74
-347.77
-329.66
-305.15
-275.59
-242.33
-205.89
-165.75
-120.67
-69.63
-12.87
47.28
106.55
159.72
202.08
230.88
246.11
250.17
246.68
239.07
229.61
219.36
208.77
198.60
190.32
185.93
187.10
194.38
206.71
221.69
236.45
248.61
257.16
262.72
267.06
272.24
279.66
289.43
300.22
309.67
315.12
314.27
305.78
289.77
268.05
244.11
222.50
207.61
202.10
205.60
214.17
221.31
219.90
204.64
173.62
128.67
74.24
15.42
-43.53
-100.26
-154.37
-207.00
-259.60
-312.40
-362.97
-405.86
-433.79
-440.41
-423.43
-386.22
-336.93
-285.36
-239.23
-201.91
-172.79
-149.46
-129.82
-112.79
-97.19
-80.58
-59.12
-29.18
10.32
56.45
102.98
142.66
169.79
181.93
179.86
166.28
144.39
117.10
87.09
57.33
31.37
13.12
5.91
11.39
28.57
53.53
80.21
102.01
113.88
113.88
103.46
86.32
66.59
47.19
29.28
12.82
-2.43
-16.19
-27.60
-35.83
-40.56
-42.22
-41.76
-40.11
-37.83
-35.01
-31.46
-27.02
-21.59
-15.02
-7.13
2.21
12.84
24.14
35.10
44.43
50.69
52.51
48.80
39.07
23.85
4.78
-15.55
-34.32
-49.21
-59.21
-64.88
-68.07
-71.18
-76.25
-84.26
-94.70
-105.73
-114.64
-118.89
-116.97
-109.33
-98.49
-88.47
-83.56
-86.82
-99.32
-120.07
-147.02
-178.15
-212.15
-248.26
-285.52
-322.02
-354.62
-379.53
-393.30
-393.90
-381.14
-356.45
-322.27
-281.40
-236.80
-191.49
-148.51
-110.48
-78.86
-53.51
-32.65
-13.63
6.02
27.69
51.49
76.66
102.34
127.94
153.07
176.94
198.04
214.38
224.22
226.99
223.70
216.63
208.49
201.51
197.02
195.58
197.51
203.04
212.03
223.32
234.21
240.90
239.55
227.93
206.56
178.85
150.11
125.75
109.53
102.58
103.48
109.20
116.39
122.39
125.64
125.51
121.93
115.01
104.91
92.01
76.99
60.90
44.96
30.28
17.62
7.20
-1.35
-8.87
-16.40
-24.78
-34.25
-44.22
-53.26
-59.66
-62.05
-60.09
-54.83
-48.48
-43.77
-42.95
-46.95
-54.97
-64.67
-72.98
-77.19
-75.89
-69.44
-59.66
-49.01
-39.63
-32.60
-27.82
-24.51
-21.72
-18.91
-15.97
-13.09
-10.29
-7.30
-3.66
1.01
6.66
12.66
17.97
21.55
22.71
21.43
18.32
14.47
11.02
8.92
8.62
10.03
12.64
15.72
18.62
20.94
22.62
23.78
24.54
24.87
24.64
23.71
22.16
20.30
18.59
17.38
16.79
16.59
16.37
15.77
14.58
12.93
11.15
9.65
8.77
8.60
9.02
9.67
10.12
9.96
8.88
6.82
3.89
0.44
-3.07
-6.19
-8.59
-10.14
-10.96
-11.38
-11.78
-12.55
-13.92
-15.91
-18.29
-20.62
-22.29
-22.63
-21.09
-17.41
-11.71
-4.54
3.32
11.00
17.82
23.38
27.61
30.67
32.81
34.20
34.94
35.02
34.48
33.47
32.21
31.03
30.20
29.89
30.13
30.83
31.84
33.06
34.47
36.12
38.11
40.55
43.55
47.16
51.36
55.97
60.67
64.91
68.08
69.51
68.55
64.70
57.53
46.84
32.66
15.40
-4.12
-24.74
-45.24
-64.63
-82.49
-98.95
-114.47
-129.50
-144.06
-157.65
-169.27
-177.74
-182.08
-181.87
-177.57
-170.43
-162.32
-155.23
-150.74
-149.56
-151.33
-154.56
-156.97
-155.92
-149.00
-134.77
-113.16
-85.75
-55.43
-25.62
0.65
21.56
36.77
47.08
53.78
58.08
60.94
63.34
66.62
72.58
82.97
98.58
118.40
139.48
157.62
168.77
170.38
162.16
145.95
124.74
101.47
78.26
56.13
35.44
16.44
-0.37
-14.16
-24.11
-29.77
-31.37
-29.77
-26.17
-21.80
-17.44
-13.31
-9.18
-4.73
0.15
5.19
9.85
13.62
16.32
18.12
19.49
20.90
22.64
24.76
27.15
29.65
32.13
34.50
36.65
38.41
39.63
40.17
40.01
39.23
37.89
36.05
33.71
30.91
27.72
24.25
20.59
16.77
12.74
8.45
3.95
-0.50
-4.46
-7.37
-8.70
-8.15
-5.75
-1.92
2.62
7.09
10.79
13.37
14.82
15.44
15.58
15.55
15.49
15.41
15.25
14.98
14.58
14.08
13.44
12.64
11.62
10.39
9.05
7.72
6.57
5.67
5.01
4.45
3.85
3.09
2.20
1.29
0.53
0.05
-0.19
-0.42
-1.00
-2.30
-4.64
-8.07
-12.44
-17.30
-22.05
-26.02
-28.59
-29.37
-28.27
-25.51
-21.54
-16.91
-12.16
-7.70
-3.82
-0.69
1.60
3.02
3.62
3.57
3.14
2.67
2.50
2.86
3.85
5.39
7.35
9.58
11.94
14.29
16.47
18.26
19.45
19.85
19.29
17.71
15.10
11.57
7.29
2.60
-2.10
-6.47
-10.39
-13.98
-17.60
-21.61
-26.18
-31.12
-35.92
-39.90
-42.42
-43.05
-41.69
-38.52
-33.93
-28.44
-22.58
-16.81
-11.47
-6.82
-3.03
-0.16
1.76
2.81
3.13
2.94
2.43
1.84
1.30
0.95
0.82
0.91
1.18
1.56
2.01
2.53
3.11
3.73
4.29
4.61
4.51
3.88
2.71
1.16
-0.57
-2.32
-4.08
-5.95
-8.14
-10.83
-14.03
-17.60
-21.17
-24.25
-26.29
-26.80
-25.52
-22.41
-17.77
-12.17
-6.27
-0.70
4.05
7.77
10.42
12.11
12.97
13.12
12.68
11.70
10.28
8.53
6.61
4.75
3.15
1.97
1.25
0.91
0.80
0.81
0.88
1.00
1.15
1.22
1.05
0.47
-0.59
-2.10
-3.94
-5.94
-8.02
-10.21
-12.54
-15.09
-17.92
-21.01
-24.28
-27.56
-30.53
-32.77
-33.85
-33.48
-31.60
-28.43
-24.40
-19.95
-15.46
-11.14
-7.12
-3.52
-0.45
2.02
3.98
5.79
8.11
11.77
17.50
25.61
35.71
46.70
56.99
65.00
69.69
70.92
69.45
66.57
63.66
61.68
60.91
61.07
61.48
61.35
60.01
57.06
52.56
47.04
41.45
36.71
33.28
30.74
27.73
22.56
13.95
1.85
-12.37
-26.34
-37.66
-44.79
-47.49
-46.64
-43.62
-39.64
-35.47
-31.48
-27.95
-25.21
-23.65
-23.44
-24.31
-25.55
-26.24
-25.62
-23.43
-19.97
-15.98
-12.30
-9.61
-8.24
-8.10
-8.81
-9.79
-10.54
-10.79
-10.57
-10.25
-10.34
-11.31
-13.39
-16.50
-20.34
-24.53
-28.84
-33.29
-38.19
-43.93
-50.82
-58.89
-67.79
-76.86
-85.24
-92.04
-96.47
-97.95
-96.15
-91.13
-83.40
-73.91
-63.87
-54.44
-46.35
-39.70
-33.98
-28.35
-22.09
-14.93
-7.26
0.11
6.23
10.50
12.88
13.89
14.35
14.97
16.07
17.56
19.06
20.33
21.47
22.84
24.77
27.22
29.60
31.11
31.05
29.31
26.40
23.28
20.79
19.38
18.90
18.80
18.47
17.42
15.50
12.72
9.21
5.08
0.46
-4.43
-9.21
-13.31
-16.07
-16.94
-15.60
-12.14
-7.03
-0.98
5.22
10.94
15.82
19.78
22.92
25.46
27.55
29.25
30.54
31.33
31.57
31.29
30.63
29.79
28.96
28.29
27.89
27.79
27.98
28.41
28.98
29.61
30.31
31.18
32.42
34.15
36.28
38.55
40.58
42.08
43.02
43.67
44.58
46.34
49.41
53.99
59.97
66.92
74.25
81.36
87.82
93.51
98.70
103.95
109.96
117.24
125.91
135.63
145.76
155.55
164.53
172.67
180.30
187.82
195.15
201.35
204.53
202.33
192.60
174.27
147.79
115.09
79.15
43.16
9.81
-19.32
-43.88
-64.56
-82.58
-99.09
-114.78
-129.68
-143.39
-155.49
-166.00
-175.53
-185.03
-195.36
-206.69
-218.36
-229.07
-237.49
-242.79
-245.13
-245.63
-246.00
-247.97
-252.76
-260.71
-271.06
-281.95
-290.31
-292.21
-283.50
-261.04
-224.00
-174.77
-118.75
-62.95
-13.88
24.36
50.85
67.32
76.70
81.68
83.94
84.28
83.32
82.00
81.61
83.23
87.24
92.92
98.76
102.98
104.13
101.26
93.96
82.03
65.38
44.23
19.29
-7.89
-35.18
-60.43
-82.41
-101.29
-118.50
-135.82
-154.21
-173.08
-190.33
-203.28
-209.59
-207.97
-198.05
-180.11
-154.71
-122.78
-85.91
-46.45
-7.22
29.36
61.94
90.48
115.77
138.52
158.84
176.20
189.98
200.10
207.18
212.06
215.06
215.55
212.12
203.34
188.80
169.62
148.37
128.25
112.15
101.92
98.03
99.46
103.83
107.57
106.47
96.55
75.23
42.17
-0.48
-48.93
-99.10
-148.07
-194.79
-239.59
-283.03
-324.91
-363.92
-398.16
-425.84
-445.55
-456.04
-455.69
-442.58
-415.34
-374.34
-322.57
-265.30
-208.55
-156.94
-112.24
-73.22
-36.75
0.38
39.98
81.87
124.14
164.00
198.83
226.91
248.00
263.41
275.55
287.20
300.71
317.39
337.38
359.72
382.61
403.52
419.32
426.57
422.19
404.25
372.64
329.24
277.43
221.25
164.32
109.18
57.10
8.36
-37.52
-81.56
-125.10
-169.49
-215.36
-261.94
-306.44
-344.22
-369.65
-377.67
-365.33
-332.61
-282.33
-219.00
-147.67
-72.99
0.98
70.56
132.37
183.61
222.69
249.55
265.52
272.39
271.54
263.59
248.83
228.31
204.50
181.22
162.54
151.40
148.69
153.33
163.10
175.50
188.05
198.07
202.35
197.29
179.97
149.31
106.82
56.39
2.95
-49.09
-96.97
-139.93
-178.74
-214.96
-250.20
-285.46
-320.68
-354.25
-382.94
-402.52
-409.13
-400.81
-378.54
-346.05
-308.59
-271.03
-236.47
-205.84
-178.61
-153.93
-131.45
-111.48
-94.64
-81.56
-73.12
-70.89
-77.11
-93.69
-120.50
-153.67
-185.39
-205.73
-205.88
-181.35
-133.67
-69.57
1.35
69.50
127.19
169.37
193.64
200.11
191.47
172.67
149.92
128.94
113.37
104.05
99.47
96.99
93.77
86.96
73.55
50.58
16.44
-27.26
-74.47
-115.43
-139.52
-138.95
-111.47
-60.75
5.56
78.79
151.61
218.77
276.62
322.19
352.90
367.15
365.22
349.76
325.29
296.91
268.83
243.26
220.03
196.85
170.25
136.95
95.32
46.46
-5.79
-56.02
-99.25
-132.80
-157.18
-175.42
-191.47
-208.17
-226.12
-243.49
-256.75
-261.80
-255.01
-234.14
-198.96
-151.77
-97.32
-41.80
8.82
50.74
83.39
109.03
131.00
151.56
170.50
185.12
191.69
187.05
169.71
139.82
98.34
46.58
-13.62
-78.69
-142.52
-196.69
-232.30
-242.75
-226.00
-184.85
-125.20
-53.52
24.83
105.40
183.35
252.18
304.12
332.22
333.01
307.85
262.43
204.74
142.87
83.63
32.07
-8.58
-37.25
-55.65
-68.44
-82.52
-105.05
-140.95
-190.97
-250.74
-311.83
-363.62
-396.16
-402.48
-380.60
-334.42
-273.24
-209.72
-156.60
-123.08
-112.30
-120.98
-140.86
-161.87
-175.19
-175.54
-161.81
-136.58
-104.81
-72.57
-45.97
-30.06
-27.79
-38.99
-60.07
-84.71
-105.56
-116.33
-113.37
-96.47
-68.73
-35.35
-2.13
26.18
47.14
61.10
70.77
79.81
91.22
106.26
124.36
143.88
163.33
182.10
200.66
219.97
240.69
262.48
283.88
302.79
317.20
325.89
328.71
326.19
318.97
307.17
290.39
268.05
240.10
207.51
172.16
136.01
100.11
64.15
26.75
-13.44
-56.61
-101.12
-143.71
-180.50
-208.23
-225.26
-231.92
-230.18
-222.89
-212.93
-202.58
-193.24
-185.46
-179.19
-174.05
-169.50
-164.92
-159.70
-153.38
-145.83
-137.36
-128.71
-120.73
-114.02
-108.60
-103.79
-98.50
-91.57
-82.24
-70.31
-56.19
-40.65
-24.60
-8.90
5.72
18.78
29.99
39.31
46.80
52.68
57.13
60.26
62.08
62.56
61.78
59.94
57.41
54.67
52.13
50.06
48.45
47.06
45.56
43.62
41.11
38.20
35.24
32.67
30.84
29.85
29.56
29.62
29.64
29.26
28.18
26.19
23.18
19.12
14.24
9.03
4.20
0.56
-1.26
-0.97
1.37
5.39
10.59
16.47
22.57
28.48
33.80
38.23
41.58
43.89
45.48
46.78
48.29
50.44
53.46
57.37
61.99
67.01
72.11
77.09
81.93
86.86
92.21
98.30
105.22
112.73
120.21
126.88
132.01
135.24
136.66
136.81
136.41
136.05
136.02
136.14
135.89
134.61
131.79
127.47
122.36
117.91
115.99
118.36
126.08
139.02
155.82
174.06
190.89
203.60
210.14
209.41
201.31
186.66
166.93
143.92
119.28
94.19
68.99
43.14
15.48
-15.31
-50.07
-88.84
-130.57
-173.23
-214.13
-250.29
-278.90
-297.74
-305.54
-302.13
-288.51
-266.61
-239.08
-208.80
-178.71
-151.44
-129.14
-113.33
-104.61
-102.60
-105.98
-112.79
-120.80
-127.99
-132.62
-133.32
-129.05
-119.09
-103.22
-82.15
-57.62
-32.34
-9.36
8.77
20.85
27.24
29.60
30.06
30.48
31.94
34.71
38.65
43.58
49.44
56.17
63.47
70.68
76.97
81.75
84.96
87.24
89.71
93.44
98.94
105.87
113.13
119.27
123.10
124.12
122.71
119.89
116.88
114.59
113.35
112.89
112.67
112.16
111.17
109.78
108.22
106.55
104.56
101.87
98.16
93.57
88.73
84.64
82.25
82.10
84.06
87.50
91.58
95.62
99.32
102.73
106.16
109.97
114.38
119.41
124.85
130.22
134.82
137.85
138.62
136.75
132.32
125.87
118.13
109.72
100.83
91.09
79.77
66.07
49.53
30.15
8.43
-14.82
-38.76
-62.62
-85.73
-107.40
-126.86
-143.33
-156.28
-165.68
-172.13
-176.91
-181.75
-188.50
-198.64
-212.82
-230.38
-249.31
-266.49
-278.45
-282.52
-277.64
-264.68
-246.01
-224.35
-201.73
-178.90
-155.55
-131.08
-105.33
-78.88
-52.71
-27.55
-3.63
19.20
40.76
60.04
75.11
83.68
84.16
76.46
62.21
44.25
25.77
9.33
-3.67
-13.13
-20.02
-25.92
-32.56
-41.26
-52.46
-65.32
-77.69
-86.63
-89.45
-85.06
-74.73
-62.04
-51.52
-46.80
-48.90
-55.61
-62.47
-64.72
-59.35
-46.44
-28.96
-11.53
1.34
6.63
3.76
-5.32
-16.69
-25.74
-29.01
-25.77
-18.89
-14.44
-19.82
-40.96
-79.55
-131.39
-186.91
-233.62
-259.82
-257.72
-225.20
-165.83
-87.63
-1.55
80.27
146.24
187.53
200.21
186.64
155.20
117.76
85.50
64.98
55.99
52.11
43.76
22.45
-15.66
-67.89
-125.63
-176.98
-210.67
-219.31
-201.22
-160.09
-102.90
-37.57
28.64
89.67
140.54
177.25
197.39
200.85
190.21
170.19
145.83
121.12
97.92
75.98
53.67
28.66
-1.71
-40.20
-89.13
-148.98
-216.76
-285.19
-343.76
-381.58
-391.21
-371.57
-328.40
-271.58
-211.31
-154.40
-102.97
-55.63
-9.94
35.81
82.36
130.24
180.11
231.67
281.87
323.86
348.53
348.23
320.68
271.12
210.54
150.93
100.28
59.92
25.64
-8.60
-46.97
-90.61
-138.96
-191.99
-250.97
-316.68
-386.59
-453.19
-505.51
-533.11
-530.89
-501.55
-454.31
-400.85
-350.68
-308.25
-273.06
-241.83
-211.30
-179.90
-147.92
-116.65
-87.27
-60.13
-34.82
-10.40
14.12
39.37
65.85
94.24
125.67
161.41
201.78
245.03
286.76
320.75
340.95
343.89
330.10
303.90
271.53
238.82
209.50
184.97
165.17
149.68
138.24
130.56
125.69
121.92
117.12
109.75
99.51
87.39
75.15
64.52
56.40
50.76
46.82
43.41
39.27
33.21
24.50
13.08
-0.13
-13.47
-25.07
-33.52
-38.47
-40.60
-41.16
-41.22
-41.21
-40.79
-39.34
-36.38
-31.92
-26.55
-21.10
-16.28
-12.17
-8.03
-2.38
6.51
19.81
37.41
57.67
77.88
95.31
108.33
117.03
123.14
129.40
138.54
152.61
172.07
195.33
218.66
236.59
242.95
232.47
202.55
154.65
94.73
32.23
-22.45
-60.83
-78.72
-76.98
-60.36
-34.69
-4.12
30.33
69.89
115.25
163.72
208.12
238.52
246.01
226.72
183.69
125.96
65.23
12.08
-26.67
-48.56
-54.29
-46.20
-27.35
-1.51
26.60
51.59
68.52
74.51
69.95
58.48
45.81
37.70
37.83
46.68
61.48
77.21
88.43
91.10
83.87
68.44
48.68
29.05
12.92
1.58
-5.78
-11.15
-16.72
-24.17
-34.59
-48.62
-66.45
-87.47
-109.73
-130.04
-144.76
-151.32
-149.39
-141.23
-130.71
-121.62
-116.10
-113.89
-112.95
-110.68
-105.16
-95.79
-82.98
-67.50
-49.77
-29.79
-7.61
16.07
39.58
60.66
77.24
88.34
94.45
97.35
99.38
102.52
107.77
114.88
122.60
129.22
133.13
133.32
129.60
122.58
113.46
103.85
95.62
90.68
90.58
95.91
105.67
117.08
126.11
128.71
122.21
106.15
82.22
53.11
21.33
-11.71
-45.50
-79.75
-113.65
-145.63
-173.76
-196.36
-212.45
-221.68
-224.10
-219.83
-209.09
-192.25
-169.99
-143.29
-113.37
-81.61
-49.53
-18.77
9.05
32.71
51.58
65.85
76.30
83.84
89.19
92.72
94.53
94.76
93.77
92.10
90.25
88.44
86.34
83.19
78.10
70.40
60.16
48.28
36.26
25.50
16.55
8.71
0.29
-10.51
-24.67
-41.79
-60.27
-78.11
-93.75
-106.41
-115.91
-122.20
-125.13
-124.72
-121.49
-116.62
-111.55
-107.15
-103.14
-98.16
-90.57
-79.58
-65.87
-51.32
-38.07
-27.31
-18.72
-10.83
-2.02
8.52
20.25
31.60
40.67
46.14
47.65
45.89
42.30
38.55
36.12
36.02
38.59
43.56
50.31
58.10
66.39
74.97
83.78
92.74
101.49
109.27
115.02
117.67
116.51
111.49
103.43
93.82
84.38
76.29
69.74
63.76
56.83
47.83
36.78
24.98
14.54
7.67
6.08
10.79
21.93
38.54
58.41
78.01
93.12
99.96
96.39
82.53
60.35
32.52
1.13
-32.80
-68.90
-106.17
-142.14
-172.84
-194.08
-203.21
-200.49
-189.34
-175.24
-163.68
-158.06
-158.46
-161.76
-163.05
-157.65
-143.13
-120.37
-93.30
-67.42
-47.67
-36.58
-33.60
-35.74
-39.37
-41.87
-42.68
-42.76
-43.46
-45.26
-47.45
-48.83
-48.72
-47.60
-46.77
-47.39
-49.58
-52.10
-53.08
-50.94
-45.19
-36.55
-26.40
-15.97
-5.63
5.26
18.09
34.33
54.62
77.88
101.03
119.53
128.84
126.37
112.82
92.11
69.67
49.87
33.97
19.73
3.02
-19.68
-48.99
-82.16
-114.21
-140.20
-157.11
-164.59
-164.30
-158.70
-149.73
-138.24
-124.14
-107.03
-87.01
-65.22
-43.91
-25.84
-13.40
-7.58
-7.48
-10.57
-13.73
-14.51
-11.99
-6.80
-0.38
6.05
12.09
17.94
23.72
28.86
31.96
31.27
25.38
13.62
-3.85
-26.21
-52.05
-79.28
-105.22
-126.99
-142.08
-149.05
-147.83
-139.54
-125.95
-109.10
-91.11
-74.13
-60.21
-50.82
-46.33
-45.95
-48.23
-51.81
-55.83
-59.70
-62.86
-65.00
-67.22
-72.94
-87.28
-114.49
-154.51
-200.78
-241.45
-263.78
-259.77
-229.51
-180.82
-124.85
-70.77
-22.45
21.41
64.37
108.97
154.92
199.42
238.62
269.23
289.39
298.58
297.52
287.55
270.01
245.53
213.62
172.49
119.77
54.06
-23.25
-106.70
-187.02
-253.20
-295.72
-309.66
-296.18
-261.76
-215.32
-165.19
-116.53
-71.14
-28.64
11.93
51.27
90.22
130.08
172.26
216.73
260.52
297.52
320.52
324.46
308.76
277.66
237.98
195.81
154.01
112.00
67.16
16.97
-39.86
-103.21
-171.73
-242.73
-311.76
-372.47
-417.61
-441.14
-440.45
-417.19
-376.70
-325.93
-271.28
-217.27
-166.40
-119.63
-76.93
-37.55
-0.09
37.14
75.44
114.98
154.58
191.81
223.62
246.56
257.30
253.28
233.49
199.29
154.65
105.26
56.88
13.59
-23.04
-53.46
-78.67
-98.93
-113.43
-121.11
-122.07
-118.31
-113.26
-110.13
-110.21
-112.12
-112.56
-108.01
-96.49
-78.50
-56.70
-34.57
-14.77
1.90
16.57
31.48
48.87
69.99
94.79
122.13
150.29
177.52
202.56
224.93
245.08
264.01
282.44
300.13
315.21
324.54
324.62
312.75
287.47
248.46
196.25
132.36
60.33
-13.53
-80.21
-129.96
-155.27
-153.53
-128.17
-87.51
-42.08
-1.64
26.91
40.44
39.65
28.47
13.14
0.67
-3.08
4.92
24.14
51.17
81.44
111.15
137.91
160.72
178.90
191.52
197.33
195.59
186.66
172.16
154.44
135.54
116.61
97.86
79.22
61.05
44.42
30.88
21.79
17.75
18.46
22.96
30.23
39.50
50.32
62.39
75.44
89.12
103.03
116.74
129.77
141.48
151.04
157.64
160.79
160.61
158.05
154.61
151.84
150.81
151.65
153.60
155.35
155.49
152.89
146.80
136.82
122.96
105.82
86.72
67.49
49.95
35.15
22.87
11.71
-0.27
-14.69
-32.25
-52.63
-74.96
-98.24
-121.61
-144.33
-165.76
-185.35
-202.71
-217.52
-229.12
-236.27
-237.23
-230.52
-215.87
-194.89
-170.81
-147.29
-126.91
-110.26
-96.09
-82.48
-68.03
-52.53
-36.59
-20.72
-4.69
12.42
31.49
52.40
73.68
92.83
107.36
115.85
118.52
117.13
114.22
112.09
111.98
113.75
116.20
117.76
117.26
114.41
109.83
104.63
99.84
95.91
92.66
89.33
85.01
78.86
70.11
58.01
41.85
21.11
-4.13
-32.74
-62.59
-90.89
-114.88
-132.65
-143.73
-149.14
-151.20
-152.80
-156.85
-165.65
-180.36
-200.51
-223.81
-246.29
-263.21
-270.32
-265.27
-248.33
-222.37
-191.61
-160.35
-131.73
-107.29
-87.22
-71.09
-58.34
-48.58
-41.51
-36.68
-33.52
-31.39
-29.76
-28.22
-26.51
-24.40
-21.58
-17.76
-12.75
-6.58
0.41
7.45
13.27
16.29
14.96
8.30
-3.53
-19.00
-35.35
-49.31
-58.13
-60.57
-57.36
-50.84
-44.00
-39.28
-37.64
-38.43
-39.90
-40.19
-38.13
-33.62
-27.39
-20.50
-13.78
-7.63
-2.05
3.17
8.39
14.04
20.56
28.18
36.60
44.65
50.30
51.18
45.36
32.33
13.51
-7.86
-27.59
-41.80
-48.14
-46.23
-37.46
-24.09
-8.51
7.09
20.61
29.73
32.03
25.83
11.19
-9.37
-31.30
-49.40
-59.74
-61.16
-55.53
-46.84
-39.44
-36.55
-39.25
-46.50
-55.57
-63.08
-66.22
-63.80
-57.11
-50.25
-49.62
-62.06
-92.25
-139.94
-198.68
-256.99
-301.73
-322.70
-316.04
-285.08
-238.26
-185.10
-132.77
-84.37
-39.66
2.92
44.40
85.06
125.19
165.91
208.74
254.05
299.36
339.09
366.11
374.30
361.17
328.56
281.48
225.72
165.94
104.99
44.60
-13.35
-66.30
-111.59
-147.68
-175.19
-196.99
-217.26
-239.99
-267.60
-300.06
-334.68
-366.84
-391.29
-403.60
-401.55
-385.58
-358.49
-324.19
-286.44
-247.79
-209.51
-172.16
-136.42
-103.62
-75.49
-53.36
-37.33
-26.10
-17.47
-9.38
-1.00
6.93
12.57
14.24
11.75
7.02
3.57
5.22
14.40
31.14
53.20
77.12
99.69
119.26
136.04
151.82
169.15
190.49
217.54
250.51
287.45
323.95
353.73
370.12
368.35
347.55
311.25
266.45
221.15
181.86
151.99
131.83
119.56
112.65
108.88
106.56
104.53
102.04
98.98
96.00
94.64
96.84
104.43
118.19
137.31
159.40
181.13
199.37
212.10
219.01
220.97
218.98
213.09
201.60
181.07
147.29
96.98
29.85
-49.93
-133.56
-209.35
-265.76
-294.65
-293.66
-266.88
-223.93
-177.61
-140.98
-124.30
-132.49
-163.92
-210.90
-262.06
-305.98
-334.71
-345.58
-340.76
-324.99
-302.80
-277.09
-249.30
-220.53
-192.38
-166.99
-146.18
-130.50
-119.19
-110.73
-103.88
-98.42
-94.90
-93.85
-94.70
-95.27
-92.26
-82.38
-63.56
-35.80
-1.15
36.96
74.80
109.41
139.25
164.41
186.32
206.85
227.14
246.68
263.04
272.70
272.66
262.13
243.36
220.98
200.32
185.18
176.54
172.57
170.09
166.40
160.68
154.14
149.09
147.36
149.27
153.45
157.66
160.02
159.70
156.95
152.45
146.65
139.55
131.14
121.96
113.42
107.39
105.48
108.19
114.72
123.23
131.69
138.59
143.52
147.04
150.34
154.66
160.79
168.84
178.31
188.47
198.78
209.14
219.73
230.72
241.83
252.28
260.99
266.95
269.60
268.77
264.58
257.23
246.91
233.91
218.87
202.82
187.00
172.49
159.81
148.70
138.18
126.94
113.76
98.01
79.71
59.54
38.48
17.40
-3.26
-23.66
-44.46
-66.61
-90.99
-118.21
-148.23
-180.13
-212.15
-242.00
-267.58
-287.76
-302.83
-314.34
-324.28
-333.97
-343.12
-349.56
-349.86
-340.56
-319.61
-287.31
-246.53
-201.88
-158.43
-120.28
-89.59
-66.43
-49.35
-36.49
-26.56
-19.28
-15.21
-15.17
-19.56
-28.16
-40.05
-53.70
-66.97
-77.06
-80.78
-75.09
-58.09
-29.95
6.71
47.28
86.35
119.35
143.62
158.85
166.29
167.82
165.07
159.19
151.25
142.74
135.54
131.16
129.67
129.10
125.84
116.03
97.45
70.77
39.39
7.83
-20.26
-43.62
-63.45
-82.31
-102.43
-124.62
-148.05
-171.13
-192.71
-212.87
-232.92
-254.58
-279.09
-306.61
-336.30
-366.88
-397.10
-425.71
-450.89
-469.91
-479.26
-475.69
-457.58
-425.91
-384.28
-337.73
-291.12
-247.69
-208.70
-173.70
-141.56
-111.09
-81.32
-51.31
-19.92
14.01
51.06
90.48
129.88
165.69
194.34
213.66
223.71
226.66
225.60
223.20
220.71
218.04
214.65
210.59
207.01
205.88
209.00
216.96
228.53
240.81
250.01
252.49
245.90
229.95
206.50
179.14
152.35
130.66
117.92
117.06
129.76
156.11
194.08
239.10
284.51
322.87
348.03
357.00
350.67
333.10
309.68
285.13
262.17
241.41
222.14
203.25
183.88
163.50
141.63
117.74
91.38
62.49
31.63
-0.13
-31.55
-61.70
-90.41
-118.37
-147.05
-178.21
-213.11
-251.69
-292.00
-330.42
-362.52
-384.57
-394.85
-394.25
-385.80
-373.32
-359.99
-347.45
-335.68
-323.75
-310.53
-295.23
-277.51
-257.28
-234.60
-209.81
-183.63
-157.28
-132.11
-109.34
-89.52
-72.45
-57.37
-43.31
-29.58
-15.89
-2.41
10.43
22.24
32.83
42.30
50.89
58.88
66.41
73.36
79.45
84.39
88.07
90.67
92.72
94.93
98.02
102.45
108.16
114.30
119.11
119.92
113.60
97.27
69.22
29.46
-20.11
-76.21
-134.93
-192.57
-246.08
-293.02
-331.31
-359.08
-374.67
-377.12
-366.62
-344.79
-314.44
-278.91
-241.21
-203.38
-166.25
-129.68
-93.06
-55.75
-17.33
22.32
62.88
103.48
142.60
178.26
208.56
232.22
249.12
260.13
266.71
270.21
271.46
270.87
268.66
265.31
261.39
257.37
253.16
248.12
241.39
232.50
221.82
210.60
200.50
192.78
187.66
184.10
180.22
174.05
164.44
151.60
137.05
123.13
112.02
104.93
101.56
100.23
98.59
94.74
88.13
79.80
71.89
66.60
65.13
67.23
71.44
75.86
78.93
79.85
78.30
74.08
66.69
55.43
39.69
19.33
-5.21
-32.97
-62.60
-92.52
-120.95
-146.15
-166.71
-181.82
-191.51
-196.41
-197.43
-195.26
-190.26
-182.56
-172.42
-160.44
-147.58
-134.90
-123.25
-113.00
-104.10
-96.08
-88.27
-79.90
-70.33
-59.21
-46.66
-33.18
-19.48
-6.20
6.27
17.65
27.59
35.55
40.95
43.49
43.45
41.75
39.62
38.15
37.77
38.17
38.51
37.88
35.77
32.23
27.89
23.63
20.22
18.05
16.99
16.44
15.61
13.80
10.69
6.41
1.53
-3.26
-7.34
-10.34
-12.26
-13.24
-13.47
-12.96
-11.56
-9.10
-5.65
-1.75
1.60
3.19
2.09
-2.04
-8.73
-16.99
-25.64
-33.61
-40.21
-45.13
-48.54
-51.17
-54.26
-59.41
-68.10
-81.04
-97.72
-116.32
-134.20
-148.68
-157.85
-161.15
-159.24
-153.57
-145.80
-137.20
-128.55
-120.22
-112.36
-105.17
-98.80
-93.25
-88.25
-83.23
-77.56
-70.90
-63.44
-55.84
-48.93
-43.23
-38.72
-34.88
-31.05
-26.78
-22.13
-17.50
-13.44
-10.34
-8.23
-6.85
-5.71
-4.30
-2.15
1.04
5.30
10.40
15.87
21.13
25.79
29.75
33.24
36.55
39.82
42.80
44.95
45.76
45.03
43.03
40.35
37.61
35.17
33.02
30.94
28.74
26.52
24.58
23.29
22.81
23.00
23.42
23.62
23.34
22.65
21.91
21.54
21.83
22.79
24.12
25.33
25.91
25.52
24.15
22.10
19.89
18.04
16.80
16.02
15.32
14.18
12.21
9.33
5.65
1.41
-3.10
-7.53
-11.44
-14.25
-15.44
-14.75
-12.38
-8.89
-5.06
-1.52
1.51
4.12
6.56
8.95
11.19
12.99
14.09
14.40
14.05
13.33
12.53
11.88
11.53
11.54
11.89
12.51
13.29
14.06
14.63
14.85
14.66
14.05
13.14
12.07
10.93
9.75
8.35
6.44
3.60
-0.40
-5.59
-11.59
-17.78
-23.48
-28.19
-31.76
-34.36
-36.26
-37.73
-38.80
-39.38
-39.34
-38.65
-37.42
-35.81
-33.94
-31.79
-29.32
-26.53
-23.54
-20.54
-17.69
-15.01
-12.46
-10.02
-7.88
-6.40
-5.91
-6.54
-8.01
-9.77
-11.28
-12.23
-12.66
-12.87
-13.12
-13.51
-13.94
-14.23
-14.35
-14.41
-14.59
-15.00
-15.64
-16.39
-17.08
-17.63
-18.06
-18.50
-19.14
-20.24
-21.97
-24.43
-27.58
-31.18
-34.85
-38.19
-40.87
-42.78
-43.98
-44.69
-45.13
-45.37
-45.45
-45.40
-45.43
-45.96
-47.59
-50.81
-55.78
-62.18
-69.34
-76.50
-83.05
-88.67
-93.25
-96.60
-98.42
-98.38
-96.19
-91.85
-85.32
-76.33
-64.09
-47.59
-26.10
0.07
29.26
58.78
85.73
107.98
124.71
136.25
143.54
147.44
148.46
146.86
143.01
137.57
131.32
124.84
118.20
111.04
102.90
93.58
83.40
73.15
63.76
56.09
50.60
47.27
45.67
45.04
44.54
43.44
41.37
38.40
34.96
31.60
28.64
26.01
23.21
19.67
15.06
9.52
3.66
-1.71
-5.93
-8.70
-10.19
-10.79
-10.94
-10.92
-10.86
-10.80
-10.83
-11.10
-11.69
-12.52
-13.29
-13.62
-13.28
-12.33
-11.21
-10.47
-10.59
-11.75
-13.69
-15.98
-18.16
-19.96
-21.38
-22.61
-23.92
-25.46
-27.21
-28.92
-30.17
-30.47
-29.36
-26.62
-22.37
-17.08
-11.53
-6.52
-2.72
-0.38
0.62
0.74
0.53
0.49
0.88
1.64
2.46
2.86
2.40
0.98
-1.00
-2.52
-2.21
1.34
8.98
20.74
35.73
52.49
69.51
85.59
100.06
112.63
123.08
131.12
136.25
137.89
135.54
128.92
118.06
103.37
85.73
66.45
47.18
29.58
14.86
3.43
-5.16
-11.86
-17.53
-22.31
-25.44
-25.65
-21.90
-14.10
-3.36
8.31
18.85
26.93
32.21
35.15
36.39
36.23
34.59
31.29
26.48
20.87
15.48
11.18
8.22
6.13
4.00
0.98
-3.25
-8.34
-13.49
-17.87
-21.04
-23.15
-24.74
-26.46
-28.64
-31.13
-33.47
-35.20
-36.24
-36.98
-38.05
-39.89
-42.46
-45.21
-47.44
-48.68
-49.00
-48.95
-49.22
-50.20
-51.84
-53.62
-54.83
-54.90
-53.51
-50.63
-46.41
-41.07
-34.80
-27.72
-19.90
-11.46
-2.57
6.41
15.08
23.03
29.99
35.93
40.92
45.06
48.38
50.88
52.61
53.76
54.62
55.43
56.17
56.57
56.24
55.04
53.27
51.73
51.30
52.49
55.00
57.80
59.54
59.24
56.68
52.46
47.55
42.66
37.91
32.74
26.35
18.19
8.30
-2.67
-13.77
-24.12
-33.21
-40.88
-47.15
-52.08
-55.61
-57.72
-58.46
-58.12
-57.21
-56.28
-55.82
-56.07
-56.97
-58.17
-59.23
-59.76
-59.45
-58.23
-56.10
-53.03
-48.87
-43.43
-36.60
-28.59
-20.01
-11.81
-4.90
0.18
3.43
5.32
6.43
7.08
7.26
6.69
5.18
2.85
0.22
-2.00
-3.19
-3.08
-1.81
0.17
2.29
4.01
5.00
5.13
4.55
3.64
2.91
2.90
3.98
6.16
9.12
12.24
14.83
16.39
16.64
15.58
13.36
10.14
6.11
1.56
-3.07
-7.20
-10.26
-11.96
-12.40
-12.07
-11.57
-11.36
-11.48
-11.69
-11.60
-10.98
-9.93
-8.81
-8.06
-7.97
-8.60
-9.82
-11.48
-13.50
-15.89
-18.72
-22.00
-25.69
-29.65
-33.79
-38.11
-42.63
-47.41
-52.39
-57.33
-61.82
-65.39
-67.57
-68.01
-66.58
-63.33
-58.44
-52.19
-44.92
-36.95
-28.65
-20.32
-12.22
-4.54
2.53
8.87
14.39
19.08
23.07
26.63
30.06
33.70
37.74
42.20
46.95
51.63
55.87
59.27
61.54
62.60
62.53
61.55
59.94
57.96
55.76
53.47
51.23
49.14
47.23
45.48
43.77
42.00
40.09
38.03
35.87
33.65
31.40
29.11
26.87
24.85
23.34
22.76
23.55
25.97
29.94
34.90
39.83
43.60
45.34
44.76
42.28
38.63
34.51
30.19
25.45
19.97
13.55
6.47
-0.63
-7.05
-12.27
-16.13
-18.71
-20.13
-20.39
-19.34
-16.89
-13.17
-8.69
-4.33
-1.11
0.14
-1.07
-4.86
-11.21
-20.20
-32.09
-47.02
-64.65
-83.71
-102.09
-117.36
-127.52
-131.70
-130.34
-124.80
-116.74
-107.50
-97.86
-88.15
-78.50
-69.05
-59.96
-51.33
-43.15
-35.32
-27.76
-20.46
-13.62
-7.51
-2.49
1.12
3.14
3.61
2.88
1.44
-0.19
-1.72
-3.12
-4.65
-6.61
-9.07
-11.74
-13.99
-15.11
-14.54
-12.05
-7.80
-2.29
3.75
9.55
14.38
17.75
19.45
19.66
18.82
17.47
16.10
14.97
14.13
13.42
12.56
11.26
9.27
6.48
2.93
-1.13
-5.27
-8.95
-11.61
-12.76
-12.09
-9.50
-5.15
0.54
7.00
13.66
20.05
25.96
31.40
36.58
41.67
46.70
51.45
55.49
58.34
59.63
59.30
57.59
54.95
51.87
48.77
45.80
42.97
40.19
37.35
34.34
31.07
27.48
23.48
19.10
14.47
9.86
5.59
1.81
-1.45
-4.36
-7.15
-10.00
-13.00
-16.07
-19.12
-22.01
-24.69
-27.12
-29.33
-31.36
-33.28
-35.15
-36.91
-38.40
-39.31
-39.29
-38.05
-35.47
-31.64
-26.79
-21.34
-15.72
-10.33
-5.55
-1.63
1.30
3.20
4.17
4.37
3.99
3.14
1.86
0.14
-2.03
-4.60
-7.41
-10.28
-13.07
-15.85
-18.85
-22.36
-26.55
-31.22
-35.76
-39.30
-40.98
-40.39
-37.81
-34.28
-31.27
-30.26
-32.21
-37.34
-45.20
-54.98
-66.00
-77.91
-90.70
-104.36
-118.55
-132.50
-145.12
-155.36
-162.50
-166.28
-166.81
-164.43
-159.67
-153.33
-146.32
-139.44
-132.92
-126.08
-117.46
-105.26
-88.38
-66.99
-42.97
-19.30
0.93
15.64
24.65
29.70
33.81
39.98
49.90
63.13
77.37
89.43
96.74
98.23
94.40
86.41
74.93
59.57
39.34
13.87
-15.59
-45.89
-73.01
-93.53
-105.82
-110.17
-107.87
-100.12
-87.39
-69.73
-47.63
-22.69
2.44
24.99
43.24
57.26
68.81
80.53
94.83
113.27
136.43
164.20
196.06
231.19
268.34
305.58
340.51
370.54
393.63
408.72
415.95
416.50
412.06
404.39
394.91
384.66
374.12
363.23
351.36
337.30
319.63
297.20
269.78
238.44
205.54
174.24
147.54
127.45
114.43
107.36
104.08
102.12
99.39
94.76
88.41
81.73
76.96
76.19
80.29
87.90
95.44
97.98
90.92
71.73
40.82
1.24
-42.58
-86.38
-127.10
-163.00
-193.17
-216.99
-233.94
-243.89
-247.50
-246.44
-243.23
-240.68
-241.27
-246.55
-256.72
-270.31
-284.51
-295.70
-300.58
-297.33
-286.25
-269.51
-250.07
-230.28
-211.16
-192.60
-174.24
-156.07
-138.25
-120.26
-100.20
-75.27
-43.45
-5.48
34.37
69.53
93.91
104.62
102.87
92.72
78.47
62.53
45.04
25.06
2.44
-21.37
-43.85
-62.89
-78.10
-90.97
-103.83
-118.36
-134.51
-150.45
-163.52
-171.44
-173.30
-169.74
-162.52
-153.66
-144.45
-135.02
-124.44
-111.39
-95.07
-75.92
-55.68
-36.77
-21.22
-9.78
-1.74
4.59
10.77
17.41
23.97
29.21
32.15
32.75
31.87
30.69
29.87
28.94
26.38
20.24
9.00
-7.82
-29.48
-54.43
-80.89
-107.47
-133.34
-158.13
-181.69
-203.83
-224.37
-243.25
-260.59
-276.56
-290.92
-302.67
-309.99
-310.75
-303.31
-287.40
-264.34
-236.70
-207.40
-178.72
-151.70
-126.17
-101.31
-76.45
-51.70
-28.11
-7.33
9.20
20.91
28.25
32.45
34.74
35.87
35.93
34.78
32.67
30.54
29.91
32.24
38.28
47.69
59.18
71.19
82.49
92.60
101.83
111.09
121.53
134.31
150.55
171.26
197.20
228.38
263.55
299.91
333.46
360.12
377.19
384.39
384.05
380.21
377.15
377.90
383.60
393.61
406.08
418.67
428.84
434.11
432.21
421.47
401.26
372.24
336.17
295.45
252.48
209.14
166.64
125.61
86.37
49.30
15.17
-14.79
-39.05
-56.23
-65.72
-68.16
-65.52
-60.60
-56.21
-54.35
-55.80
-60.15
-66.33
-73.10
-79.58
-85.45
-90.99
-96.93
-104.03
-112.59
-121.93
-130.20
-134.78
-133.30
-124.78
-110.29
-92.80
-75.99
-62.71
-53.83
-48.06
-42.77
-35.49
-25.12
-12.43
0.52
11.38
18.74
22.53
23.87
24.33
25.25
27.31
30.69
35.32
41.22
48.51
57.42
67.90
79.48
91.25
101.98
110.62
116.80
121.27
125.84
132.85
144.12
160.08
179.26
198.73
215.09
225.62
228.95
225.09
214.78
198.93
178.24
153.37
125.17
94.76
63.31
31.53
-0.59
-33.57
-67.79
-102.83
-137.20
-168.78
-195.67
-217.12
-233.86
-248.01
-262.28
-279.34
-301.14
-328.59
-361.18
-396.68
-431.11
-459.27
-476.05
-478.10
-464.95
-439.36
-406.13
-370.40
-335.84
-303.82
-273.46
-242.42
-208.29
-169.71
-127.46
-84.73
-46.80
-19.54
-7.61
-12.56
-32.03
-60.21
-89.67
-113.43
-126.68
-127.40
-116.08
-95.03
-67.73
-38.33
-11.24
9.58
21.50
24.01
18.89
9.65
0.39
-5.66
-7.03
-4.26
0.73
5.57
8.41
8.43
5.89
1.70
-2.94
-6.94
-9.54
-10.33
-9.33
-6.94
-3.90
-1.07
0.69
0.83
-0.82
-3.99
-8.06
-12.19
-15.51
-17.26
-16.91
-14.41
-10.21
-5.22
-0.54
3.00
5.30
7.24
10.51
17.08
28.40
44.83
65.44
88.34
111.41
133.10
152.82
171.13
189.37
209.02
231.12
255.74
281.93
307.98
332.06
352.99
370.76
386.71
403.14
422.49
446.26
474.09
503.44
530.17
549.88
559.50
558.36
548.26
532.33
513.54
493.40
471.66
447.09
418.69
386.55
351.87
316.18
280.40
244.27
206.72
166.58
123.32
77.07
28.27
-22.79
-75.93
-130.38
-184.05
-233.43
-274.61
-305.11
-325.48
-339.70
-353.94
-374.19
-404.22
-444.80
-494.50
-551.00
-611.71
-673.16
-729.85
-774.00
-796.98
-792.42
-759.17
-702.42
-632.18
-559.63
-493.16
-436.19
-387.57
-343.85
-302.09
-261.39
-222.68
-187.26
-155.46
-126.27
-98.11
-69.99
-42.11
-15.58
8.51
29.59
47.31
60.71
67.63
65.34
52.29
29.68
1.93
-24.88
-45.63
-58.32
-64.29
-66.67
-67.97
-68.50
-66.54
-59.85
-47.33
-29.55
-8.05
16.12
43.29
75.10
113.27
158.31
208.86
262.16
315.22
365.91
413.39
457.72
498.93
536.28
567.88
590.86
602.05
598.66
578.94
542.65
491.44
429.24
362.24
298.23
245.20
209.42
193.76
196.87
213.92
238.46
264.40
287.40
305.04
315.95
318.74
311.53
292.28
259.63
213.69
156.87
94.38
34.23
-13.92
-41.34
-43.57
-22.82
11.95
48.04
73.81
82.96
76.00
58.27
36.15
13.49
-9.44
-34.59
-63.68
-96.58
-131.38
-165.84
-199.35
-233.56
-271.59
-316.01
-366.30
-417.57
-461.25
-487.74
-490.05
-466.47
-420.85
-360.57
-293.21
-224.05
-155.83
-90.59
-31.80
14.88
43.27
49.68
35.42
6.96
-26.42
-56.29
-77.86
-90.53
-96.50
-98.29
-97.03
-92.32
-83.37
-70.24
-54.46
-38.34
-23.98
-12.23
-2.58
6.28
15.52
25.51
35.76
45.29
53.18
58.97
62.71
64.86
65.97
66.43
66.43
65.98
65.04
63.67
62.10
60.59
59.34
58.35
57.33
55.78
53.18
49.19
43.74
37.05
29.61
22.00
14.91
9.02
4.93
3.03
3.37
5.61
9.24
13.69
18.54
23.53
28.45
32.94
36.45
38.36
38.18
35.74
31.28
25.29
18.33
10.85
3.17
-4.51
-12.06
-19.34
-26.27
-32.75
-38.69
-43.92
-48.20
-51.30
-53.15
-53.85
-53.70
-53.03
-52.04
-50.77
-49.15
-47.14
-44.88
-42.55
-40.18
-37.54
-34.14
-29.47
-23.32
-15.93
-7.97
-0.25
6.54
12.04
16.11
18.75
19.97
19.91
18.89
17.46
16.24
15.65
15.69
15.89
15.58
14.18
11.57
8.04
4.23
0.79
-1.86
-3.64
-4.73
-5.45
-6.09
-6.82
-7.61
-8.28
-8.57
-8.28
-7.36
-6.04
-4.71
-3.91
-4.01
-5.09
-6.88
-8.85
-10.45
-11.33
-11.44
-11.06
-10.68
-10.78
-11.68
-13.49
-16.10
-19.34
-23.00
-26.98
-31.27
-35.80
-40.47
-45.07
-49.32
-53.02
-56.15
-58.84
-61.32
-63.73
-66.04
-68.05
-69.52
-70.34
-70.57
-70.40
-70.06
-69.71
-69.42
-69.29
-69.46
-70.17
-71.57
-73.51
-75.33
-75.99
-74.35
-69.78
-62.42
-53.27
-43.84
-35.55
-29.21
-24.80
-21.72
-19.27
-17.32
-16.57
-18.40
-24.20
-34.53
-48.46
-63.61
-76.93
-85.91
-89.66
-89.45
-88.19
-89.40
-95.85
-108.72
-127.40
-149.96
-173.99
-197.44
-218.95
-237.76
-253.08
-263.52
-266.86
-260.65
-243.11
-214.27
-176.27
-133.07
-89.38
-49.35
-15.76
10.18
28.67
40.93
48.92
54.91
60.96
68.07
75.75
82.29
85.88
86.20
85.43
88.15
99.50
122.53
155.83
193.33
226.26
246.85
251.82
243.82
230.12
219.46
218.60
230.23
252.45
279.89
305.32
321.42
321.95
303.15
264.47
208.63
140.91
67.19
-8.05
-83.16
-158.89
-236.46
-315.06
-390.33
-454.97
-501.10
-523.33
-520.91
-497.75
-460.50
-415.81
-368.00
-318.65
-267.80
-215.63
-163.50
-113.46
-66.89
-23.23
19.89
65.06
112.97
161.11
204.32
236.62
253.93
255.81
245.46
228.19
209.19
192.00
178.01
167.19
159.01
153.10
149.17
146.63
144.34
140.79
134.67
125.33
112.95
98.24
81.96
64.64
46.39
27.19
7.29
-12.49
-30.76
-45.88
-56.65
-62.82
-65.20
-65.31
-64.90
-65.60
-68.81
-75.75
-87.28
-103.39
-122.64
-141.90
-156.82
-162.95
-157.22
-138.77
-108.91
-70.35
-26.19
20.57
66.96
109.73
145.48
171.27
185.70
189.57
185.68
177.57
167.80
156.70
142.69
123.75
99.59
72.76
48.16
30.87
23.68
25.62
32.48
38.90
40.81
36.96
28.66
18.28
7.59
-2.96
-13.82
-25.24
-36.62
-46.55
-53.69
-57.59
-58.92
-58.99
-58.71
-57.93
-55.45
-49.70
-39.76
-26.08
-10.44
4.71
17.10
25.45
29.64
30.47
29.04
26.29
22.83
19.00
15.16
11.84
9.70
9.30
10.91
14.37
19.18
24.65
30.11
34.98
38.91
41.79
43.89
45.87
48.67
53.22
60.02
68.68
77.60
84.01
84.43
75.55
55.40
24.42
-14.10
-54.38
-89.54
-113.55
-123.02
-118.12
-102.42
-81.56
-61.47
-46.76
-39.49
-38.97
-42.21
-44.98
-43.13
-33.82
-16.42
7.36
34.08
59.74
81.12
96.70
106.83
113.20
118.01
123.16
129.84
138.39
148.32
158.49
167.17
172.36
172.13
165.04
150.60
129.39
103.00
73.69
44.08
16.84
-5.74
-22.05
-31.66
-35.43
-35.40
-34.16
-34.09
-36.57
-41.64
-48.13
-54.16
-57.96
-58.37
-55.27
-49.34
-41.71
-33.49
-25.41
-17.91
-11.28
-5.90
-2.31
-1.01
-2.12
-5.22
-9.32
-13.19
-15.82
-16.76
-16.23
-14.89
-13.45
-12.35
-11.53
-10.55
-8.91
-6.33
-2.89
0.94
4.59
7.54
9.53
10.55
10.71
10.23
9.32
8.24
7.21
6.34
5.53
4.44
2.65
-0.07
-3.61
-7.35
-10.38
-11.80
-11.06
-8.12
-3.40
2.39
8.52
14.35
19.40
23.34
25.95
27.23
27.36
26.73
25.85
25.17
25.00
25.35
26.03
26.69
26.95
26.58
25.51
23.88
22.04
20.42
19.35
18.89
18.69
18.00
15.95
11.94
5.98
-1.14
-8.08
-13.52
-16.75
-18.02
-18.54
-19.97
-23.68
-30.16
-38.83
-48.25
-56.77
-63.11
-66.89
-68.61
-69.37
-70.28
-72.04
-74.62
-77.29
-79.10
-79.15
-76.86
-72.15
-65.50
-58.12
-52.34
-51.74
-60.56
-82.00
-115.92
-157.16
-195.70
-219.28
-217.49
-185.64
-126.21
-47.43
40.08
126.50
204.45
268.82
315.87
343.02
349.97
340.28
321.86
305.44
301.09
314.55
344.99
385.50
425.56
454.77
465.94
456.56
428.48
386.39
335.88
281.76
227.43
174.79
124.79
77.92
34.37
-6.23
-44.99
-83.67
-124.01
-166.66
-210.26
-251.37
-285.26
-307.56
-315.85
-310.54
-294.65
-272.59
-248.72
-226.15
-206.37
-189.44
-174.70
-161.35
-148.78
-136.66
-124.82
-113.19
-101.66
-90.19
-78.83
-67.84
-57.58
-48.47
-40.72
-34.24
-28.74
-23.90
-19.69
-16.61
-15.49
-17.16
-21.95
-29.28
-37.74
-45.46
-50.75
-52.67
-51.23
-47.26
-41.88
-36.07
-30.37
-24.95
-19.79
-15.00
-10.88
-7.98
-6.87
-8.04
-11.73
-17.83
-25.68
-34.01
-41.01
-44.69
-43.40
-36.29
-23.62
-6.69
12.61
32.24
50.36
65.51
76.81
84.18
88.57
91.72
95.48
100.64
106.05
108.55
104.04
88.90
61.26
21.41
-28.28
-83.74
-139.52
-189.33
-227.01
-248.12
-251.37
-239.20
-216.86
-190.26
-163.91
-140.01
-119.04
-101.01
-86.48
-76.32
-70.83
-68.80
-67.72
-64.91
-58.80
-49.53
-38.34
-26.40
-13.65
1.31
20.39
44.70
73.51
103.87
131.14
149.99
155.70
145.32
118.44
77.51
27.46
-25.23
-73.94
-113.33
-140.32
-154.43
-157.27
-151.72
-141.00
-127.96
-114.74
-102.61
-91.98
-82.53
-73.39
-63.52
-52.11
-38.73
-23.58
-7.38
8.74
23.53
35.95
45.52
52.42
57.52
62.00
66.93
72.91
79.95
87.51
94.65
100.17
102.79
101.36
95.24
84.68
71.06
56.55
43.56
33.84
27.91
25.03
23.69
22.38
20.21
17.04
13.37
9.82
6.83
4.40
2.25
-0.02
-2.57
-5.14
-7.11
-7.66
-6.21
-2.70
2.30
7.79
12.85
16.99
20.34
23.38
26.56
29.99
33.33
36.02
37.55
37.75
36.82
35.31
34.01
33.77
35.23
38.57
43.34
48.50
52.79
55.21
55.36
53.49
50.19
45.82
40.30
33.19
24.09
13.08
0.89
-11.32
-22.47
-31.88
-39.41
-45.20
-49.37
-51.90
-52.76
-52.16
-50.74
-49.44
-48.96
-49.54
-50.89
-52.49
-54.04
-55.52
-56.94
-57.89
-57.40
-54.24
-47.75
-38.49
-28.20
-19.12
-12.81
-9.38
-7.57
-5.57
-2.20
2.38
6.83
9.47
9.29
6.49
2.25
-2.10
-5.86
-9.32
-13.46
-19.12
-26.50
-34.90
-43.07
-49.85
-54.71
-57.92
-60.26
-62.49
-64.87
-67.08
-68.37
-67.98
-65.55
-61.36
-56.19
-50.97
-46.30
-42.17
-37.96
-32.80
-26.00
-17.37
-7.13
4.51
17.70
33.06
51.36
72.91
97.08
122.22
146.23
167.38
184.97
199.53
212.41
225.19
239.01
254.39
271.36
289.70
309.14
329.46
350.33
371.24
391.48
410.19
426.43
439.25
447.76
451.14
448.78
440.27
425.58
405.09
379.61
350.38
318.92
286.78
255.32
225.45
197.55
171.60
147.30
124.21
101.89
79.91
58.02
36.36
15.58
-3.24
-18.95
-30.72
-38.49
-43.02
-45.67
-47.95
-51.05
-55.61
-61.74
-69.24
-77.77
-87.00
-96.49
-105.67
-113.85
-120.44
-125.16
-128.25
-130.49
-132.95
-136.69
-142.41
-150.49
-161.09
-174.39
-190.73
-210.43
-233.54
-259.55
-287.41
-315.83
-343.68
-370.13
-394.56
-416.08
-433.23
-444.03
-446.47
-439.18
-421.86
-395.39
-361.44
-322.00
-279.06
-234.52
-190.28
-148.21
-109.96
-76.52
-47.96
-23.45
-1.60
18.83
38.37
56.57
72.25
84.04
90.92
92.42
88.41
78.71
62.96
40.97
13.40
-17.53
-47.99
-73.33
-89.30
-93.41
-85.43
-67.21
-41.67
-11.85
19.77
51.26
80.89
106.75
126.81
139.35
143.66
140.47
131.99
121.34
111.67
105.08
101.98
101.17
100.80
99.68
98.31
98.87
104.12
115.77
133.14
153.07
170.87
182.21
184.64
178.12
164.50
146.23
125.40
103.34
80.92
58.98
38.32
19.39
1.75
-16.01
-35.64
-57.99
-81.94
-104.29
-120.81
-127.76
-123.32
-107.94
-83.62
-52.82
-17.43
21.24
61.86
102.36
139.75
170.60
192.03
202.71
203.17
195.44
182.08
165.17
145.75
123.75
98.61
70.19
39.36
7.98
-21.84
-48.76
-72.95
-96.04
-120.57
-149.31
-184.61
-227.80
-278.17
-332.08
-382.64
-420.97
-438.92
-432.34
-403.09
-358.69
-309.43
-264.50
-229.05
-203.60
-185.63
-172.08
-161.01
-151.75
-143.74
-135.58
-124.91
-109.45
-88.37
-62.94
-36.18
-11.69
7.81
21.55
30.73
37.79
45.06
53.80
63.70
73.37
81.18
86.30
89.06
90.65
92.39
94.99
98.22
101.10
102.44
101.19
96.50
87.44
72.85
51.60
23.29
-10.91
-47.87
-83.00
-111.63
-130.66
-139.78
-141.41
-139.67
-138.59
-140.65
-146.30
-154.52
-163.84
-173.06
-181.13
-186.59
-187.17
-180.22
-164.00
-139.00
-108.35
-76.83
-48.78
-26.07
-7.37
10.84
32.09
57.75
86.07
113.01
134.09
146.41
149.69
145.95
138.29
129.40
120.47
110.78
98.17
79.82
53.25
17.17
-27.83
-78.74
-130.05
-174.31
-203.59
-211.76
-196.94
-163.10
-119.65
-78.49
-49.78
-37.88
-39.81
-46.75
-47.97
-35.24
-5.75
37.63
88.16
138.00
180.47
211.16
228.06
231.07
221.64
202.43
176.95
148.95
121.79
97.79
77.86
61.41
46.78
31.91
15.16
-3.94
-24.58
-44.96
-62.92
-76.56
-84.83
-87.59
-85.58
-80.11
-72.72
-64.85
-57.64
-51.68
-47.01
-43.15
-39.27
-34.33
-27.33
-17.51
-4.87
9.53
23.30
33.06
35.26
27.49
9.68
-15.33
-42.27
-64.92
-77.88
-78.16
-65.70
-42.92
-13.64
18.04
48.42
74.34
93.20
103.03
102.91
93.44
76.84
56.41
35.43
16.06
-1.25
-17.57
-34.45
-52.95
-72.81
-92.57
-110.12
-123.54
-131.80
-134.82
-133.32
-128.22
-120.30
-109.91
-97.05
-81.61
-63.65
-43.70
-22.62
-1.18
20.59
43.60
69.39
99.16
132.89
168.93
204.47
236.50
262.68
281.61
292.52
294.76
287.52
270.21
242.95
206.98
164.48
117.99
69.79
21.57
-25.33
-69.53
-109.38
-143.02
-168.87
-186.12
-195.01
-196.83
-193.50
-187.01
-178.95
-170.37
-161.71
-153.10
-144.62
-136.41
-128.69
-121.62
-115.26
-109.50
-104.14
-98.98
-93.89
-88.92
-84.30
-80.37
-77.36
-75.28
-73.74
-72.05
-69.44
-65.34
-59.52
-52.06
-43.31
-33.58
-23.19
-12.44
-1.71
8.49
17.61
25.18
31.00
35.14
37.92
39.75
40.96
41.81
42.38
42.70
42.73
42.38
41.52
40.09
38.12
35.82
33.48
31.40
29.70
28.26
26.78
24.97
22.65
19.82
16.56
12.88
8.67
3.79
-1.68
-7.37
-12.58
-16.47
-18.34
-17.82
-14.94
-10.09
-3.82
3.22
10.44
17.35
23.62
29.06
33.61
37.28
40.03
41.76
42.37
41.82
40.31
38.18
35.88
33.75
31.94
30.34
28.71
26.80
24.51
21.88
18.98
15.88
12.53
8.82
4.68
0.14
-4.57
-9.21
-13.56
-17.58
-21.38
-25.06
-28.53
-31.47
-33.31
-33.52
-31.80
-28.21
-23.14
-17.12
-10.68
-4.16
2.24
8.39
14.10
19.12
23.14
25.94
27.45
27.84
27.41
26.52
25.43
24.26
23.01
21.69
20.38
19.27
18.47
17.99
17.64
17.13
16.19
14.68
12.62
10.14
7.37
4.40
1.25
-2.13
-5.72
-9.49
-13.29
-16.90
-20.00
-22.19
-23.04
-22.16
-19.32
-14.48
-7.86
0.09
8.79
17.62
26.01
33.51
39.91
45.13
49.31
52.67
55.45
57.95
60.40
63.00
65.88
69.07
72.45
75.76
78.53
80.26
80.48
78.91
75.59
70.87
65.29
59.52
54.11
49.46
45.81
43.24
41.73
41.20
41.41
42.02
42.60
42.73
42.12
40.72
38.76
36.71
35.10
34.31
34.47
35.37
36.57
37.50
37.65
36.68
34.42
30.87
26.11
20.32
13.72
6.71
-0.21
-6.46
-11.55
-15.19
-17.33
-18.14
-17.92
-17.03
-15.88
-14.89
-14.51
-15.11
-16.86
-19.61
-22.87
-25.98
-28.33
-29.59
-29.78
-29.21
-28.35
-27.57
-27.03
-26.73
-26.51
-26.23
-25.83
-25.38
-24.95
-24.65
-24.58
-24.87
-25.73
-27.32
-29.64
-32.29
-34.49
-35.22
-33.63
-29.41
-22.92
-15.03
-6.72
1.29
8.68
15.40
21.34
26.20
29.49
30.80
30.13
27.96
25.10
22.41
20.44
19.34
18.94
18.94
19.14
19.46
19.91
20.51
21.17
21.75
22.16
22.41
22.60
22.92
23.45
24.15
24.84
25.36
25.69
25.99
26.59
27.83
29.88
32.68
35.93
39.17
41.89
43.65
44.21
43.73
42.79
42.39
43.69
47.58
54.35
63.51
74.06
84.95
95.54
105.88
116.58
128.35
141.42
155.09
167.47
175.79
177.02
168.73
149.91
121.34
85.60
46.46
8.01
-26.41
-54.86
-77.22
-94.90
-110.18
-125.28
-141.53
-158.88
-176.00
-190.86
-201.58
-207.20
-208.01
-205.31
-200.93
-196.61
-193.58
-192.55
-193.71
-196.97
-201.98
-208.23
-215.10
-222.03
-228.63
-234.65
-239.80
-243.50
-244.70
-242.14
-234.86
-222.71
-206.65
-188.43
-169.88
-152.20
-135.65
-119.73
-103.74
-87.24
-70.19
-52.81
-35.36
-18.03
-0.99
15.41
30.71
44.47
56.49
66.93
76.29
85.26
94.64
105.12
117.07
130.19
143.09
153.28
157.66
153.41
139.11
115.43
84.94
51.27
17.89
-12.74
-39.29
-60.98
-77.01
-86.11
-86.94
-78.62
-61.38
-36.64
-6.63
26.19
59.73
92.57
123.97
153.80
182.54
211.30
241.61
275.11
312.78
354.28
397.39
438.05
470.97
490.93
494.21
479.77
449.52
407.74
359.73
310.25
262.49
217.75
175.88
135.94
96.88
57.85
18.26
-22.14
-63.15
-103.98
-143.24
-179.15
-210.09
-235.12
-254.30
-268.70
-279.81
-288.77
-295.54
-298.69
-295.80
-284.50
-263.72
-234.50
-199.86
-163.94
-130.65
-102.60
-80.78
-64.92
-54.15
-47.67
-44.79
-44.67
-46.06
-47.24
-46.48
-42.62
-35.50
-25.93
-15.26
-4.78
4.68
12.97
20.34
27.13
33.48
39.29
44.23
47.97
50.31
51.28
51.06
49.99
48.39
46.52
44.48
42.20
39.51
36.32
32.61
28.55
24.44
20.54
17.11
14.26
11.96
10.09
8.45
6.79
4.96
2.88
0.66
-1.51
-3.42
-5.01
-6.44
-8.06
-10.29
-13.37
-17.33
-21.83
-26.28
-30.00
-32.38
-33.01
-31.82
-29.03
-25.01
-20.23
-15.11
-9.93
-4.86
-0.02
4.52
8.70
12.46
15.78
18.66
21.10
23.07
24.52
25.43
25.83
25.79
25.43
24.86
24.12
23.18
22.01
20.56
18.87
17.06
15.25
13.58
12.06
10.64
9.18
7.56
5.71
3.61
1.30
-1.19
-3.82
-6.57
-9.43
-12.38
-15.41
-18.58
-21.91
-25.34
-28.62
-31.29
-32.72
-32.36
-29.92
-25.58
-19.92
-13.70
-7.65
-2.20
2.49
6.46
9.72
12.22
13.86
14.61
14.64
14.24
13.76
13.42
13.28
13.23
13.09
12.79
12.37
11.98
11.73
11.63
11.55
11.32
10.77
9.79
8.39
6.64
4.63
2.45
0.13
-2.27
-4.72
-7.13
-9.47
-11.81
-14.29
-17.14
-20.47
-24.20
-27.93
-31.02
-32.73
-32.51
-30.13
-25.76
-19.91
-13.23
-6.40
0.05
5.74
10.48
14.14
16.72
18.23
18.70
18.24
17.03
15.37
13.58
12.02
10.90
10.29
10.03
9.85
9.52
8.89
7.97
6.84
5.63
4.38
3.03
1.52
-0.20
-2.11
-4.15
-6.20
-8.27
-10.32
-12.38
-14.46
-16.57
-18.76
-21.13
-23.87
-27.11
-30.88
-34.97
-38.87
-41.88
-43.30
-42.60
-39.62
-34.58
-28.07
-20.80
-13.50
-6.78
-1.08
3.36
6.41
8.12
8.64
8.22
7.23
6.02
4.92
4.13
3.68
3.40
3.01
2.15
0.56
-1.85
-4.94
-8.42
-11.97
-15.39
-18.65
-21.99
-25.71
-30.08
-35.21
-40.94
-46.99
-53.03
-58.91
-64.64
-70.47
-76.69
-83.56
-91.15
-99.39
-108.01
-116.58
-124.54
-131.25
-136.03
-138.30
-137.65
-133.91
-127.17
-117.73
-106.10
-92.87
-78.69
-64.24
-50.19
-37.18
-25.63
-15.60
-6.62
2.39
12.81
25.87
42.09
60.88
80.54
98.79
113.52
123.58
129.07
131.27
131.98
132.81
134.60
137.23
139.91
141.56
141.30
138.60
133.24
125.01
113.68
98.98
80.95
60.04
37.21
13.73
-9.06
-30.01
-48.29
-63.29
-74.57
-81.76
-84.57
-82.81
-76.50
-65.90
-51.56
-34.36
-15.39
4.10
22.95
40.21
55.24
67.72
77.47
84.43
88.60
90.14
89.43
87.04
83.66
79.94
76.36
73.23
70.62
68.53
66.84
65.39
64.03
62.75
61.77
61.53
62.53
65.07
69.09
74.17
79.66
84.92
89.46
93.00
95.49
97.01
97.77
97.98
97.66
96.54
94.02
89.36
82.06
72.21
60.56
48.34
36.74
26.56
18.12
11.36
6.08
2.14
-0.59
-2.32
-3.39
-4.22
-5.15
-6.33
-7.70
-9.17
-10.78
-12.76
-15.49
-19.32
-24.41
-30.46
-36.73
-42.06
-45.20
-45.17
-41.67
-35.25
-27.15
-18.90
-11.62
-5.60
-0.11
6.07
14.06
24.11
35.43
46.35
55.00
60.10
61.38
59.61
56.22
52.69
50.04
48.61
48.20
48.27
48.35
48.08
47.35
46.17
44.54
42.38
39.49
35.67
30.78
24.83
17.99
10.44
2.38
-6.10
-14.81
-23.54
-31.84
-39.17
-44.98
-48.91
-50.99
-51.60
-51.48
-51.41
-52.01
-53.49
-55.65
-57.98
-59.93
-61.18
-61.81
-62.27
-63.15
-64.93
-67.73
-71.31
-75.22
-78.88
-81.83
-83.67
-84.11
-82.95
-80.10
-75.73
-70.26
-64.32
-58.41
-52.68
-46.79
-39.99
-31.53
-21.16
-9.41
2.52
13.18
21.52
27.28
30.89
33.10
34.42
34.85
33.91
31.09
26.18
19.54
12.05
4.79
-1.29
-5.55
-7.85
-8.46
-8.08
-7.74
-8.66
-12.10
-19.06
-30.07
-44.97
-62.84
-82.15
-101.06
-117.90
-131.55
-141.55
-148.04
-151.44
-152.08
-150.16
-145.84
-139.41
-131.33
-122.05
-111.73
-100.20
-87.10
-72.37
-56.62
-41.16
-27.67
-17.53
-11.32
-8.67
-8.60
-10.10
-12.50
-15.62
-19.58
-24.48
-30.28
-36.82
-44.04
-52.12
-61.58
-73.18
-87.75
-105.84
-127.52
-152.13
-178.27
-203.99
-227.21
-246.21
-260.06
-268.83
-273.45
-275.38
-276.14
-276.80
-277.63
-277.97
-276.39
-271.15
-260.95
-245.63
-226.34
-205.19
-184.44
-165.57
-148.89
-133.79
-119.17
-104.03
-87.69
-69.71
-49.72
-27.42
-2.72
24.02
51.83
79.34
105.14
128.17
147.89
164.35
177.93
189.26
199.04
207.83
215.85
222.76
227.73
229.69
227.76
221.65
211.90
199.79
187.05
175.40
166.07
159.58
155.64
153.52
152.37
151.66
151.29
151.52
152.78
155.47
159.97
166.58
175.45
186.39
198.68
210.98
221.67
229.53
234.24
236.51
237.55
238.30
238.77
238.00
234.45
226.69
214.03
196.71
175.90
153.32
130.82
109.96
91.75
76.74
65.23
57.73
55.02
58.03
67.08
81.23
97.84
112.91
122.00
121.51
109.62
86.70
55.02
17.98
-20.85
-58.49
-92.97
-123.38
-149.60
-171.94
-190.94
-207.25
-221.72
-235.20
-248.31
-260.97
-272.18
-280.12
-282.84
-279.21
-269.81
-257.06
-244.57
-235.73
-232.11
-232.53
-233.35
-229.69
-217.27
-193.83
-159.65
-117.30
-70.91
-25.19
15.20
46.55
66.96
77.09
80.21
81.23
84.81
93.42
106.23
119.54
128.30
128.29
117.69
97.71
72.03
45.63
23.31
8.48
2.40
4.35
12.27
23.86
37.51
52.47
68.44
84.63
99.30
110.07
115.01
113.79
108.18
101.29
96.02
93.62
93.17
92.41
89.48
84.42
79.50
78.05
82.40
92.16
103.79
111.77
110.95
98.65
75.88
46.70
16.60
-9.51
-28.65
-40.05
-44.46
-43.17
-37.30
-27.78
-15.83
-3.41
6.64
11.42
8.92
-1.18
-17.36
-36.99
-57.20
-75.51
-89.88
-98.39
-99.17
-90.78
-73.05
-47.91
-19.55
6.35
24.12
30.00
23.51
7.86
-10.81
-25.21
-29.03
-18.78
5.32
39.45
77.56
113.10
140.64
156.90
160.85
153.38
136.68
113.84
88.53
64.74
46.18
35.43
33.25
38.28
47.75
58.75
69.83
81.77
97.09
118.39
146.29
178.13
208.22
229.71
237.22
228.77
206.22
173.97
136.87
98.45
60.40
23.28
-12.17
-44.30
-70.69
-89.21
-99.12
-101.40
-98.07
-90.77
-79.77
-63.81
-40.94
-10.00
28.26
70.86
113.10
149.52
174.92
185.05
177.06
150.22
106.66
51.95
-5.24
-54.94
-88.91
-103.62
-101.57
-90.22
-78.93
-75.40
-83.40
-102.48
-129.32
-159.61
-189.25
-214.57
-232.12
-238.76
-232.22
-211.64
-177.75
-132.63
-79.28
-21.60
35.59
86.71
126.36
150.80
159.15
153.42
137.34
114.54
87.33
56.75
23.62
-10.21
-41.80
-68.22
-88.10
-102.63
-115.21
-129.85
-149.34
-174.47
-204.31
-237.19
-271.28
-304.58
-334.00
-354.75
-360.97
-347.10
-309.80
-248.89
-167.46
-71.02
33.35
137.76
234.02
314.41
372.79
405.68
412.81
396.98
363.28
318.12
268.41
220.59
179.36
146.38
119.70
94.66
66.21
31.75
-7.27
-45.98
-78.95
-103.42
-121.01
-136.96
-157.40
-186.35
-224.31
-269.07
-317.99
-370.05
-425.94
-486.16
-548.27
-605.33
-647.11
-663.72
-649.87
-607.40
-544.66
-472.90
-401.75
-336.18
-275.93
-217.43
-156.80
-92.23
-24.67
42.72
106.04
161.99
208.51
245.00
272.09
291.10
303.74
311.91
317.74
323.59
331.75
343.97
360.77
381.11
402.66
422.60
438.74
450.13
457.23
461.34
463.98
466.44
469.78
474.65
481.00
487.53
491.32
488.13
473.81
445.84
404.72
353.91
298.49
243.10
190.29
140.10
90.98
41.39
-9.07
-59.60
-109.15
-157.28
-204.29
-250.57
-295.49
-336.93
-371.65
-396.39
-409.19
-410.11
-401.13
-385.67
-367.91
-352.27
-343.09
-344.21
-358.24
-385.61
-423.89
-467.70
-509.70
-542.54
-561.37
-565.85
-560.67
-553.89
-553.39
-563.03
-580.43
-597.75
-605.13
-595.20
-566.11
-521.60
-468.46
-412.98
-358.60
-305.82
-253.84
-202.65
-153.87
-110.05
-72.89
-41.94
-14.49
13.17
43.88
78.20
114.14
148.27
177.30
199.62
215.88
228.58
240.90
255.69
274.69
298.24
325.15
352.54
376.06
390.61
391.79
377.57
349.40
311.97
271.58
233.98
202.73
179.03
162.71
153.57
151.92
157.81
169.90
184.82
198.00
205.50
205.83
200.41
192.45
184.96
178.92
172.86
163.97
150.00
130.74
108.37
86.40
68.02
54.69
45.75
38.99
31.99
23.30
13.04
2.74
-5.47
-9.64
-8.48
-1.58
10.56
26.29
42.60
55.45
60.83
56.59
43.99
28.13
16.55
16.37
31.38
60.35
97.57
135.15
165.94
185.53
192.67
188.43
174.79
153.86
127.75
99.16
71.51
48.65
33.59
27.21
27.58
30.41
30.62
24.23
9.65
-11.99
-37.84
-64.51
-89.25
-110.28
-126.58
-137.35
-141.87
-139.76
-131.47
-118.42
-102.69
-86.23
-70.13
-54.42
-38.46
-21.87
-5.27
9.47
19.68
22.92
18.00
5.72
-11.00
-27.82
-40.20
-44.86
-40.85
-29.94
-15.74
-2.34
7.48
13.33
17.16
22.03
30.44
43.09
58.50
73.98
86.76
95.15
98.82
98.40
94.97
89.65
83.68
78.62
76.26
78.10
84.50
94.13
103.83
109.49
107.35
95.29
73.56
44.77
13.11
-16.91
-41.71
-59.48
-70.51
-76.80
-81.13
-86.05
-93.09
-102.56
-113.88
-126.32
-139.58
-153.85
-169.48
-186.29
-203.17
-217.97
-227.89
-230.10
-222.26
-203.03
-172.43
-132.16
-85.59
-37.44
7.15
43.87
70.39
86.87
95.64
100.15
103.76
108.77
116.00
125.01
134.49
142.75
148.15
149.53
146.47
139.44
129.67
118.69
107.81
97.71
88.31
78.99
69.00
57.95
46.03
34.09
23.30
14.84
9.37
6.81
6.15
5.86
4.40
1.00
-3.84
-8.30
-9.98
-6.80
2.07
15.94
32.81
50.02
64.87
75.13
79.32
76.97
68.80
56.72
43.35
31.13
21.44
14.09
7.74
0.75
-8.01
-19.01
-32.50
-49.18
-70.14
-96.13
-126.52
-158.68
-188.48
-211.68
-225.44
-229.22
-224.55
-213.90
-199.64
-183.40
-166.19
-148.87
-132.49
-118.06
-106.18
-96.61
-88.25
-79.53
-69.10
-56.30
-41.42
-25.43
-9.58
4.99
17.53
27.75
35.61
41.29
44.93
46.59
46.17
43.52
38.52
31.27
22.22
12.14
2.00
-7.23
-14.84
-20.42
-23.90
-25.50
-25.49
-24.14
-21.67
-18.25
-14.00
-9.09
-3.70
2.01
7.86
13.75
19.52
24.93
29.68
33.43
35.94
37.32
37.92
38.29
38.91
39.90
41.08
42.03
42.43
42.18
41.52
40.77
40.15
39.65
39.06
38.14
36.71
34.76
32.31
29.37
25.82
21.53
16.42
10.60
4.39
-1.74
-7.42
-12.48
-17.00
-21.32
-25.83
-30.72
-35.87
-40.76
-44.55
-46.39
-45.66
-42.09
-35.70
-26.61
-14.92
-0.70
15.76
33.81
52.32
69.89
85.16
97.14
105.36
109.81
110.72
108.47
103.61
96.90
89.42
82.31
76.47
72.25
69.28
66.74
63.82
60.13
55.97
52.25
50.09
50.40
53.53
59.16
66.29
73.53
79.40
82.78
83.19
80.97
77.07
72.68
68.85
66.09
64.44
63.57
63.07
62.69
62.39
62.43
63.32
65.92
71.34
80.72
94.89
113.96
137.07
162.42
187.68
210.43
228.60
240.61
245.42
242.40
231.41
212.98
188.39
159.60
128.90
98.27
69.04
41.81
16.77
-5.84
-25.58
-41.89
-54.47
-63.54
-69.92
-74.70
-78.79
-82.68
-86.34
-89.49
-91.93
-93.69
-95.14
-96.79
-99.12
-102.38
-106.47
-110.93
-115.05
-118.08
-119.51
-119.32
-117.90
-116.02
-114.49
-113.84
-114.11
-114.76
-114.92
-113.70
-110.63
-105.93
-100.51
-95.73
-93.02
-93.43
-97.48
-105.01
-115.24
-126.91
-138.42
-148.10
-154.52
-156.85
-155.15
-150.39
-144.15
-138.18
-133.86
-131.85
-132.05
-133.66
-135.43
-135.92
-133.81
-128.21
-119.02
-107.04
-93.80
-81.13
-70.49
-62.52
-56.89
-52.63
-48.67
-44.29
-39.33
-33.95
-28.27
-22.12
-15.05
-6.47
3.99
16.33
30.25
45.28
61.00
77.10
93.43
109.88
126.31
142.53
158.18
172.78
185.65
196.10
203.63
208.22
210.48
211.49
212.41
213.99
216.29
218.68
220.29
220.45
219.16
217.10
215.31
214.76
215.89
218.47
221.53
223.61
222.85
217.30
205.16
185.23
157.42
123.20
85.61
48.73
16.63
-7.82
-23.63
-31.70
-34.05
-32.85
-29.65
-25.28
-20.32
-15.67
-12.94
-14.19
-21.15
-34.36
-52.68
-73.46
-93.35
-109.34
-119.66
-124.25
-124.46
-122.30
-119.55
-117.15
-115.14
-113.10
-110.71
-108.14
-105.99
-104.86
-104.92
-105.71
-106.34
-105.95
-104.12
-101.12
-97.65
-94.51
-92.20
-90.76
-89.86
-89.02
-87.93
-86.55
-85.12
-83.93
-83.27
-83.24
-83.84
-85.00
-86.57
-88.30
-89.79
-90.48
-89.64
-86.53
-80.58
-71.50
-59.42
-44.96
-29.14
-13.33
1.03
12.69
20.89
25.51
26.99
26.19
24.00
21.21
18.34
15.70
13.47
11.71
10.41
9.34
8.15
6.40
3.82
0.38
-3.61
-7.65
-11.26
-14.29
-16.92
-19.63
-22.84
-26.74
-31.12
-35.46
-39.23
-42.14
-44.24
-45.91
-47.69
-50.09
-53.41
-57.57
-62.01
-65.64
-66.91
-64.18
-56.26
-42.90
-25.11
-4.90
15.23
33.06
47.11
56.88
62.61
64.95
64.64
62.41
58.98
55.08
51.34
48.15
45.54
43.26
40.94
38.40
35.71
33.11
30.85
28.93
27.12
25.00
22.26
18.55
13.60
7.08
-1.23
-11.17
-21.97
-32.31
-40.70
-46.12
-48.49
-48.81
-48.68
-49.67
-52.69
-57.79
-64.23
-70.75
-75.89
-78.10
-75.96
-68.52
-55.67
-38.46
-19.06
-0.16
15.79
27.33
34.31
37.65
38.69
38.62
38.10
37.30
36.12
34.44
32.21
29.39
25.94
21.88
17.34
12.70
8.50
5.27
3.29
2.51
2.53
2.80
2.83
2.26
0.92
-1.29
-4.38
-8.31
-12.92
-17.85
-22.67
-27.00
-30.69
-33.93
-37.15
-40.82
-45.05
-49.38
-52.67
-53.32
-49.72
-40.73
-26.15
-6.90
15.03
37.03
56.31
70.51
78.14
78.87
73.57
64.05
52.63
41.49
32.12
24.93
19.28
13.74
6.70
-3.06
-15.84
-30.95
-47.01
-62.44
-76.09
-87.56
-97.25
-106.08
-115.15
-125.40
-137.37
-151.07
-165.95
-180.90
-194.54
-205.49
-212.84
-216.37
-216.62
-214.67
-211.87
-209.60
-208.94
-210.48
-214.00
-218.22
-220.78
-218.77
-209.44
-191.32
-164.85
-132.47
-97.89
-64.88
-36.14
-12.69
5.92
20.86
33.19
43.33
51.13
56.39
59.26
60.40
60.72
60.95
61.43
62.24
63.45
65.44
68.81
74.17
81.86
91.70
103.02
114.82
126.03
135.75
143.50
149.30
153.75
157.82
162.58
168.85
177.09
187.31
199.25
212.44
226.15
239.19
249.83
255.88
255.37
247.28
232.23
212.61
192.06
174.30
161.97
155.85
155.02
157.67
162.22
168.14
175.96
186.63
200.53
216.95
234.08
249.57
261.16
266.91
265.22
254.60
233.76
202.18
161.00
113.45
64.48
19.42
-17.70
-45.34
-64.61
-78.21
-89.00
-98.85
-108.49
-118.23
-128.79
-141.59
-158.20
-179.30
-203.91
-229.55
-253.31
-273.24
-289.08
-302.11
-314.01
-325.66
-336.32
-343.66
-344.64
-336.61
-318.26
-290.00
-253.85
-212.88
-170.45
-129.54
-92.18
-59.39
-31.20
-7.07
13.68
31.61
47.10
60.43
71.88
81.75
90.27
97.59
103.69
108.46
111.80
113.74
114.41
114.09
113.05
111.46
109.37
106.60
102.79
97.64
91.09
83.64
76.44
70.96
68.40
69.05
72.06
75.69
78.06
77.93
75.08
70.13
64.00
57.37
50.62
43.99
37.96
33.37
31.12
31.69
34.70
38.94
42.81
45.05
45.29
44.13
42.68
41.73
41.10
39.45
34.76
25.15
9.78
-10.81
-34.81
-59.76
-83.34
-103.86
-120.54
-133.44
-143.18
-150.63
-156.63
-161.85
-166.69
-171.40
-176.14
-181.07
-186.42
-192.46
-199.48
-207.82
-217.77
-229.46
-242.47
-255.51
-266.27
-271.79
-269.40
-257.74
-237.56
-211.65
-183.90
-157.90
-135.72
-117.43
-101.61
-86.34
-70.26
-53.14
-35.75
-19.32
-4.92
6.91
16.17
23.24
28.74
33.28
37.41
41.55
45.95
50.70
55.69
60.69
65.37
69.36
72.23
73.80
74.29
74.61
76.18
80.47
88.25
99.06
111.22
122.37
130.53
134.89
135.97
135.23
134.09
133.34
132.80
131.69
129.14
124.63
118.20
110.27
101.50
92.52
83.86
75.92
68.94
63.12
58.63
55.56
53.81
52.92
52.06
50.19
46.42
40.28
31.89
21.70
10.35
-1.63
-13.63
-24.93
-34.48
-41.16
-44.01
-42.60
-37.25
-28.85
-18.66
-7.91
2.33
11.21
18.02
22.10
22.95
20.36
14.64
6.78
-1.63
-8.76
-13.10
-14.04
-12.07
-8.61
-5.24
-2.93
-1.40
1.04
6.92
18.70
37.71
63.54
93.98
125.72
155.42
180.78
201.29
218.25
234.05
250.97
269.97
289.90
307.73
319.53
322.01
313.87
296.22
272.08
245.05
218.07
192.62
168.96
146.78
125.92
106.48
88.52
71.59
54.54
35.96
14.80
-9.02
-34.53
-60.13
-84.29
-106.23
-126.04
-144.44
-162.25
-179.75
-196.56
-211.65
-223.93
-232.64
-237.70
-239.68
-239.50
-238.09
-236.13
-233.92
-231.49
-228.70
-225.22
-220.53
-214.00
-204.96
-192.94
-177.88
-160.16
-140.49
-119.68
-98.37
-77.01
-55.97
-35.69
-16.79
0.07
14.43
26.30
36.19
44.92
53.29
61.78
70.46
79.03
87.10
94.33
100.69
106.43
112.17
118.66
126.52
135.98
146.64
157.48
167.15
174.47
178.75
180.15
179.44
177.66
175.68
173.90
172.17
169.99
166.72
161.78
154.86
145.88
135.03
122.76
109.75
96.80
84.72
74.14
65.37
58.44
53.15
49.24
46.43
44.41
42.77
40.98
38.42
34.68
29.72
24.00
18.24
13.12
8.90
5.32
1.70
-2.65
-8.11
-14.58
-21.61
-28.58
-34.95
-40.29
-44.22
-46.27
-46.09
-43.60
-39.30
-34.23
-29.67
-26.67
-25.58
-26.01
-27.19
-28.46
-29.72
-31.50
-34.57
-39.53
-46.42
-54.72
-63.63
-72.40
-80.58
-88.04
-94.73
-100.66
-105.82
-110.36
-114.62
-119.13
-124.32
-130.28
-136.61
-142.55
-147.34
-150.49
-151.96
-151.84
-149.98
-145.74
-138.15
-126.41
-110.45
-91.23
-70.49
-50.07
-31.27
-14.52
0.40
13.93
26.27
37.26
46.54
53.83
59.11
62.61
64.68
65.59
65.49
64.40
62.28
59.10
54.89
49.83
44.25
38.61
33.34
28.71
24.77
21.33
18.21
15.33
12.86
11.06
10.19
10.34
11.43
13.24
15.51
18.06
20.75
23.52
26.31
29.06
31.70
34.18
36.51
38.77
41.08
43.62
46.54
49.90
53.59
57.27
60.35
62.10
61.81
59.06
53.83
46.57
38.03
29.01
20.08
11.50
3.23
-4.88
-12.94
-20.95
-28.74
-36.17
-43.17
-49.78
-56.02
-61.79
-66.77
-70.51
-72.63
-73.05
-72.04
-70.09
-67.62
-64.86
-61.75
-58.26
-54.63
-51.47
-49.70
-50.08
-52.83
-57.45
-62.77
-67.38
-70.09
-70.29
-68.07
-64.16
-59.59
-55.46
-52.62
-51.53
-52.25
-54.58
-58.20
-62.79
-68.13
-74.03
-80.22
-86.38
-92.11
-97.11
-101.30
-104.86
-108.25
-112.12
-117.20
-124.17
-133.46
-144.98
-157.81
-170.14
-179.52
-183.61
-180.96
-171.51
-156.60
-138.30
-118.58
-98.70
-79.17
-60.05
-41.43
-23.57
-6.79
8.74
23.22
37.11
50.84
64.62
78.42
92.08
105.42
118.26
130.37
141.48
151.38
160.11
167.88
174.97
181.44
186.93
190.85
192.63
192.08
189.52
185.52
180.51
174.53
167.17
157.89
146.41
132.95
118.16
102.98
88.32
75.00
63.66
54.83
48.89
45.98
45.81
47.71
50.65
53.52
55.41
55.89
55.03
53.28
51.22
49.19
47.15
44.63
41.04
36.06
29.85
23.09
16.61
10.87
5.62
-0.02
-7.08
-16.14
-26.90
-38.22
-48.61
-56.85
-62.49
-65.95
-68.23
-70.51
-73.71
-78.31
-84.33
-91.43
-98.98
-106.25
-112.57
-117.48
-120.99
-123.57
-126.08
-129.30
-133.43
-137.54
-139.50
-136.44
-125.73
-106.04
-78.04
-44.35
-8.71
25.19
54.74
78.93
98.11
113.46
126.17
136.97
145.80
151.95
154.42
152.44
145.91
135.62
123.11
110.23
98.66
89.58
83.60
80.75
80.57
82.08
83.89
84.40
82.22
76.61
67.77
56.69
44.70
32.98
22.18
12.46
3.71
-4.18
-11.19
-17.26
-22.42
-26.92
-31.17
-35.57
-40.37
-45.61
-50.99
-55.95
-59.80
-61.95
-62.24
-61.28
-60.48
-61.77
-66.93
-76.84
-90.96
-107.40
-123.58
-137.13
-146.77
-152.58
-155.60
-157.24
-158.58
-159.96
-161.13
-161.68
-161.45
-160.77
-160.34
-160.83
-162.52
-165.18
-168.19
-170.94
-173.09
-174.67
-175.98
-177.28
-178.73
-180.45
-182.72
-186.07
-191.04
-197.58
-204.47
-209.06
-207.72
-196.97
-174.62
-140.59
-96.89
-46.91
5.61
57.33
105.52
147.86
182.16
206.36
219.03
219.78
209.65
190.81
165.96
137.67
108.01
78.66
51.07
26.61
6.23
-10.06
-23.51
-36.40
-50.94
-67.95
-85.97
-101.50
-110.28
-109.26
-98.04
-79.15
-57.07
-36.54
-20.97
-11.78
-8.56
-9.92
-14.20
-19.85
-25.41
-29.32
-29.98
-26.09
-17.00
-2.92
15.18
35.93
57.98
80.19
101.65
121.60
139.38
154.45
166.45
175.06
180.02
181.01
177.83
170.66
160.21
147.76
134.85
122.90
112.98
105.81
101.91
101.70
105.35
112.37
121.43
130.44
137.17
139.97
138.35
133.18
126.32
120.03
116.19
115.65
117.84
120.85
121.89
118.29
108.47
92.64
72.77
51.87
32.93
18.08
8.33
3.85
4.32
9.20
17.58
28.09
39.03
48.82
56.50
61.93
65.49
67.41
67.28
64.02
56.39
43.76
26.50
6.05
-15.66
-36.70
-55.61
-71.55
-84.23
-93.74
-100.61
-105.65
-109.85
-114.16
-119.01
-124.10
-128.38
-130.43
-129.10
-123.92
-115.38
-104.77
-93.71
-83.57
-74.89
-67.23
-59.35
-49.80
-37.45
-21.95
-3.73
16.25
36.94
57.35
76.59
93.67
107.47
116.83
121.10
120.42
115.95
109.52
103.07
98.06
95.12
93.98
93.72
93.22
91.62
88.65
84.67
80.45
76.70
73.71
71.14
68.22
64.00
57.81
49.35
38.71
26.26
12.60
-1.48
-14.98
-26.83
-36.20
-42.82
-47.15
-50.24
-53.41
-57.64
-63.31
-69.92
-76.30
-81.04
-83.10
-82.21
-79.13
-75.28
-72.12
-70.46
-70.10
-69.95
-68.58
-64.87
-58.50
-50.03
-40.52
-31.24
-23.35
-17.84
-15.52
-17.01
-22.60
-32.10
-44.82
-59.68
-75.33
-90.36
-103.39
-113.26
-119.24
-121.30
-120.24
-117.64
-115.39
-115.07
-117.30
-121.28
-124.93
-125.52
-120.68
-109.24
-91.82
-70.67
-48.90
-29.47
-14.20
-3.49
3.61
8.58
12.77
16.87
21.00
25.02
28.92
32.90
37.19
41.72
45.92
48.95
50.09
49.17
46.71
43.75
41.29
39.89
39.43
39.28
38.61
36.80
33.66
29.51
24.87
20.19
15.53
10.60
4.98
-1.46
-8.19
-14.08
-17.76
-18.36
-15.93
-11.63
-7.19
-4.34
-4.06
-6.40
-10.54
-15.22
-19.18
-21.51
-21.86
-20.58
-18.62
-17.33
-18.03
-21.52
-27.72
-35.58
-43.37
-49.26
-51.92
-50.80
-46.28
-39.28
-30.99
-22.59
-15.00
-8.80
-4.01
-0.11
3.74
8.27
13.54
18.85
23.10
25.47
25.96
25.53
25.51
26.88
29.70
33.26
36.60
39.13
40.81
41.92
42.60
42.67
41.79
39.86
37.19
34.32
31.76
29.73
28.14
26.76
25.41
23.91
21.99
19.17
14.97
9.18
2.07
-5.73
-13.47
-20.63
-26.99
-32.36
-36.36
-38.34
-37.74
-34.48
-29.16
-22.80
-16.43
-10.64
-5.52
-0.97
2.99
6.12
8.14
9.03
9.14
8.98
8.87
8.79
8.46
7.59
6.18
4.47
2.72
1.09
-0.33
-1.31
-1.44
-0.16
2.91
7.70
13.77
20.56
27.68
35.04
42.60
50.00
56.48
61.09
63.24
63.08
61.53
59.82
58.96
59.37
61.16
64.58
70.02
77.85
88.13
100.24
112.76
123.91
132.06
136.53
137.99
137.91
137.89
139.06
141.78
145.55
149.40
151.87
151.61
147.69
138.97
124.30
102.99
74.95
40.71
1.16
-43.24
-91.30
-140.01
-185.82
-224.97
-253.87
-270.31
-274.38
-268.40
-257.07
-244.00
-228.98
-211.63
-192.68
-173.81
-158.25
-150.08
-152.87
-170.36
-202.90
-245.26
-292.96
-342.88
-390.77
-430.79
-455.86
-459.33
-440.07
-400.17
-341.42
-270.38
-195.42
-121.41
-48.92
24.09
115.84
228.26
328.23
398.16
433.91
432.04
395.64
334.79
264.28
199.52
149.25
117.12
105.02
108.03
117.42
125.85
128.47
122.52
106.31
76.44
31.31
-25.22
-88.60
-153.62
-213.64
-262.32
-295.34
-311.12
-311.96
-300.87
-278.67
-246.54
-205.95
-157.76
-102.91
-42.89
20.04
82.50
141.61
196.70
248.32
298.08
348.09
399.02
448.19
489.04
512.38
509.81
477.16
415.69
331.62
234.05
132.57
35.52
-50.51
-120.77
-172.79
-207.65
-230.84
-251.61
-279.80
-321.36
-374.87
-431.18
-477.01
-500.46
-496.09
-466.49
-420.00
-366.11
-311.20
-256.80
-200.80
-140.49
-75.53
-8.89
54.24
108.91
152.58
186.19
213.56
239.88
269.97
306.89
351.40
402.05
455.45
506.68
549.86
578.87
588.51
575.52
539.36
482.49
409.87
328.09
244.26
165.08
95.93
40.23
-0.81
-28.30
-45.23
-55.85
-64.83
-76.47
-93.89
-118.76
-151.35
-190.92
-236.33
-286.35
-339.43
-393.13
-443.51
-485.22
-512.50
-521.06
-509.56
-480.40
-438.94
-391.75
-344.58
-300.90
-261.63
-225.65
-191.09
-156.40
-121.13
-86.09
-53.03
-24.02
-0.66
16.38
27.63
34.53
38.96
42.51
46.15
50.16
54.38
58.55
62.43
65.76
68.17
69.23
68.61
66.35
62.90
58.95
55.11
51.57
48.02
43.88
38.68
32.36
25.55
19.43
15.40
14.71
18.00
25.11
35.10
46.54
57.95
68.18
76.70
83.53
89.06
93.71
97.71
101.05
103.59
105.19
105.92
106.09
106.20
106.90
108.84
112.56
118.36
126.20
135.63
145.83
155.75
164.34
170.68
174.24
174.73
172.08
166.25
157.17
144.77
129.11
110.43
89.27
66.47
43.08
20.18
-1.33
-20.80
-37.79
-51.86
-62.41
-68.73
-70.11
-66.21
-57.24
-44.03
-27.81
-10.07
7.67
23.93
37.34
46.93
52.31
53.97
53.31
52.24
52.68
55.85
62.00
70.32
79.30
87.20
92.51
94.34
92.52
87.59
80.54
72.47
64.20
56.19
48.53
41.12
33.96
27.32
21.77
18.05
16.81
18.39
22.77
29.61
38.42
48.72
60.06
71.90
83.56
94.26
103.16
109.56
112.87
112.47
107.76
98.09
83.19
63.46
40.19
15.50
-8.22
-28.93
-45.64
-58.64
-69.34
-79.59
-90.81
-103.17
-115.35
-124.86
-129.05
-126.22
-116.40
-101.40
-83.94
-66.60
-50.89
-37.00
-24.39
-12.58
-1.65
7.70
14.78
19.42
22.34
24.93
28.69
34.55
42.59
52.10
62.01
71.29
79.35
86.04
91.47
95.78
98.94
100.65
100.40
97.67
92.10
83.71
72.92
60.48
47.22
33.83
20.75
8.16
-3.80
-14.85
-24.50
-32.27
-37.95
-41.90
-44.99
-48.39
-52.98
-59.03
-66.05
-73.13
-79.37
-84.26
-87.89
-90.72
-93.28
-95.86
-98.35
-100.38
-101.47
-101.31
-99.82
-97.15
-93.59
-89.49
-85.19
-80.96
-77.01
-73.47
-70.41
-67.88
-65.91
-64.49
-63.62
-63.30
-63.52
-64.36
-66.02
-68.73
-72.59
-77.29
-82.05
-85.56
-86.42
-83.53
-76.66
-66.43
-54.15
-41.26
-28.90
-17.61
-7.45
1.70
9.90
16.97
22.55
26.34
28.19
28.26
26.98
24.98
23.03
21.83
21.89
23.39
26.14
29.60
33.11
36.01
37.82
38.31
37.44
35.35
32.26
28.41
24.02
19.30
14.47
9.73
5.37
1.73
-0.82
-1.92
-1.16
1.90
7.75
16.77
28.96
43.65
59.44
74.36
86.47
94.38
97.57
96.39
91.62
83.97
73.93
61.71
47.60
32.16
16.26
0.87
-13.25
-25.66
-36.19
-44.75
-51.19
-55.32
-57.01
-56.37
-53.91
-50.39
-46.72
-43.66
-41.66
-40.73
-40.60
-40.77
-40.85
-40.63
-40.17
-39.60
-39.00
-38.20
-36.88
-34.62
-31.17
-26.63
-21.37
-15.98
-11.00
-6.76
-3.22
-0.01
3.43
7.59
12.74
18.89
25.90
33.75
42.64
52.91
64.83
78.35
93.12
108.58
124.15
139.25
153.15
164.71
172.33
174.31
169.32
157.04
138.29
114.96
89.44
64.14
41.07
21.70
6.83
-3.35
-9.22
-11.66
-11.76
-10.62
-9.09
-7.69
-6.63
-5.94
-5.53
-5.38
-5.49
-5.94
-6.92
-8.62
-11.21
-14.69
-18.84
-23.24
-27.40
-30.94
-33.67
-35.71
-37.34
-38.84
-40.41
-42.02
-43.55
-44.87
-45.93
-46.80
-47.54
-48.13
-48.39
-48.07
-46.99
-45.25
-43.23
-41.48
-40.45
-40.23
-40.49
-40.50
-39.46
-36.76
-32.13
-25.75
-18.07
-9.65
-1.01
7.42
15.35
22.58
28.97
34.46
39.06
42.86
46.03
48.80
51.35
53.78
56.10
58.17
59.88
61.17
62.19
63.26
64.78
67.06
70.18
73.90
77.75
81.15
83.58
84.80
84.94
84.41
83.88
83.97
85.19
87.81
91.83
96.94
102.57
107.85
