1675316992.00
64.000000
-0.00
-0.00
-0.00
-0.00
-0.00
-0.00
-0.00
-0.00
-0.00
-0.00
0.00
0.01
0.01
-0.00
-0.03
-0.05
-0.05
0.00
0.13
0.36
0.66
1.01
1.37
1.72
2.06
2.40
2.79
3.24
3.80
4.42
5.06
5.66
6.20
6.68
7.15
7.68
8.31
9.14
10.09
11.04
11.88
12.56
13.14
13.76
14.65
15.96
17.91
20.32
22.90
25.38
27.58
29.57
31.68
34.32
37.81
42.54
48.15
54.10
59.83
64.97
69.58
74.14
79.34
85.71
93.76
103.00
112.62
121.73
129.77
136.75
143.30
150.75
157.77
166.64
177.95
191.79
206.97
220.57
228.25
225.36
208.53
176.87
132.76
80.05
23.07
-34.94
-92.44
-149.16
-205.23
-260.37
-313.74
-363.87
-409.83
-450.91
-486.50
-515.74
-537.23
-549.22
-549.96
-538.37
-514.21
-478.67
-433.88
-382.45
-327.02
-269.84
-212.63
-156.66
-102.95
-52.37
-5.90
35.58
71.43
101.35
125.50
144.38
158.69
169.15
176.37
180.75
182.57
182.07
179.51
175.23
169.65
163.18
156.15
148.81
141.30
133.69
126.02
118.33
110.69
103.16
95.80
88.68
81.83
75.25
68.95
62.95
57.25
51.86
46.78
42.03
37.59
33.45
29.61
26.07
22.81
19.83
17.11
14.67
12.48
10.54
8.83
7.35
6.07
4.97
4.05
3.27
2.62
2.09
1.65
1.30
1.01
0.79
0.61
0.47
0.37
0.28
0.23
0.18
0.15
0.13
0.13
0.13
0.14
0.16
0.18
0.21
0.24
0.28
0.32
0.36
0.41
0.45
0.50
0.54
0.60
0.65
0.71
0.77
0.83
0.91
0.99
1.07
1.17
1.28
1.40
1.53
1.68
1.85
2.04
2.25
2.48
2.74
3.03
3.34
3.69
4.06
4.48
4.92
5.41
5.93
6.50
7.10
7.75
8.44
9.17
9.95
10.78
11.64
12.55
13.51
14.53
15.61
16.76
17.98
19.26
20.56
21.80
22.92
23.82
24.42
24.62
24.34
23.51
22.06
19.94
17.12
13.64
9.64
5.29
0.85
-3.43
-7.31
-10.63
-13.34
-15.46
-17.04
-18.13
-18.75
-18.85
-18.41
-17.40
-15.96
-14.31
-12.71
-11.38
-10.38
-9.60
-8.80
-7.64
-5.94
-3.76
-1.45
0.52
1.72
2.09
1.82
1.46
1.67
2.89
5.04
7.54
9.52
10.29
9.72
8.19
6.68
6.35
7.97
11.49
16.06
20.42
23.39
24.39
23.07
19.94
16.30
14.11
15.59
22.46
35.00
51.45
68.31
80.76
85.10
80.07
67.03
48.94
28.63
7.19
-16.74
-42.04
-69.59
-100.06
-132.94
-166.10
-195.94
-218.33
-229.87
-229.05
-216.78
-196.59
-172.75
-148.77
-126.75
-107.45
-91.02
-77.63
-67.53
-60.52
-55.96
-52.09
-46.65
-37.91
-25.41
-10.15
5.95
20.85
33.26
42.60
49.29
54.17
57.89
60.48
61.32
59.53
54.62
47.05
38.10
29.57
23.08
19.35
18.06
18.16
18.51
18.39
17.73
16.82
16.09
15.79
15.88
16.08
15.94
15.12
13.43
11.00
8.23
5.62
3.41
1.40
-1.16
-5.16
-11.17
-18.95
-27.52
-35.33
-41.25
-45.06
-47.43
-49.14
-50.44
-50.76
-49.00
-44.22
-35.95
-24.88
-12.72
-1.49
7.27
13.03
16.13
17.23
16.86
15.92
14.77
13.21
10.53
6.12
-0.39
-9.12
-20.16
-33.59
-47.66
-61.29
-75.17
-91.55
-112.63
-139.05
-169.36
-200.36
-227.65
-242.76
-239.40
-216.32
-177.36
-128.44
-74.75
-19.76
34.36
86.27
141.02
201.23
263.87
321.22
366.23
396.61
415.06
427.21
439.86
467.43
519.72
596.64
687.75
778.11
854.10
906.49
931.27
882.33
743.15
538.25
320.65
134.24
-5.92
-105.79
-177.52
-229.42
-272.15
-304.76
-325.28
-335.00
-338.25
-338.90
-339.37
-337.56
-335.81
-339.50
-348.78
-361.46
-374.61
-386.20
-394.97
-400.21
-402.29
-402.15
-385.76
-341.56
-269.14
-180.37
-92.24
-17.91
37.15
73.53
95.21
107.14
113.39
116.42
117.07
114.89
109.62
101.97
92.70
82.74
72.86
62.46
50.37
34.93
14.09
-14.49
-47.41
-81.43
-111.87
-133.39
-142.80
-139.39
-125.55
-105.95
-86.08
-70.18
-60.52
-56.28
-54.64
-53.14
-50.42
-46.62
-42.94
-41.13
-42.90
-50.30
-64.67
-86.16
-113.27
-142.06
-166.34
-178.93
-173.77
-148.29
-105.14
-51.49
2.75
47.78
76.66
86.89
80.53
62.95
41.06
21.28
8.47
5.17
11.58
25.88
44.90
64.91
82.50
95.34
102.55
104.62
103.09
99.89
96.85
95.31
95.84
98.11
100.92
102.68
102.07
98.95
94.66
91.56
91.93
96.58
104.16
111.46
114.82
111.72
102.02
87.94
73.01
60.50
51.87
46.31
41.04
32.66
18.47
-2.31
-28.39
-56.97
-84.90
-109.83
-130.70
-147.47
-160.38
-169.15
-172.82
-170.22
-160.92
-145.87
-127.33
-108.12
-90.41
-75.10
-61.71
-49.24
-37.01
-25.22
-14.84
-6.92
-1.89
0.76
2.30
4.14
7.19
11.54
16.58
21.37
25.09
27.32
28.16
27.99
27.40
26.81
26.40
26.02
25.28
23.75
21.21
17.82
14.01
10.34
7.18
4.54
2.07
-0.73
-4.28
-8.64
-13.50
-18.18
-21.77
-23.43
-22.50
-18.80
-12.63
-4.77
3.72
11.80
18.57
23.52
26.42
27.38
26.65
24.66
21.94
19.03
16.46
14.67
13.98
14.50
16.09
18.30
20.44
21.80
21.79
20.16
16.98
12.58
7.34
1.74
-3.69
-8.36
-11.70
-13.34
-13.40
-12.47
-11.46
-11.33
-12.75
-15.98
-20.96
-27.30
-34.43
-41.49
-47.39
-50.98
-51.35
-48.16
-41.76
-33.12
-23.44
-13.86
-5.13
2.37
8.52
13.25
16.47
18.10
18.29
17.55
16.73
16.87
18.86
23.11
29.45
37.19
45.46
53.47
60.83
67.56
73.93
80.28
86.77
93.14
98.76
102.80
104.76
104.82
103.99
103.61
104.65
106.76
108.04
105.38
95.76
77.62
51.66
20.76
-10.91
-38.81
-58.65
-66.61
-59.92
-37.83
-2.87
38.66
77.82
105.61
116.14
108.38
86.06
55.29
21.60
-12.02
-45.41
-80.17
-118.18
-160.58
-207.05
-255.45
-301.47
-338.94
-361.06
-362.45
-341.23
-299.67
-242.99
-176.80
-104.93
-29.08
49.46
127.15
197.00
249.51
276.07
272.56
241.19
189.45
126.85
61.68
-0.72
-57.29
-105.39
-141.61
-162.62
-167.16
-157.84
-140.86
-123.39
-110.09
-101.11
-92.69
-80.34
-62.18
-40.52
-20.52
-6.86
-0.68
1.27
4.78
14.81
32.66
55.04
75.68
88.27
89.14
78.40
59.38
36.77
14.69
-4.30
-19.17
-29.78
-36.11
-38.08
-35.85
-30.54
-24.36
-20.05
-19.70
-23.42
-28.97
-32.61
-30.87
-22.39
-8.53
7.59
22.77
35.27
45.08
52.95
59.43
64.56
68.59
72.81
79.54
90.96
107.37
126.37
143.70
155.26
158.95
155.04
145.09
130.21
110.31
84.81
54.12
20.53
-12.17
-40.38
-62.35
-78.67
-91.43
-102.75
-113.64
-124.12
-133.84
-142.87
-151.38
-158.89
-163.60
-162.72
-153.85
-136.19
-111.12
-81.27
-49.28
-16.97
14.30
42.48
64.28
75.80
74.38
60.46
37.87
12.31
-11.19
-30.26
-45.33
-58.10
-69.40
-78.23
-82.39
-80.49
-73.63
-65.55
-60.82
-62.18
-68.64
-75.67
-77.65
-71.20
-57.54
-42.38
-33.51
-37.06
-54.78
-83.32
-115.94
-145.24
-165.47
-173.68
-169.79
-156.11
-137.04
-118.51
-106.76
-106.52
-119.07
-141.28
-166.38
-186.18
-193.72
-185.42
-161.73
-126.53
-85.62
-45.06
-9.74
17.79
37.61
52.36
66.28
83.73
107.84
139.92
179.82
226.33
277.39
329.56
377.65
415.16
436.10
437.78
422.68
398.07
373.10
354.68
344.32
337.81
327.71
307.39
274.21
230.14
180.09
129.10
80.25
34.13
-9.91
-52.48
-93.39
-131.81
-167.49
-201.84
-238.26
-281.04
-333.37
-394.93
-460.45
-520.40
-563.85
-582.50
-573.93
-542.47
-497.17
-447.91
-401.64
-360.72
-323.70
-287.81
-251.38
-214.83
-179.97
-148.46
-120.44
-94.38
-67.85
-38.76
-6.32
28.54
63.77
97.18
127.36
154.23
178.95
203.33
229.22
258.10
290.99
328.27
369.24
411.46
450.50
480.53
496.03
493.86
474.59
442.34
403.17
362.83
324.97
290.80
259.84
231.15
204.27
179.41
157.19
138.20
122.74
110.80
101.93
95.04
88.23
79.16
65.63
46.55
22.58
-3.93
-29.60
-51.07
-65.94
-73.24
-73.32
-67.41
-57.03
-43.72
-28.78
-13.26
2.08
16.79
30.69
43.74
55.88
66.93
76.52
84.25
89.65
92.30
91.84
88.13
81.41
72.33
61.88
50.89
39.71
27.97
14.95
0.06
-16.64
-34.29
-51.62
-67.43
-81.23
-93.22
-104.09
-114.41
-124.23
-132.93
-139.42
-142.65
-142.00
-137.49
-129.74
-119.61
-107.93
-95.41
-82.64
-70.17
-58.44
-47.69
-37.99
-29.37
-22.18
-17.17
-15.08
-15.89
-17.94
-17.93
-11.83
3.35
27.82
58.27
88.77
113.10
127.27
131.25
128.55
124.10
121.70
122.11
123.16
121.52
115.23
105.27
95.29
89.70
91.28
99.74
111.97
123.51
130.31
129.76
120.36
101.27
72.25
34.44
-8.85
-52.53
-91.53
-123.46
-150.06
-176.48
-208.25
-247.97
-293.61
-339.48
-379.08
-407.91
-424.60
-430.11
-425.74
-411.85
-387.96
-353.92
-311.01
-262.01
-210.26
-158.54
-108.75
-62.27
-20.52
14.80
42.44
62.68
77.88
91.96
108.93
131.17
158.26
187.29
214.27
235.93
250.89
259.48
262.69
260.93
253.60
239.69
218.83
192.18
162.32
132.40
104.75
80.24
58.29
37.70
17.59
-2.28
-21.55
-39.63
-55.80
-69.18
-78.66
-83.22
-82.63
-77.92
-71.45
-66.15
-64.30
-66.58
-71.81
-77.61
-81.44
-81.52
-77.02
-67.88
-54.45
-37.35
-17.60
3.44
24.21
43.34
59.79
73.02
82.97
90.08
95.40
100.48
107.01
116.32
128.90
144.23
161.08
178.05
194.16
208.91
222.00
233.03
241.18
245.49
245.04
239.13
227.04
207.78
180.19
143.73
99.65
51.60
5.52
-31.98
-55.83
-64.32
-59.69
-46.99
-31.93
-18.86
-9.69
-4.20
-1.10
0.99
3.12
6.03
10.31
16.38
24.17
32.93
41.42
48.37
52.94
55.03
55.05
53.61
51.20
48.03
43.92
38.32
30.32
18.68
2.39
-18.84
-43.90
-70.22
-94.41
-113.25
-124.78
-128.74
-126.39
-119.76
-110.85
-101.12
-91.40
-82.13
-73.66
-66.34
-60.34
-55.50
-51.38
-47.60
-44.14
-41.52
-40.55
-41.71
-44.77
-48.62
-51.71
-52.62
-50.60
-45.72
-38.61
-30.23
-21.58
-13.74
-7.85
-4.98
-5.78
-10.12
-16.94
-24.46
-30.92
-35.28
-37.60
-39.12
-41.62
-46.59
-54.48
-64.24
-73.52
-79.50
-79.94
-74.11
-63.13
-49.42
-35.74
-24.12
-15.29
-8.74
-3.29
2.13
7.95
13.72
18.43
21.00
20.75
17.69
12.46
6.12
-0.01
-4.18
-4.32
1.53
13.97
31.17
48.55
60.32
62.35
54.80
42.69
33.58
33.24
42.00
53.99
59.92
51.93
27.42
-9.85
-52.13
-91.32
-121.94
-141.99
-151.88
-152.88
-146.21
-133.08
-115.26
-95.35
-76.39
-61.14
-51.41
-47.78
-49.65
-55.49
-63.14
-70.18
-74.47
-74.75
-71.13
-65.00
-58.31
-52.73
-48.51
-44.52
-38.84
-29.95
-17.67
-3.32
10.95
22.99
31.28
35.00
33.78
27.58
17.04
3.85
-9.11
-18.40
-21.40
-17.41
-8.18
2.67
10.78
12.48
5.79
-9.09
-29.62
-51.24
-68.32
-75.58
-70.08
-52.40
-26.65
0.99
24.88
42.09
53.15
61.18
69.82
81.40
96.22
113.17
131.08
149.86
170.64
194.93
223.33
254.52
285.39
312.08
331.42
341.97
344.23
339.89
330.65
317.45
300.28
278.76
252.90
223.73
193.10
163.19
135.66
111.03
88.63
67.01
44.51
20.00
-6.81
-35.49
-65.27
-95.44
-125.46
-154.79
-182.72
-208.59
-232.01
-253.09
-272.46
-290.83
-308.56
-325.62
-341.70
-356.79
-371.31
-385.94
-401.11
-416.39
-430.47
-441.49
-447.73
-447.86
-441.24
-427.83
-408.43
-384.69
-358.95
-333.30
-308.70
-284.28
-257.66
-226.30
-188.92
-146.55
-102.29
-60.06
-22.82
8.36
34.20
55.92
73.90
87.04
93.26
90.76
79.45
61.25
39.49
17.75
-1.05
-14.94
-22.42
-22.21
-13.37
3.85
27.30
52.84
75.25
90.02
94.91
90.52
79.49
64.79
48.21
29.89
9.18
-13.81
-37.03
-56.64
-68.64
-70.73
-63.46
-49.84
-33.45
-16.55
0.64
19.09
39.36
60.54
80.56
97.73
111.96
124.93
138.68
153.82
168.69
180.03
184.72
181.65
172.35
160.28
149.16
141.47
137.75
136.92
137.10
136.59
134.36
130.18
124.26
116.90
108.18
98.02
86.43
73.77
60.99
49.43
40.33
34.32
31.13
29.54
27.79
24.25
17.91
8.84
-1.94
-12.84
-22.37
-29.74
-35.08
-39.20
-43.03
-46.97
-50.81
-53.89
-55.76
-56.47
-56.48
-56.26
-55.67
-53.96
-50.23
-44.13
-36.27
-28.07
-21.05
-16.16
-13.27
-11.60
-10.17
-8.50
-6.77
-5.49
-5.08
-5.45
-5.96
-5.76
-4.17
-1.02
3.40
8.43
13.39
17.82
21.48
24.29
26.13
26.73
25.75
23.02
18.84
13.97
9.56
6.69
5.92
7.03
9.07
10.79
11.15
9.72
6.88
3.42
0.23
-2.21
-3.94
-5.43
-7.30
-9.97
-13.42
-17.19
-20.63
-23.15
-24.54
-25.06
-25.35
-26.10
-27.75
-30.34
-33.66
-37.57
-42.19
-47.83
-54.42
-60.89
-65.05
-64.10
-55.89
-39.89
-17.67
7.55
32.16
53.42
70.12
82.38
91.06
97.07
101.05
103.47
104.95
106.37
108.63
112.30
117.05
121.50
123.38
120.03
109.37
90.92
66.33
39.06
13.40
-7.18
-21.23
-29.74
-35.57
-42.14
-51.94
-65.42
-80.64
-93.76
-100.18
-96.18
-80.14
-53.33
-19.67
15.30
45.75
66.98
76.11
72.48
57.48
34.31
7.50
-17.91
-37.50
-48.62
-50.97
-46.42
-38.04
-28.70
-20.11
-12.61
-5.51
2.07
10.61
19.90
29.12
37.20
43.19
46.55
47.28
45.84
42.96
39.36
35.63
32.18
29.24
26.85
24.83
22.77
20.14
16.68
12.64
8.83
6.34
5.91
7.38
9.68
11.35
11.28
9.30
6.15
2.86
0.06
-2.46
-5.43
-9.60
-15.13
-21.57
-28.31
-35.14
-42.49
-51.03
-61.05
-71.72
-81.21
-87.14
-87.58
-81.80
-70.51
-55.50
-38.93
-22.66
-7.84
5.14
16.56
27.27
38.44
51.27
66.49
83.83
101.87
118.27
130.47
136.49
135.54
128.12
115.75
100.39
84.01
68.27
54.46
43.49
35.62
30.53
27.30
24.83
22.26
19.38
16.68
14.95
14.92
16.72
19.77
23.08
25.55
26.41
25.31
22.32
17.62
11.46
4.13
-3.94
-12.16
-19.82
-26.17
-30.73
-33.32
-34.17
-33.84
-32.99
-32.24
-31.91
-32.03
-32.33
-32.39
-31.82
-30.50
-28.62
-26.62
-24.97
-23.95
-23.56
-23.48
-23.27
-22.58
-21.36
-19.75
-18.04
-16.44
-14.85
-12.90
-10.10
-6.16
-1.22
4.15
9.09
12.87
15.13
16.01
15.92
15.19
13.77
11.27
7.22
1.51
-5.42
-12.62
-19.03
-23.86
-26.91
-28.52
-29.30
-29.82
-30.40
-31.12
-31.94
-32.84
-33.85
-34.96
-36.03
-36.65
-36.34
-34.73
-31.73
-27.74
-23.51
-19.94
-17.77
-17.27
-18.18
-19.69
-20.69
-19.96
-16.53
-9.89
-0.25
11.38
23.29
33.43
39.96
41.82
39.19
33.35
26.22
19.58
14.42
10.77
7.93
5.14
1.89
-1.83
-5.86
-10.13
-14.72
-19.81
-25.32
-30.82
-35.67
-39.36
-41.81
-43.51
-45.09
-47.01
-49.20
-51.03
-51.68
-50.53
-47.46
-42.92
-37.70
-32.52
-27.89
-24.02
-20.95
-18.64
-17.02
-15.80
-14.47
-12.31
-8.68
-3.33
3.51
11.27
19.34
27.26
34.85
41.93
48.06
52.51
54.33
52.80
47.79
39.88
30.18
20.02
10.43
2.02
-5.08
-10.96
-15.65
-19.05
-20.91
-21.10
-19.70
-17.19
-14.25
-11.56
-9.65
-8.72
-8.64
-9.03
-9.39
-9.20
-8.10
-5.99
-3.05
0.26
3.39
5.83
7.28
7.73
7.43
6.74
6.02
5.52
5.32
5.41
5.72
6.18
6.70
7.18
7.47
7.47
7.22
6.98
7.07
7.70
8.82
10.09
11.06
11.37
10.93
9.81
8.18
6.18
3.93
1.61
-0.51
-2.17
-3.21
-3.74
-4.09
-4.65
-5.66
-7.05
-8.56
-9.82
-10.63
-10.88
-10.59
-9.82
-8.60
-6.96
-5.01
-2.95
-1.04
0.51
1.61
2.35
2.93
3.51
4.16
4.81
5.35
5.70
5.90
6.10
6.45
6.99
7.58
7.89
7.63
6.64
5.08
3.38
2.05
1.47
1.67
2.39
3.17
3.66
3.71
3.44
3.10
2.87
2.88
3.27
4.32
6.29
9.37
13.29
17.34
20.67
22.71
23.66
24.47
26.36
30.07
35.31
40.71
44.33
44.49
40.36
32.16
20.85
7.76
-5.82
-18.74
-30.01
-38.80
-44.44
-46.59
-45.50
-41.89
-36.93
-31.90
-27.77
-25.07
-23.65
-22.90
-22.08
-20.70
-18.68
-16.34
-14.15
-12.52
-11.55
-11.09
-10.83
-10.54
-10.08
-9.46
-8.80
-8.30
-8.15
-8.47
-9.30
-10.46
-11.65
-12.49
-12.70
-12.29
-11.42
-10.32
-9.09
-7.65
-5.80
-3.42
-0.62
2.25
4.75
6.53
7.51
7.88
7.97
8.15
8.68
9.67
11.03
12.49
13.65
14.11
13.65
12.33
10.49
8.54
6.81
5.48
4.58
4.07
3.96
4.23
4.73
5.21
5.36
4.95
4.00
2.78
1.63
0.90
0.68
0.87
1.19
1.34
1.05
0.22
-1.04
-2.50
-3.78
-4.51
-4.48
-3.66
-2.20
-0.43
1.33
2.74
3.53
3.63
3.14
2.33
1.62
1.43
2.01
3.34
5.19
7.12
8.69
9.56
9.63
8.95
7.79
6.45
5.26
4.28
3.19
1.29
-2.16
-7.53
-14.54
-22.32
-29.72
-35.92
-40.68
-44.31
-47.27
-49.76
-51.45
-51.74
-50.09
-46.41
-41.19
-35.20
-29.19
-23.54
-18.27
-13.21
-8.30
-3.62
0.53
3.85
6.22
7.77
8.79
9.51
10.04
10.34
10.34
10.04
9.62
9.32
9.40
9.93
10.85
11.99
13.13
14.07
14.66
14.81
14.64
14.31
14.12
14.23
14.65
15.18
15.56
15.54
15.10
14.37
13.61
13.03
12.76
12.78
12.96
13.12
13.14
12.90
12.34
11.45
10.29
8.89
7.33
5.63
3.79
1.80
-0.24
-2.16
-3.78
-4.89
-5.41
-5.38
-4.93
-4.22
-3.38
-2.41
-1.32
-0.11
1.17
2.45
3.67
4.86
5.99
7.06
7.91
8.38
8.33
7.82
7.03
6.30
5.87
5.78
5.84
5.77
5.35
4.57
3.58
2.65
1.91
1.32
0.66
-0.29
-1.55
-2.91
-3.97
-4.37
-4.03
-3.19
-2.27
-1.67
-1.48
-1.54
-1.46
-0.92
0.19
1.69
3.23
4.47
5.16
5.27
4.91
4.33
3.83
3.71
4.14
5.06
6.24
7.28
7.91
8.05
7.93
7.87
8.15
8.79
9.54
10.04
9.99
9.38
8.42
7.43
6.62
5.98
5.34
4.56
3.63
2.69
1.92
1.41
1.00
0.43
-0.50
-1.86
-3.45
-4.94
-6.05
-6.66
-6.83
-6.75
-6.56
-6.30
-5.92
-5.36
-4.62
-3.85
-3.15
-2.57
-2.07
-1.41
-0.35
1.28
3.43
5.96
8.57
11.03
13.15
14.79
15.86
16.34
16.32
16.03
15.80
15.89
16.39
17.11
17.70
17.81
17.29
16.20
14.72
13.07
11.29
9.34
7.24
5.10
3.20
1.79
0.99
0.62
0.27
-0.56
-2.20
-4.65
-7.59
-10.44
-12.64
-13.85
-14.02
-13.40
-12.38
-11.35
-10.57
-10.14
-10.05
-10.15
-10.27
-10.18
-9.68
-8.61
-6.98
-4.92
-2.74
-0.69
0.97
2.16
2.84
3.06
2.88
2.43
1.87
1.37
1.09
1.05
1.20
1.47
1.76
2.00
2.05
1.84
1.30
0.63
0.11
0.10
0.78
1.93
3.08
3.59
3.06
1.52
-0.64
-2.88
-4.72
-5.97
-6.68
-7.00
-7.06
-6.89
-6.51
-5.97
-5.43
-5.04
-4.96
-5.16
-5.41
-5.43
-4.92
-3.80
-2.18
-0.40
1.11
2.04
2.27
1.92
1.37
1.07
1.45
2.69
4.65
6.87
8.75
9.73
9.61
8.53
6.92
5.26
3.81
2.64
1.63
0.77
0.22
0.23
0.89
2.06
3.20
3.75
3.37
2.17
0.72
-0.26
-0.26
0.71
2.13
3.18
3.11
1.59
-1.19
-4.55
-7.63
-9.67
-10.35
-9.73
-8.27
-6.48
-4.82
-3.52
-2.66
-2.22
-2.13
-2.33
-2.63
-2.82
-2.65
-1.94
-0.67
1.07
3.05
5.09
6.98
8.58
9.79
10.56
10.88
10.80
10.31
9.39
8.08
6.50
4.92
3.72
3.24
3.59
4.60
5.84
6.80
7.09
6.59
5.44
4.02
2.61
1.43
0.53
-0.17
-0.79
-1.47
-2.30
-3.32
-4.49
-5.78
-7.12
-8.42
-9.52
-10.27
-10.59
-10.50
-10.17
-9.82
-9.61
-9.50
-9.28
-8.66
-7.46
-5.70
-3.59
-1.46
0.44
2.01
3.27
4.31
5.18
5.87
6.29
6.37
6.03
5.35
4.50
3.69
3.13
2.86
2.81
2.82
2.78
2.70
2.73
2.98
3.38
3.66
3.43
2.44
0.74
-1.29
-3.10
-4.25
-4.63
-4.54
-4.35
-4.42
-4.75
-5.11
-5.18
-4.78
-3.95
-2.87
-1.68
-0.32
1.38
3.55
6.09
8.62
10.67
11.85
12.13
11.75
11.13
10.63
10.47
10.73
11.40
12.50
13.90
15.44
16.84
17.90
18.59
19.09
19.67
20.58
21.89
23.40
24.76
25.58
25.48
24.24
21.93
19.10
16.58
15.14
14.85
14.61
12.39
5.90
-6.19
-23.47
-43.70
-63.53
-79.70
-89.88
-92.95
-88.76
-77.73
-60.94
-40.24
-18.49
0.90
14.91
21.98
22.53
18.66
13.19
8.46
5.64
4.71
5.01
5.83
6.85
8.05
9.54
11.19
12.68
13.60
13.67
13.02
12.08
11.48
11.73
12.99
14.87
16.58
17.23
16.19
13.55
10.04
6.74
4.56
3.77
3.93
4.15
3.71
2.35
0.41
-1.50
-2.97
-4.07
-5.22
-6.74
-8.52
-9.85
-9.84
-7.88
-4.14
0.44
4.52
6.98
7.43
6.27
4.41
2.69
1.53
0.87
0.35
-0.22
-0.77
-1.00
-0.62
0.34
1.50
2.33
2.46
1.92
1.16
0.77
1.12
2.18
3.47
4.42
4.39
3.18
1.05
-1.40
-3.57
-5.20
-6.24
-6.97
-7.61
-8.32
-9.01
-9.41
-9.19
-8.34
-7.16
-6.04
-5.32
-4.89
-4.65
-4.26
-3.22
-1.07
2.15
5.95
9.78
13.01
15.50
16.36
15.31
13.05
10.93
10.08
10.73
12.90
15.79
18.93
19.86
17.06
11.01
3.95
-1.75
-4.89
-4.48
-1.39
3.58
5.90
2.14
-7.94
-21.85
-36.55
-50.64
-62.97
-75.26
-89.10
-110.78
-144.94
-191.79
-247.57
-307.16
-367.12
-424.14
-478.86
-499.54
-467.14
-387.04
-285.96
-190.71
-113.57
-66.40
-36.89
-16.59
-0.74
7.74
5.46
-3.21
-13.68
-21.63
-25.17
-22.67
-15.93
-6.32
1.67
4.78
2.98
-1.59
-5.86
-8.08
-6.32
-1.44
5.70
12.04
15.27
15.20
13.32
11.80
11.93
14.69
18.94
23.38
25.77
24.75
20.62
14.94
10.01
7.55
8.67
12.73
18.40
23.77
27.53
29.46
30.19
30.81
32.03
33.98
35.95
37.12
37.04
35.90
34.40
33.42
33.47
34.66
36.73
39.16
41.75
44.81
48.92
54.29
59.94
63.49
61.88
52.86
36.42
15.33
-5.78
-22.36
-31.78
-34.22
-32.07
-28.30
-24.87
-22.14
-19.39
-15.84
-11.57
-7.38
-4.22
-2.28
-0.79
1.52
5.76
12.28
20.30
28.48
35.52
40.88
45.07
49.35
55.14
63.30
73.86
86.13
99.20
112.43
125.72
139.26
153.40
168.45
184.82
203.07
223.53
245.79
268.12
287.44
300.17
303.54
296.82
281.64
261.33
239.44
218.51
199.56
182.40
166.47
151.55
137.82
125.61
114.93
105.32
96.04
86.49
76.48
66.26
56.39
47.34
39.33
32.25
25.73
19.42
13.10
6.80
0.77
-4.70
-9.40
-13.29
-16.52
-19.31
-21.89
-24.45
-26.98
-29.33
-31.24
-32.41
-32.68
-32.07
-30.88
-29.46
-28.15
-27.05
-26.09
-25.05
-23.84
-22.54
-21.39
-20.62
-20.28
-20.20
-20.04
-19.49
-18.51
-17.29
-16.21
-15.67
-15.82
-16.51
-17.34
-17.84
-17.71
-16.97
-15.92
-14.98
-14.49
-14.49
-14.81
-15.15
-15.26
-15.05
-14.61
-14.10
-13.67
-13.39
-13.24
-13.27
-13.57
-14.31
-15.62
-17.42
-19.38
-20.96
-21.64
-21.09
-19.34
-16.79
-14.01
-11.60
-9.97
-9.23
-9.23
-9.58
-9.84
-9.62
-8.71
-7.19
-5.29
-3.41
-1.83
-0.67
0.12
0.69
1.07
1.18
0.90
0.15
-0.97
-2.21
-3.26
-3.91
-4.07
-3.86
-3.52
-3.34
-3.54
-4.21
-5.30
-6.59
-7.83
-8.80
-9.46
-9.90
-10.33
-10.96
-11.90
-13.12
-14.49
-15.83
-16.90
-17.53
-17.55
-16.91
-15.73
-14.22
-12.65
-11.30
-10.34
-9.75
-9.38
-8.99
-8.36
-7.41
-6.17
-4.80
-3.47
-2.33
-1.42
-0.78
-0.42
-0.42
-0.89
-1.86
-3.24
-4.71
-5.88
-6.40
-6.20
-5.50
-4.79
-4.61
-5.44
-7.41
-10.30
-13.56
-16.49
-18.44
-19.02
-18.18
-16.18
-13.44
-10.32
-7.03
-3.66
-0.23
3.11
6.10
8.48
10.26
11.72
13.32
15.40
17.83
19.96
20.80
19.49
15.69
9.77
2.59
-4.84
-11.78
-17.85
-23.00
-27.24
-30.52
-32.77
-34.07
-34.71
-35.17
-35.93
-37.20
-38.87
-40.50
-41.50
-41.33
-39.75
-36.88
-33.16
-29.27
-25.86
-23.34
-21.79
-21.02
-20.85
-21.26
-22.47
-24.83
-28.53
-33.40
-38.98
-44.65
-49.97
-54.82
-59.35
-63.69
-67.71
-70.87
-72.46
-71.86
-68.83
-63.66
-56.94
-49.35
-41.35
-33.14
-24.78
-16.35
-8.13
-0.55
6.06
11.59
16.25
20.43
24.43
28.32
31.89
34.85
36.93
37.99
38.09
37.33
35.87
33.90
31.69
29.55
27.77
26.42
25.31
24.05
22.29
19.94
17.29
14.90
13.28
12.60
12.56
12.58
12.16
11.11
9.69
8.37
7.53
7.28
7.42
7.64
7.75
7.77
7.84
8.10
8.56
9.08
9.50
9.74
9.81
9.79
9.76
9.70
9.57
9.29
8.84
8.24
7.61
7.10
6.87
6.97
7.39
7.95
8.47
8.79
8.87
8.78
8.63
8.48
8.34
8.21
8.08
7.99
7.94
7.87
7.62
7.06
6.09
4.83
3.55
2.56
2.12
2.23
2.72
3.17
3.20
2.55
1.24
-0.43
-2.04
-3.19
-3.73
-3.80
-3.75
-3.90
-4.43
-5.24
-6.09
-6.71
-6.96
-6.88
-6.58
-6.21
-5.80
-5.34
-4.73
-3.97
-3.10
-2.29
-1.75
-1.63
-1.95
-2.57
-3.18
-3.45
-3.12
-2.12
-0.64
0.98
2.28
2.93
2.84
2.14
1.20
0.37
-0.09
-0.18
-0.06
0.10
0.10
-0.10
-0.50
-1.12
-1.93
-2.88
-3.81
-4.49
-4.65
-4.17
-3.09
-1.63
-0.12
1.18
2.07
2.48
2.44
2.08
1.61
1.33
1.46
2.13
3.26
4.61
5.87
6.79
7.32
7.55
7.68
7.91
8.26
8.71
9.11
9.32
9.27
8.94
8.40
7.75
7.01
6.21
5.36
4.50
3.74
3.28
3.18
3.42
3.75
3.82
3.31
2.08
0.21
-2.01
-4.21
-6.11
-7.52
-8.44
-8.93
-9.14
-9.20
-9.29
-9.48
-9.81
-10.22
-10.57
-10.67
-10.40
-9.69
-8.53
-7.02
-5.27
-3.43
-1.66
-0.10
1.13
1.94
2.36
2.43
2.23
1.87
1.41
0.96
0.60
0.35
0.26
0.24
0.20
0.00
-0.45
-1.18
-2.11
-3.09
-3.97
-4.60
-4.94
-5.03
-5.00
-5.03
-5.30
-5.90
-6.82
-7.93
-9.04
-9.90
-10.35
-10.31
-9.84
-9.11
-8.31
-7.64
-7.17
-6.84
-6.56
-6.18
-5.60
-4.82
-3.88
-2.86
-1.86
-0.94
-0.13
0.57
1.19
1.79
2.39
3.03
3.68
4.32
4.91
5.48
6.05
6.67
7.40
8.25
9.19
10.13
10.97
11.56
11.84
11.76
11.34
10.60
9.54
8.21
6.68
5.07
3.53
2.17
0.99
-0.14
-1.39
-2.80
-4.25
-5.45
-6.14
-6.20
-5.81
-5.33
-5.12
-5.33
-5.87
-6.38
-6.55
-6.25
-5.57
-4.77
-4.13
-3.80
-3.71
-3.67
-3.43
-2.81
-1.74
-0.26
1.45
3.17
4.63
5.67
6.25
6.45
6.44
6.36
6.31
6.29
6.26
6.15
5.89
5.43
4.71
3.73
2.55
1.31
0.18
-0.67
-1.09
-0.99
-0.33
0.77
2.13
3.43
4.33
4.61
4.20
3.28
2.14
1.11
0.43
0.20
0.39
0.91
1.55
2.15
2.50
2.51
2.20
1.72
1.32
1.24
1.65
2.59
3.92
5.32
6.38
6.70
6.04
4.47
2.38
0.38
-0.99
-1.41
-0.95
0.01
1.00
1.62
1.67
1.16
0.28
-0.67
-1.43
-1.82
-1.79
-1.47
-1.13
-1.06
-1.53
-2.61
-4.21
-6.09
-7.87
-9.20
-9.79
-9.49
-8.37
-6.74
-5.05
-3.72
-3.04
-3.02
-3.42
-3.83
-3.90
-3.43
-2.46
-1.20
0.03
0.95
1.39
1.31
0.85
0.27
-0.09
0.08
0.97
2.52
4.45
6.37
7.85
8.64
8.69
8.15
7.31
6.45
5.80
5.41
5.19
4.84
4.05
2.64
0.66
-1.49
-3.29
-4.28
-4.33
-3.71
-2.99
-2.69
-3.09
-4.10
-5.33
-6.41
-7.11
-7.42
-7.43
-7.12
-6.31
-4.77
-2.43
0.46
3.31
5.49
6.54
6.42
5.47
4.22
3.12
2.46
2.53
3.58
6.04
10.25
16.28
23.71
31.67
39.13
45.27
49.70
52.44
53.69
53.49
51.53
47.29
40.38
30.81
19.25
6.85
-4.98
-15.10
-22.84
-28.16
-31.43
-33.24
-34.21
-34.93
-35.92
-37.64
-40.40
-44.09
-48.12
-51.50
-53.08
-52.06
-48.27
-42.35
-35.45
-28.81
-23.34
-19.33
-16.50
-14.26
-12.05
-9.56
-6.84
-4.13
-1.64
0.57
2.62
4.65
6.71
8.58
9.96
10.55
10.35
9.62
8.83
8.39
8.45
8.82
9.16
9.13
8.63
7.86
7.16
6.81
6.84
7.05
7.05
6.49
5.21
3.30
1.04
-1.25
-3.32
-5.05
-6.43
-7.53
-8.44
-9.27
-10.09
-10.94
-11.74
-12.35
-12.66
-12.57
-12.13
-11.48
-10.76
-10.04
-9.26
-8.30
-7.05
-5.56
-4.01
-2.65
-1.71
-1.28
-1.32
-1.66
-2.08
-2.42
-2.56
-2.43
-1.98
-1.23
-0.21
0.97
2.17
3.23
3.96
4.32
4.36
4.22
4.09
4.10
4.31
4.61
4.83
4.78
4.32
3.42
2.18
0.81
-0.43
-1.34
-1.89
-2.19
-2.51
-3.09
-4.06
-5.22
-6.19
-6.51
-5.84
-4.18
-1.89
0.43
2.15
2.87
2.57
1.60
0.49
-0.21
-0.19
0.60
1.93
3.43
4.77
5.67
6.03
5.89
5.40
4.81
4.38
4.26
4.51
5.03
5.60
6.02
6.10
5.79
5.13
4.25
3.31
2.43
1.77
1.40
1.32
1.44
1.59
1.58
1.24
0.53
-0.55
-1.94
-3.56
-5.29
-6.93
-8.22
-8.91
-8.88
-8.23
-7.25
-6.32
-5.76
-5.66
-5.84
-5.96
-5.68
-4.79
-3.25
-1.18
1.30
4.08
7.16
10.61
14.46
18.66
23.02
27.13
30.44
32.36
32.43
30.50
26.83
22.03
16.87
11.99
7.77
4.19
0.99
-2.14
-5.43
-8.83
-12.17
-15.13
-17.42
-18.88
-19.45
-19.26
-18.50
-17.41
-16.19
-15.01
-13.99
-13.25
-12.88
-12.90
-13.19
-13.57
-13.78
-13.62
-13.00
-11.98
-10.67
-9.21
-7.68
-6.20
-4.84
-3.65
-2.59
-1.55
-0.37
1.04
2.64
4.30
5.84
7.14
8.13
8.81
9.18
9.24
8.99
8.49
7.85
7.16
6.52
5.90
5.21
4.42
3.54
2.67
1.93
1.39
0.99
0.59
0.03
-0.83
-1.96
-3.26
-4.55
-5.64
-6.43
-6.89
-7.09
-7.24
-7.52
-8.12
-9.10
-10.35
-11.66
-12.72
-13.32
-13.34
-12.81
-11.89
-10.74
-9.55
-8.45
-7.55
-6.88
-6.40
-5.95
-5.36
-4.50
-3.33
-1.93
-0.48
0.84
1.92
2.76
3.43
4.04
4.67
5.39
6.21
7.16
8.22
9.30
10.23
10.82
10.92
10.46
9.55
8.46
7.46
6.77
6.49
6.58
6.88
7.19
7.35
7.23
6.78
6.02
5.04
3.92
2.74
1.54
0.33
-0.95
-2.26
-3.54
-4.62
-5.35
-5.62
-5.45
-4.99
-4.46
-4.01
-3.69
-3.45
-3.14
-2.66
-1.95
-1.04
-0.07
0.84
1.57
2.06
2.32
2.47
2.61
2.85
3.24
3.80
4.47
5.18
5.83
6.30
6.48
6.29
5.79
5.14
4.62
4.41
4.60
4.97
5.19
4.89
3.88
2.15
-0.01
-2.20
-4.06
-5.34
-5.98
-6.05
-5.76
-5.32
-4.94
-4.77
-4.86
-5.20
-5.75
-6.48
-7.38
-8.42
-9.47
-10.32
-10.64
-10.18
-8.92
-7.09
-5.13
-3.48
-2.39
-1.81
-1.44
-0.87
0.13
1.59
3.34
5.05
6.49
7.51
8.14
8.46
8.58
8.59
8.51
8.33
8.08
7.73
7.28
6.69
5.95
5.04
4.03
3.05
2.30
1.97
2.15
2.80
3.73
4.70
5.44
5.80
5.75
5.38
4.84
4.29
3.87
3.62
3.51
3.33
2.85
1.81
0.09
-2.17
-4.61
-6.68
-7.87
-7.84
-6.67
-4.71
-2.51
-0.56
0.91
2.00
3.00
4.23
5.79
7.60
9.40
10.83
11.40
10.52
7.42
1.37
-8.07
-20.59
-35.14
-49.98
-63.23
-73.38
-79.65
-82.08
-81.27
-78.11
-73.55
-68.54
-64.01
-60.81
-59.56
-60.27
-62.16
-63.62
-62.67
-57.63
-47.82
-34.04
-18.36
-3.46
8.35
15.92
19.48
20.36
20.15
20.06
20.49
21.20
21.74
21.91
21.90
22.15
23.01
24.52
26.28
27.77
28.61
28.77
28.61
28.59
29.03
29.90
30.89
31.61
31.82
31.49
30.73
29.68
28.44
27.02
25.49
24.01
22.75
21.89
21.37
20.99
20.49
19.72
18.71
17.62
16.67
15.93
15.41
15.00
14.65
14.25
13.72
12.91
11.72
10.19
8.52
7.00
5.90
5.29
5.04
4.88
4.54
3.85
2.73
1.19
-0.72
-2.89
-5.11
-7.03
-8.30
-8.67
-8.12
-6.87
-5.29
-3.73
-2.48
-1.67
-1.35
-1.37
-1.52
-1.52
-1.12
-0.21
1.08
2.46
3.56
4.19
4.37
4.35
4.42
4.79
5.46
6.25
6.97
7.47
7.71
7.71
7.48
6.97
6.15
5.04
3.83
2.77
2.11
1.93
2.08
2.24
2.08
1.44
0.40
-0.82
-2.01
-3.08
-4.13
-5.35
-6.85
-8.56
-10.25
-11.61
-12.41
-12.63
-12.38
-11.87
-11.28
-10.67
-9.95
-9.00
-7.70
-6.10
-4.33
-2.62
-1.18
-0.12
0.62
1.13
1.55
1.93
2.30
2.66
3.06
3.57
4.24
4.99
5.58
5.72
5.21
4.08
2.61
1.27
0.42
0.20
0.38
0.51
0.12
-1.05
-2.87
-4.91
-6.60
-7.47
-7.29
-6.19
-4.61
-3.30
-3.20
-5.23
-10.01
-17.63
-27.48
-38.33
-48.56
-56.59
-61.31
-62.34
-60.03
-55.32
-49.34
-43.09
-37.20
-31.88
-27.10
-22.81
-19.11
-16.25
-14.46
-13.73
-13.72
-13.87
-13.74
-13.22
-12.67
-12.63
-13.49
-15.16
-17.10
-18.56
-19.03
-18.41
-17.02
-15.27
-13.36
-11.09
-8.16
-4.40
-0.04
4.29
7.94
10.51
12.11
13.20
14.25
15.48
16.72
17.62
17.93
17.67
17.08
16.49
16.02
15.56
14.83
13.69
12.24
10.84
9.99
10.07
11.13
12.95
15.15
17.35
19.39
21.25
23.05
24.87
26.71
28.42
29.84
30.85
31.48
31.81
31.99
32.06
31.99
31.71
31.11
30.16
28.91
27.44
25.86
24.27
22.73
21.25
19.82
18.40
16.96
15.48
13.99
12.59
11.44
10.65
10.24
10.10
9.97
9.57
8.69
7.23
5.34
3.29
1.41
-0.02
-0.86
-1.14
-1.04
-0.75
-0.45
-0.20
-0.02
0.18
0.46
0.92
1.59
2.45
3.42
4.34
5.07
5.51
5.66
5.60
5.48
5.43
5.51
5.67
5.78
5.70
5.35
4.75
4.03
3.31
2.70
2.20
1.77
1.35
0.93
0.59
0.39
0.36
0.42
0.38
0.07
-0.59
-1.56
-2.73
-3.94
-5.10
-6.23
-7.36
-8.55
-9.85
-11.25
-12.67
-13.98
-15.01
-15.55
-15.44
-14.62
-13.20
-11.43
-9.69
-8.27
-7.34
-6.84
-6.53
-6.13
-5.40
-4.29
-2.89
-1.41
-0.09
0.86
1.36
1.41
1.15
0.81
0.62
0.77
1.33
2.27
3.40
4.52
5.43
6.01
6.23
6.15
5.90
5.58
5.24
4.90
4.54
4.15
3.71
3.29
2.88
2.45
1.90
1.11
-0.01
-1.47
-3.21
-5.09
-6.97
-8.74
-10.33
-11.70
-12.80
-13.60
-14.06
-14.13
-13.78
-13.05
-12.05
-10.87
-9.57
-8.11
-6.33
-4.05
-1.18
2.16
5.67
8.92
11.58
13.50
14.79
15.70
16.55
17.60
18.98
20.64
22.40
24.01
25.22
25.99
26.43
26.82
27.44
28.39
29.50
30.44
30.79
30.23
28.43
25.11
19.92
12.60
3.22
-7.58
-18.73
-29.07
-37.82
-44.95
-51.09
-57.14
-63.80
-71.25
-79.20
-87.13
-94.56
-101.15
-106.49
-110.00
-110.95
-108.67
-102.95
-94.24
-83.62
-72.34
-61.44
-51.38
-42.06
-33.07
-24.11
-15.24
-6.94
0.17
5.65
9.54
12.41
15.10
18.46
22.96
28.55
34.67
40.52
45.33
48.68
50.58
51.43
51.79
52.12
52.58
53.06
53.23
52.80
51.61
49.72
47.36
44.76
42.12
39.48
36.80
34.02
31.12
28.16
25.22
22.40
19.78
17.36
15.12
13.07
11.25
9.78
8.76
8.25
8.22
8.47
8.77
8.93
8.84
8.56
8.19
7.88
7.71
7.63
7.55
7.35
6.95
6.37
5.65
4.79
3.84
2.85
1.90
1.14
0.66
0.49
0.52
0.58
0.48
0.16
-0.28
-0.66
-0.80
-0.61
-0.16
0.36
0.76
0.90
0.78
0.54
0.33
0.26
0.27
0.15
-0.30
-1.18
-2.39
-3.69
-4.78
-5.47
-5.69
-5.53
-5.10
-4.49
-3.74
-2.90
-2.07
-1.36
-0.90
-0.75
-0.91
-1.22
-1.46
-1.33
-0.61
0.76
2.60
4.56
6.22
7.31
7.79
7.88
7.85
8.00
8.43
9.10
9.84
10.48
10.86
10.86
10.41
9.52
8.27
6.85
5.53
4.57
4.10
4.04
4.16
4.15
3.69
2.60
0.85
-1.38
-3.81
-6.13
-8.13
-9.74
-11.02
-12.10
-13.09
-14.01
-14.83
-15.46
-15.90
-16.13
-16.11
-15.76
-14.86
-13.32
-11.14
-8.56
-6.00
-3.86
-2.38
-1.56
-1.20
-1.04
-0.85
-0.52
-0.05
0.56
1.28
2.07
2.86
3.56
4.07
4.30
4.26
4.04
3.82
3.82
4.28
5.33
6.91
8.78
10.49
11.61
11.85
11.16
9.77
8.06
6.34
4.80
3.46
2.26
1.13
0.01
-1.11
-2.26
-3.42
-4.51
-5.45
-6.07
-6.27
-5.98
-5.30
-4.36
-3.32
-2.26
-1.23
-0.23
0.74
1.67
2.49
3.19
3.80
4.40
5.05
5.77
6.48
7.05
7.36
7.39
7.24
7.10
7.17
7.53
8.13
8.83
9.42
9.73
9.68
9.26
8.52
7.51
6.28
4.86
3.31
1.71
0.23
-0.96
-1.74
-2.13
-2.33
-2.63
-3.27
-4.31
-5.57
-6.76
-7.62
-8.04
-8.11
-7.96
-7.64
-7.03
-5.97
-4.35
-2.33
-0.27
1.44
2.51
2.92
2.83
2.52
2.13
1.73
1.27
0.71
0.10
-0.43
-0.70
-0.67
-0.37
0.00
0.27
0.29
0.05
-0.37
-0.86
-1.32
-1.74
-2.07
-2.32
-2.47
-2.50
-2.43
-2.30
-2.22
-2.27
-2.50
-2.90
-3.44
-4.06
-4.69
-5.30
-5.86
-6.40
-6.93
-7.52
-8.16
-8.82
-9.35
-9.54
-9.21
-8.25
-6.67
-4.65
-2.44
-0.25
1.79
3.73
5.71
7.82
10.10
12.42
14.68
16.75
18.65
20.49
22.42
24.57
26.92
29.33
31.58
33.41
34.60
35.12
35.13
35.00
35.17
36.06
37.89
40.53
43.45
45.72
46.16
43.55
36.94
26.01
11.27
-6.00
-24.00
-40.96
-55.62
-67.57
-77.18
-85.30
-92.82
-100.40
-108.31
-116.47
-124.63
-132.48
-139.79
-146.43
-152.23
-156.76
-159.19
-158.15
-152.12
-140.09
-122.08
-99.56
-75.02
-51.17
-30.03
-12.47
1.74
13.34
23.09
31.42
38.53
44.56
49.70
54.20
58.18
61.63
64.43
66.48
67.76
68.24
67.89
66.67
64.68
62.22
59.75
57.66
56.04
54.64
52.97
50.62
47.49
43.78
39.91
36.20
32.77
29.52
26.26
22.94
19.69
16.78
14.54
13.10
12.39
12.16
12.10
12.00
11.83
11.71
11.79
12.16
12.78
13.52
14.17
14.61
14.78
14.69
14.36
13.83
13.17
12.45
11.75
11.15
10.67
10.25
9.78
9.21
8.56
7.87
7.23
6.68
6.21
5.77
5.29
4.73
4.07
3.30
2.44
1.50
0.55
-0.38
-1.23
-1.99
-2.69
-3.41
-4.23
-5.18
-6.25
-7.32
-8.23
-8.86
-9.19
-9.27
-9.23
-9.15
-9.03
-8.75
-8.21
-7.36
-6.28
-5.13
-4.07
-3.21
-2.50
-1.84
-1.12
-0.25
0.72
1.66
2.43
2.93
3.13
3.11
2.99
2.84
2.68
2.47
2.14
1.63
0.95
0.12
-0.81
-1.81
-2.82
-3.79
-4.63
-5.27
-5.64
-5.69
-5.49
-5.11
-4.76
-4.59
-4.75
-5.24
-5.92
-6.58
-6.97
-7.04
-6.89
-6.76
-6.93
-7.55
-8.51
-9.56
-10.36
-10.64
-10.33
-9.55
-8.48
-7.36
-6.27
-5.24
-4.28
-3.46
-2.94
-2.97
-3.65
-4.87
-6.28
-7.35
-7.62
-6.88
-5.28
-3.27
-1.37
0.02
0.81
1.16
1.38
1.71
2.26
3.00
3.80
4.62
5.46
6.32
7.11
7.65
7.73
7.25
6.30
5.14
4.08
3.34
3.01
3.00
3.14
3.22
3.08
2.63
1.90
0.97
0.05
-0.67
-1.05
-1.06
-0.72
-0.11
0.71
1.67
2.70
3.72
4.67
5.57
6.48
7.52
8.74
10.04
11.22
12.03
12.36
12.24
11.86
11.42
11.09
10.88
10.78
10.77
10.87
11.14
11.53
11.92
12.08
11.78
10.94
9.69
8.27
6.99
6.06
5.48
5.14
4.79
4.21
3.29
2.06
0.74
-0.34
-0.93
-0.90
-0.36
0.34
0.76
0.54
-0.42
-1.95
-3.64
-5.03
-5.75
-5.72
-5.09
-4.17
-3.29
-2.61
-2.12
-1.58
-0.70
0.68
2.57
4.73
6.81
8.46
9.49
9.87
9.75
9.32
8.69
7.89
6.78
5.10
2.53
-1.27
-6.66
-13.85
-22.84
-33.18
-43.90
-53.53
-60.30
-62.63
-59.59
-51.28
-38.75
-23.67
-7.86
7.16
20.26
30.82
38.69
44.32
48.77
53.63
60.52
70.41
83.04
96.77
109.09
117.50
120.49
117.99
111.16
101.76
91.36
80.79
70.14
59.07
47.24
34.67
21.78
9.19
-2.55
-13.12
-22.42
-30.38
-36.95
-42.11
-46.04
-49.26
-52.57
-56.75
-62.28
-68.98
-76.16
-82.73
-87.66
-90.15
-89.91
-86.99
-81.76
-74.79
-66.74
-58.28
-49.99
-42.30
-35.38
-29.15
-23.44
-18.04
-12.89
-8.08
-3.77
-0.13
2.75
4.91
6.42
7.39
7.92
8.09
8.01
7.75
7.31
6.52
5.16
3.00
0.08
-3.24
-6.36
-8.60
-9.67
-9.76
-9.59
-10.00
-11.69
-14.88
-19.31
-24.48
-29.97
-35.67
-41.78
-48.60
-56.36
-65.01
-74.29
-83.89
-93.61
-103.41
-113.41
-123.66
-134.09
-144.41
-154.25
-163.15
-170.73
-176.63
-180.47
-181.76
-179.94
-174.61
-165.61
-153.39
-138.89
-123.39
-108.13
-93.98
-81.22
-69.48
-58.06
-46.13
-33.13
-19.04
-4.48
9.37
21.03
29.19
33.03
32.48
28.22
21.63
14.56
9.14
7.37
10.58
18.93
31.18
45.02
57.90
67.98
74.83
79.32
82.93
86.93
91.74
96.91
101.62
105.12
107.07
107.42
106.33
103.91
100.31
95.75
90.62
85.38
80.41
75.91
71.89
68.20
64.57
60.64
56.02
50.30
43.21
34.76
25.29
15.31
5.38
-4.18
-13.26
-21.93
-30.29
-38.26
-45.72
-52.60
-59.08
-65.74
-73.23
-82.08
-92.16
-102.49
-111.33
-116.61
-116.64
-110.79
-99.72
-85.16
-69.30
-54.02
-40.37
-28.51
-18.04
-8.41
0.73
9.41
17.41
24.44
30.35
35.09
38.75
41.45
43.33
44.51
45.13
45.31
45.19
44.88
44.43
43.82
42.94
41.56
39.51
36.81
33.83
31.19
29.65
29.67
31.23
33.71
36.10
37.38
36.83
34.14
29.39
22.79
14.57
5.02
-5.57
-16.87
-28.68
-40.95
-53.79
-67.15
-80.42
-92.24
-100.74
-104.09
-101.19
-92.12
-78.16
-61.25
-43.36
-26.04
-10.18
3.86
16.10
26.79
36.40
45.54
54.86
64.76
75.21
85.67
95.30
103.35
109.46
113.83
117.01
119.59
121.86
123.72
124.81
124.80
123.53
121.13
117.84
113.83
109.08
103.45
96.78
89.09
80.62
71.72
62.72
53.76
44.77
35.61
26.12
16.24
5.99
-4.55
-15.31
-26.05
-36.29
-45.22
-51.84
-55.23
-54.93
-51.17
-44.78
-36.96
-28.82
-21.08
-14.04
-7.57
-1.46
4.43
10.02
15.06
19.15
22.05
23.72
24.42
24.66
25.02
25.88
27.29
28.96
30.38
31.09
30.83
29.65
27.85
25.79
23.71
21.68
19.52
16.97
13.75
9.77
5.11
0.05
-5.02
-9.76
-13.96
-17.61
-20.91
-24.20
-27.90
-32.38
-37.87
-44.36
-51.43
-58.25
-63.65
-66.39
-65.51
-60.63
-52.14
-41.11
-28.92
-16.91
-6.01
3.34
11.17
17.75
23.38
28.26
32.48
36.11
39.25
42.05
44.68
47.26
49.77
52.12
54.11
55.64
56.66
57.23
57.44
57.35
56.92
55.99
54.36
51.84
48.30
43.80
38.51
32.78
26.99
21.52
16.58
12.18
8.08
3.87
-0.95
-6.80
-13.87
-21.96
-30.43
-38.25
-44.18
-47.08
-46.28
-41.74
-34.11
-24.49
-14.12
-4.06
5.01
12.85
19.51
25.20
30.07
34.24
37.71
40.46
42.50
43.90
44.83
45.43
45.80
45.91
45.61
44.72
43.13
40.95
38.47
36.00
33.77
31.70
29.49
26.66
22.82
17.89
12.11
6.02
0.26
-4.75
-8.86
-12.30
-15.57
-19.31
-24.06
-30.13
-37.45
-45.47
-53.27
-59.61
-63.27
-63.37
-59.59
-52.35
-42.70
-32.00
-21.59
-12.38
-4.70
1.64
7.17
12.41
17.62
22.64
27.00
30.19
31.88
32.16
31.44
30.30
29.21
28.48
28.21
28.47
29.30
30.76
32.76
34.94
36.77
37.69
37.42
36.10
34.26
32.58
31.51
31.09
30.91
30.33
28.73
25.81
21.56
16.09
9.47
1.51
-8.08
-19.45
-32.37
-46.10
-59.42
-70.93
-79.34
-83.64
-83.30
-78.24
-68.92
-56.22
-41.39
-25.82
-10.71
3.21
15.81
27.49
38.98
50.92
63.57
76.61
89.27
100.60
109.82
116.57
120.88
122.85
122.33
118.70
111.11
98.91
82.21
62.09
40.40
19.15
-0.09
-16.53
-30.09
-41.05
-49.59
-55.69
-59.25
-60.41
-59.69
-57.91
-55.87
-54.09
-52.65
-51.31
-49.80
-48.11
-46.57
-45.73
-46.14
-47.92
-50.64
-53.24
-54.34
-52.59
-47.18
-38.13
-26.21
-12.60
1.54
15.47
28.84
41.50
53.23
63.65
72.36
79.19
84.36
88.33
91.56
94.27
96.34
97.51
97.61
96.68
94.90
92.47
89.40
85.63
81.08
75.87
70.29
64.79
59.74
55.35
51.65
48.43
45.43
42.30
38.74
34.49
29.46
23.77
17.69
11.60
5.82
0.48
-4.57
-9.63
-15.02
-20.90
-27.17
-33.47
-39.25
-43.94
-47.03
-48.19
-47.30
-44.53
-40.28
-35.15
-29.81
-24.86
-20.64
-17.20
-14.38
-11.95
-9.74
-7.79
-6.22
-5.20
-4.76
-4.76
-4.95
-5.05
-4.89
-4.50
-4.07
-3.85
-4.06
-4.77
-5.87
-7.13
-8.33
-9.34
-10.14
-10.79
-11.39
-11.99
-12.65
-13.51
-14.73
-16.48
-18.87
-21.81
-25.05
-28.25
-31.09
-33.48
-35.56
-37.61
-39.96
-42.79
-45.98
-49.14
-51.68
-52.92
-52.36
-49.81
-45.49
-40.01
-34.13
-28.64
-24.09
-20.72
-18.48
-17.15
-16.52
-16.54
-17.39
-19.40
-22.94
-28.32
-35.56
-44.39
-54.18
-64.06
-73.03
-80.28
-85.28
-87.87
-88.32
-87.14
-84.98
-82.56
-80.48
-79.07
-78.24
-77.42
-75.71
-72.27
-66.72
-59.31
-50.79
-42.12
-34.12
-27.32
-22.10
-18.87
-18.14
-20.24
-25.04
-31.71
-38.79
-44.68
-48.05
-48.27
-45.42
-40.19
-33.60
-26.79
-20.80
-16.32
-13.50
-11.94
-10.78
-9.16
-6.55
-2.94
1.07
4.61
6.66
6.31
2.77
-4.48
-15.64
-30.46
-48.23
-67.89
-88.29
-108.49
-127.76
-145.28
-159.76
-169.15
-170.90
-162.63
-142.84
-111.57
-70.42
-22.28
29.27
80.37
127.33
166.99
197.06
216.47
225.58
225.92
219.71
209.21
196.36
182.65
169.38
157.77
148.91
143.56
141.87
143.28
146.68
150.69
153.98
155.50
154.59
151.05
145.07
137.17
128.08
118.59
109.46
101.34
94.64
89.43
85.35
81.76
77.91
73.29
67.77
61.49
54.65
47.27
39.18
30.21
20.42
10.25
0.27
-9.08
-17.75
-26.05
-34.41
-43.05
-51.84
-60.46
-68.65
-76.37
-83.76
-90.84
-97.44
-103.10
-107.40
-110.19
-111.56
-111.71
-110.54
-107.55
-101.91
-92.83
-79.99
-63.73
-44.91
-24.80
-4.79
13.64
29.08
40.30
46.53
47.80
45.09
40.07
34.68
30.48
28.24
27.83
28.59
29.69
30.65
31.50
32.56
34.04
35.57
36.18
34.48
29.39
20.63
9.00
-3.88
-16.18
-26.47
-34.03
-38.70
-40.64
-40.00
-36.90
-31.60
-24.66
-16.99
-9.58
-3.24
1.65
5.11
7.37
8.69
9.19
8.82
7.53
5.28
2.13
-1.80
-6.36
-11.33
-16.42
-21.23
-25.32
-28.31
-30.05
-30.70
-30.60
-30.13
-29.34
-27.77
-24.65
-19.21
-11.24
-1.42
8.88
18.04
24.97
29.46
32.15
33.99
35.65
37.12
37.88
37.24
34.78
30.66
25.47
19.88
14.32
8.88
3.36
-2.47
-8.65
-14.97
-21.02
-26.44
-31.03
-34.85
-38.07
-40.91
-43.50
-45.81
-47.79
-49.47
-50.94
-52.38
-53.94
-55.64
-57.32
-58.67
-59.26
-58.83
-57.25
-54.73
-51.57
-48.00
-43.90
-38.82
-32.27
-24.10
-14.82
-5.53
2.49
8.32
11.77
13.30
13.72
13.71
13.54
13.09
12.13
10.54
8.48
6.24
4.15
2.36
0.84
-0.59
-2.10
-3.76
-5.50
-7.12
-8.40
-9.16
-9.38
-9.15
-8.61
-7.90
-7.09
-6.17
-5.14
-4.04
-2.96
-2.07
-1.54
-1.48
-1.87
-2.61
-3.51
-4.45
-5.34
-6.17
-6.98
-7.76
-8.46
-9.02
-9.43
-9.78
-10.24
-11.00
-12.21
-13.84
-15.72
-17.61
-19.23
-20.46
-21.30
-21.84
-22.17
-22.28
-22.08
-21.41
-20.12
-18.20
-15.80
-13.18
-10.61
-8.34
-6.50
-5.13
-4.24
-3.81
-3.82
-4.19
-4.76
-5.28
-5.51
-5.30
-4.66
-3.84
-3.13
-2.79
-2.89
-3.33
-3.87
-4.31
-4.57
-4.67
-4.72
-4.80
-4.95
-5.20
-5.57
-6.09
-6.81
-7.69
-8.58
-9.29
-9.65
-9.63
-9.33
-8.83
-8.08
-6.73
-4.23
-0.10
5.79
12.93
20.19
26.19
29.75
30.26
27.83
23.13
17.09
10.53
4.16
-1.48
-5.92
-8.76
-9.78
-9.05
-7.02
-4.42
-1.99
-0.23
0.80
1.45
2.38
4.13
6.86
10.22
13.39
15.35
15.19
12.35
6.75
-1.25
-10.87
-21.08
-30.72
-38.74
-44.34
-47.15
-47.31
-45.38
-42.18
-38.60
-35.42
-33.11
-31.87
-31.57
-31.88
-32.40
-32.77
-32.87
-32.67
-32.19
-31.34
-29.89
-27.62
-24.47
-20.73
-16.89
-13.50
-10.83
-8.77
-6.98
-5.08
-2.94
-0.77
1.04
2.18
2.60
2.60
2.60
2.89
3.50
4.17
4.55
4.37
3.66
2.66
1.77
1.31
1.35
1.76
2.19
2.31
1.92
1.01
-0.26
-1.65
-2.94
-4.00
-4.85
-5.62
-6.47
-7.58
-9.00
-10.70
-12.51
-14.24
-15.72
-16.89
-17.83
-18.75
-20.02
-22.03
-25.07
-29.11
-33.73
-38.10
-41.23
-42.25
-40.73
-36.74
-30.74
-23.32
-15.01
-6.20
2.84
11.84
20.55
28.76
36.45
43.69
50.59
57.09
62.85
67.25
69.66
69.62
67.07
62.39
56.33
49.73
43.34
37.60
32.66
28.45
24.81
21.60
18.76
16.23
13.91
11.65
9.25
6.54
3.46
0.07
-3.43
-6.80
-9.79
-12.23
-14.09
-15.50
-16.70
-17.91
-19.23
-20.58
-21.79
-22.71
-23.32
-23.75
-24.16
-24.59
-24.87
-24.73
-23.94
-22.49
-20.66
-18.86
-17.42
-16.40
-15.60
-14.70
-13.43
-11.75
-9.81
-7.84
-6.07
-4.61
-3.49
-2.70
-2.25
-2.13
-2.29
-2.63
-3.06
-3.54
-4.10
-4.76
-5.53
-6.31
-6.95
-7.34
-7.48
-7.46
-7.52
-7.82
-8.36
-8.98
-9.37
-9.25
-8.49
-7.22
-5.75
-4.42
-3.49
-3.04
-2.98
-3.16
-3.41
-3.65
-3.86
-4.08
-4.33
-4.69
-5.18
-5.81
-6.52
-7.20
-7.76
-8.13
-8.30
-8.25
-7.96
-7.34
-6.37
-5.11
-3.77
-2.61
-1.86
-1.52
-1.44
-1.32
-0.94
-0.22
0.76
1.86
2.90
3.76
4.34
4.58
4.46
4.04
3.46
2.90
2.57
2.59
2.99
3.65
4.41
5.02
5.33
5.23
4.80
4.19
3.64
3.32
3.33
3.62
4.03
4.37
4.49
4.28
3.75
2.96
1.97
0.87
-0.28
-1.44
-2.51
-3.41
-4.02
-4.31
-4.33
-4.16
-3.91
-3.59
-3.10
-2.30
-1.10
0.44
2.09
3.55
4.55
4.96
4.87
4.48
4.10
3.95
4.14
4.64
5.24
5.71
5.85
5.62
5.16
4.71
4.48
4.52
4.70
4.77
4.54
3.91
2.97
1.88
0.74
-0.42
-1.67
-3.10
-4.70
-6.39
-7.99
-9.38
-10.48
-11.33
-11.97
-12.47
-12.84
-13.04
-13.02
-12.74
-12.23
-11.54
-10.75
-9.90
-8.97
-7.90
-6.66
-5.27
-3.83
-2.51
-1.47
-0.77
-0.43
-0.37
-0.47
-0.60
-0.63
-0.51
-0.24
0.12
0.51
0.86
1.17
1.46
1.72
1.93
2.03
1.97
1.75
1.46
1.21
1.06
0.98
0.87
0.61
0.21
-0.29
-0.79
-1.23
-1.67
-2.23
-3.08
-4.26
-5.73
-7.29
-8.66
-9.57
-9.86
-9.55
-8.80
-7.81
-6.76
-5.69
-4.56
-3.34
-2.04
-0.80
0.21
0.89
1.24
1.38
1.49
1.70
2.01
2.31
2.49
2.46
2.24
1.92
1.64
1.59
1.89
2.55
3.49
4.47
5.26
5.64
5.53
4.96
4.02
2.84
1.54
0.22
-1.02
-2.03
-2.75
-3.12
-3.21
-3.20
-3.31
-3.72
-4.53
-5.72
-7.14
-8.56
-9.71
-10.37
-10.44
-10.02
-9.31
-8.56
-7.89
-7.28
-6.51
-5.36
-3.71
-1.67
0.49
2.47
4.08
5.28
6.19
6.95
7.65
8.29
8.84
9.30
9.71
10.16
10.71
11.36
12.03
12.57
12.83
12.77
12.41
11.85
11.20
10.51
9.77
8.90
7.84
6.57
5.17
3.76
2.46
1.30
0.22
-0.83
-1.91
-3.01
-4.02
-4.84
-5.46
-5.99
-6.64
-7.61
-8.93
-10.47
-11.91
-12.96
-13.40
-13.21
-12.47
-11.33
-9.91
-8.28
-6.54
-4.74
-3.00
-1.36
0.14
1.49
2.66
3.68
4.58
5.47
6.43
7.53
8.71
9.82
10.63
11.01
10.90
10.35
9.53
8.64
7.81
7.17
6.76
6.52
6.39
6.25
6.05
5.76
5.41
5.03
4.62
4.15
3.62
3.06
2.50
1.99
1.46
0.80
-0.13
-1.36
-2.78
-4.17
-5.28
-5.96
-6.16
-5.95
-5.43
-4.74
-3.93
-3.07
-2.12
-1.01
0.34
1.95
3.76
5.62
7.27
8.50
9.24
9.56
9.67
9.79
10.11
10.65
11.33
11.96
12.32
12.27
11.76
10.84
9.64
8.34
7.10
6.01
5.12
4.43
3.91
3.51
3.15
2.74
2.18
1.41
0.41
-0.78
-2.01
-3.16
-4.08
-4.69
-5.04
-5.27
-5.62
-6.32
-7.48
-8.97
-10.52
-11.68
-12.12
-11.69
-10.46
-8.67
-6.62
-4.57
-2.67
-0.99
0.47
1.78
3.03
4.28
5.55
6.77
7.82
8.61
9.14
9.54
9.94
10.44
11.01
11.52
11.79
11.74
11.41
10.93
10.46
10.10
9.85
9.63
9.29
8.69
7.75
6.58
5.38
4.46
4.05
4.19
4.68
5.11
5.10
4.37
2.91
0.90
-1.38
-3.65
-5.75
-7.60
-9.15
-10.38
-11.20
-11.55
-11.43
-10.91
-10.18
-9.40
-8.58
-7.58
-6.13
-4.01
-1.23
1.91
4.91
7.26
8.66
9.15
9.01
8.62
8.26
8.01
7.83
7.66
7.53
7.52
7.74
8.16
8.64
8.89
8.70
7.98
6.91
5.79
4.92
4.46
4.37
4.42
4.37
4.08
3.54
2.86
2.18
1.58
1.05
0.52
-0.10
-0.93
-2.05
-3.47
-5.11
-6.74
-8.13
-9.06
-9.45
-9.34
-8.86
-8.15
-7.19
-5.93
-4.29
-2.26
-0.02
2.20
4.14
5.62
6.65
7.31
7.75
8.11
8.46
8.78
9.01
9.06
8.89
8.54
8.10
7.65
7.28
7.00
6.75
6.51
6.24
5.97
5.71
5.48
5.22
4.87
4.34
3.63
2.74
1.77
0.78
-0.15
-1.03
-1.87
-2.70
-3.58
-4.54
-5.58
-6.70
-7.84
-8.90
-9.77
-10.32
-10.49
-10.21
-9.52
-8.49
-7.23
-5.83
-4.29
-2.62
-0.78
1.18
3.13
4.91
6.34
7.34
7.94
8.23
8.38
8.49
8.61
8.76
8.91
9.00
8.96
8.75
8.37
7.88
7.39
7.02
6.80
6.69
6.57
6.37
6.10
5.81
5.54
5.27
4.88
4.25
3.37
2.34
1.31
0.47
-0.12
-0.55
-1.04
-1.82
-3.07
-4.86
-7.02
-9.28
-11.37
-13.11
-14.45
-15.47
-16.24
-16.76
-16.90
-16.50
-15.49
-13.96
-12.11
-10.19
-8.35
-6.65
-5.03
-3.44
-1.83
-0.19
1.50
3.23
4.90
6.39
7.51
8.16
8.41
8.44
8.51
8.83
9.44
10.24
11.05
11.70
12.10
12.20
12.00
11.44
10.53
9.34
8.01
6.76
5.76
5.02
4.38
3.57
2.33
0.55
-1.65
-4.01
-6.20
-8.01
-9.36
-10.34
-11.03
-11.46
-11.60
-11.35
-10.67
-9.62
-8.31
-6.90
-5.52
-4.19
-2.90
-1.62
-0.37
0.78
1.71
2.35
2.70
2.87
3.08
3.54
4.35
5.47
6.70
7.73
8.35
8.43
8.02
7.28
6.42
5.62
4.99
4.60
4.44
4.49
4.66
4.86
4.97
4.87
4.52
3.93
3.20
2.44
1.82
1.40
1.17
1.02
0.75
0.18
-0.82
-2.28
-4.10
-6.10
-8.04
-9.66
-10.76
-11.22
-11.03
-10.29
-9.13
-7.72
-6.16
-4.55
-2.93
-1.39
-0.03
1.05
1.79
2.22
2.43
2.59
2.82
3.14
3.53
3.90
4.23
4.53
4.90
5.43
6.17
7.07
8.00
8.72
9.01
8.76
8.00
6.90
5.71
4.66
3.83
3.16
2.51
1.76
0.88
-0.08
-1.03
-1.95
-2.85
-3.78
-4.71
-5.59
-6.34
-6.98
-7.57
-8.27
-9.18
-10.29
-11.42
-12.29
-12.66
-12.41
-11.59
-10.41
-9.11
-7.83
-6.60
-5.37
-4.02
-2.51
-0.92
0.59
1.88
2.84
3.49
3.94
4.34
4.81
5.40
6.04
6.64
7.10
7.39
7.56
7.71
7.95
8.30
8.74
9.13
9.33
9.23
8.77
7.99
6.97
5.81
4.59
3.35
2.12
0.91
-0.26
-1.39
-2.50
-3.60
-4.70
-5.77
-6.72
-7.51
-8.14
-8.71
-9.39
-10.33
-11.60
-13.10
-14.59
-15.72
-16.15
-15.71
-14.39
-12.40
-10.04
-7.61
-5.31
-3.21
-1.24
0.63
2.42
4.05
5.46
6.66
7.75
8.86
10.01
11.09
11.85
12.03
11.50
10.35
8.88
7.49
6.47
5.97
5.93
6.18
6.56
6.97
7.36
7.69
7.85
7.67
7.06
6.01
4.64
3.19
1.89
0.89
0.10
-0.61
-1.47
-2.62
-4.10
-5.86
-7.79
-9.74
-11.57
-13.07
-14.11
-14.58
-14.47
-13.84
-12.84
-11.66
-10.46
-9.32
-8.23
-7.14
-5.95
-4.64
-3.26
-1.96
-0.87
-0.10
0.36
0.64
0.92
1.32
1.90
2.63
3.44
4.28
5.14
6.02
6.90
7.69
8.22
8.32
7.89
6.97
5.77
4.57
3.61
2.95
2.47
1.98
1.27
0.31
-0.75
-1.72
-2.43
-2.87
-3.17
-3.52
-4.03
-4.70
-5.43
-6.12
-6.66
-7.03
-7.18
-7.02
-6.42
-5.28
-3.58
-1.46
0.83
3.00
4.78
6.05
6.78
7.07
7.09
7.01
7.01
7.12
7.36
7.68
7.98
8.20
8.30
8.24
8.02
7.70
7.34
7.06
6.91
6.89
6.90
6.76
6.35
5.61
4.56
3.31
2.01
0.79
-0.33
-1.27
-2.10
-2.87
-3.65
-4.49
-5.42
-6.43
-7.53
-8.76
-10.14
-11.64
-13.16
-14.52
-15.49
-15.91
-15.76
-15.15
-14.31
-13.49
-12.83
-12.28
-11.67
-10.74
-9.31
-7.36
-5.07
-2.76
-0.74
0.76
1.73
2.34
2.81
3.35
4.04
4.84
5.65
6.38
6.98
7.43
7.75
7.89
7.82
7.50
7.01
6.47
6.06
5.88
5.90
5.99
5.92
5.47
4.56
3.21
1.52
-0.36
-2.32
-4.25
-6.10
-7.78
-9.25
-10.53
-11.66
-12.70
-13.69
-14.60
-15.31
-15.67
-15.55
-14.87
-13.64
-11.96
-9.97
-7.84
-5.75
-3.86
-2.24
-0.86
0.41
1.78
3.37
5.21
7.16
8.98
10.39
11.24
11.49
11.24
10.70
10.08
9.57
9.25
9.15
9.22
9.34
9.39
9.28
8.92
8.26
7.34
6.19
4.93
3.71
2.63
1.71
0.88
-0.03
-1.19
-2.66
-4.39
-6.20
-7.94
-9.48
-10.80
-11.91
-12.84
-13.60
-14.15
-14.44
-14.45
-14.17
-13.61
-12.78
-11.71
-10.41
-8.88
-7.09
-4.97
-2.54
0.12
2.81
5.27
7.24
8.63
9.55
10.21
10.86
11.62
12.40
13.06
13.46
13.59
13.60
13.64
13.79
14.01
14.11
13.97
13.57
13.05
12.63
12.46
12.50
12.56
12.37
11.71
10.58
9.12
7.55
6.03
4.63
3.27
1.84
0.23
-1.59
-3.61
-5.74
-7.84
-9.75
-11.34
-12.52
-13.26
-13.63
-13.69
-13.46
-12.90
-11.95
-10.55
-8.75
-6.71
-4.62
-2.70
-1.03
0.38
1.65
2.93
4.30
5.77
7.19
8.41
9.30
9.84
10.08
10.16
10.13
10.02
9.78
9.43
9.02
8.66
8.37
8.09
7.65
6.87
5.71
4.29
2.83
1.53
0.41
-0.67
-1.95
-3.51
-5.28
-6.97
-8.21
-8.78
-8.71
-8.26
-7.84
-7.79
-8.21
-8.88
-9.30
-8.89
-7.26
-4.48
-1.21
1.47
2.39
0.78
-3.36
-9.22
-15.42
-20.45
-23.12
-22.91
-19.93
-14.80
-8.35
-1.40
5.39
11.49
16.50
20.22
22.59
23.83
24.28
24.36
24.43
24.67
25.04
25.36
25.37
24.87
23.78
22.15
20.19
18.14
16.25
14.67
13.45
12.52
11.73
10.90
9.91
8.73
7.38
5.93
4.42
2.88
1.29
-0.35
-2.01
-3.59
-4.97
-6.04
-6.72
-7.03
-7.01
-6.72
-6.20
-5.52
-4.70
-3.81
-2.90
-2.01
-1.18
-0.43
0.19
0.67
0.99
1.19
1.31
1.42
1.53
1.64
1.77
1.99
2.35
2.87
3.48
4.06
4.48
4.69
4.76
4.74
4.71
4.62
4.37
3.88
3.10
2.11
1.01
-0.11
-1.22
-2.39
-3.66
-5.07
-6.59
-8.10
-9.52
-10.80
-11.99
-13.17
-14.40
-15.62
-16.64
-17.23
-17.17
-16.40
-14.95
-13.00
-10.74
-8.31
-5.84
-3.45
-1.25
0.63
2.11
3.19
3.96
4.54
5.06
5.58
6.09
6.55
6.91
7.17
7.38
7.63
8.02
8.53
9.10
9.58
9.88
9.94
9.80
9.51
9.09
8.53
7.77
6.80
5.62
4.28
2.80
1.18
-0.54
-2.36
-4.18
-5.91
-7.47
-8.85
-10.09
-11.26
-12.38
-13.44
-14.40
-15.15
-15.67
-15.92
-15.90
-15.62
-15.11
-14.43
-13.60
-12.66
-11.61
-10.45
-9.19
-7.87
-6.52
-5.19
-3.92
-2.73
-1.60
-0.50
0.59
1.67
2.70
3.64
4.46
5.19
5.89
6.61
7.37
8.13
8.78
9.24
9.44
9.44
9.27
9.02
8.68
8.23
7.61
6.82
5.92
5.03
4.27
3.67
3.20
2.76
2.27
1.69
1.02
0.28
-0.59
-1.68
-3.07
-4.71
-6.46
-8.02
-9.09
-9.48
-9.12
-8.10
-6.68
-5.12
-3.67
-2.44
-1.42
-0.46
0.59
1.79
3.09
4.33
5.38
6.22
6.91
7.53
8.11
8.58
8.81
8.71
8.31
7.75
7.18
6.74
6.48
6.37
6.35
6.31
6.15
5.78
5.14
4.25
3.20
2.13
1.16
0.42
-0.03
-0.26
-0.60
-1.59
-3.96
-8.29
-14.67
-22.48
-30.53
-37.36
-41.81
-43.40
-42.41
-39.53
-35.50
-30.72
-25.23
-18.86
-11.58
-3.72
4.09
11.18
17.11
21.84
25.72
29.26
32.94
37.05
41.75
47.15
53.32
60.22
67.52
74.54
80.25
83.64
84.11
81.71
77.17
71.43
65.22
58.65
51.23
42.28
31.51
19.39
7.23
-3.41
-11.32
-16.21
-18.82
-20.40
-22.05
-24.27
-26.83
-29.22
-31.11
-32.67
-34.48
-37.12
-40.68
-44.67
-48.17
-50.29
-50.56
-49.09
-46.43
-43.29
-40.17
-37.26
-34.39
-31.24
-27.52
-23.22
-18.58
-14.04
-10.01
-6.77
-4.33
-2.47
-0.94
0.43
1.73
2.89
3.88
4.68
5.33
5.88
6.39
6.86
7.30
7.75
8.23
8.75
9.23
9.54
9.53
9.10
8.26
7.13
5.90
4.74
3.72
2.83
1.98
1.09
0.19
-0.68
-1.41
-2.00
-2.55
-3.18
-4.01
-5.03
-6.11
-7.04
-7.71
-8.08
-8.22
-8.20
-8.02
-7.61
-6.90
-5.86
-4.54
-3.06
-1.55
-0.09
1.22
2.29
3.01
3.29
3.12
2.56
1.77
0.91
0.08
-0.72
-1.54
-2.41
-3.34
-4.21
-4.87
-5.20
-5.18
-4.92
-4.60
-4.42
-4.45
-4.63
-4.86
-5.10
-5.39
-5.83
-6.45
-7.16
-7.74
-8.01
-7.97
-7.90
-8.17
-9.07
-10.56
-12.28
-13.74
-14.53
-14.49
-13.75
-12.57
-11.16
-9.65
-8.06
-6.44
-4.84
-3.36
-2.06
-0.90
0.20
1.34
2.51
3.57
4.34
4.69
4.58
4.13
3.57
3.14
3.03
3.24
3.67
4.09
4.34
4.31
3.97
3.40
2.67
1.83
0.88
-0.15
-1.30
-2.48
-3.67
-4.80
-5.85
-6.85
-7.80
-8.68
-9.47
-10.10
-10.56
-10.86
-11.06
-11.25
-11.51
-11.88
-12.32
-12.69
-12.84
-12.57
-11.78
-10.44
-8.61
-6.45
-4.13
-1.81
0.37
2.34
4.06
5.50
6.67
7.66
8.54
9.38
10.22
11.04
11.79
12.43
12.91
13.23
13.41
13.48
13.52
13.58
13.70
13.80
13.75
13.35
12.47
11.11
9.36
7.43
5.49
3.62
1.81
-0.07
-2.13
-4.36
-6.63
-8.70
-10.34
-11.47
-12.15
-12.57
-12.95
-13.39
-13.87
-14.25
-14.36
-14.07
-13.39
-12.43
-11.29
-10.09
-8.81
-7.38
-5.72
-3.84
-1.84
0.09
1.74
2.96
3.72
4.11
4.28
4.37
4.45
4.53
4.60
4.66
4.74
4.84
4.96
5.00
4.87
4.45
3.71
2.72
1.64
0.62
-0.23
-0.87
-1.31
-1.62
-1.87
-2.16
-2.56
-3.16
-3.97
-4.88
-5.78
-6.53
-7.08
-7.50
-7.91
-8.45
-9.20
-10.16
-11.19
-12.10
-12.65
-12.59
-11.77
-10.19
-8.01
-5.50
-2.95
-0.59
1.51
3.34
4.95
6.36
7.55
8.51
9.24
9.78
10.19
10.50
10.72
10.81
10.68
10.28
9.58
8.64
7.59
6.60
5.78
5.19
4.76
4.37
3.86
3.15
2.22
1.07
-0.27
-1.78
-3.37
-4.96
-6.40
-7.60
-8.51
-9.24
-9.92
-10.71
-11.69
-12.86
-14.14
-15.47
-16.80
-18.05
-19.10
-19.72
-19.68
-18.78
-16.97
-14.37
-11.30
-8.15
-5.28
-2.88
-0.93
0.74
2.31
3.89
5.39
6.65
7.46
7.77
7.59
7.10
6.47
5.84
5.32
4.95
4.80
4.87
5.17
5.66
6.27
6.91
7.50
7.95
8.17
8.10
7.73
7.12
6.38
5.59
4.78
3.92
2.94
1.80
0.57
-0.66
-1.78
-2.74
-3.61
-4.54
-5.70
-7.17
-8.92
-10.76
-12.39
-13.51
-13.87
-13.36
-12.05
-10.15
-8.00
-5.92
-4.17
-2.78
-1.65
-0.48
0.94
2.76
4.92
7.22
9.42
11.30
12.71
13.58
13.90
13.70
13.12
12.42
11.93
11.92
12.51
13.56
14.79
15.84
16.49
16.70
16.62
16.40
16.12
15.73
15.11
14.16
12.91
11.45
9.88
8.27
6.59
4.75
2.63
0.16
-2.62
-5.62
-8.64
-11.45
-13.84
-15.67
-16.88
-17.49
-17.51
-16.93
-15.69
-13.75
-11.14
-8.04
-4.75
-1.58
1.18
3.41
5.09
6.28
7.07
7.54
7.76
7.80
7.75
7.71
7.74
7.87
8.10
8.39
8.66
8.86
8.96
8.91
8.72
8.40
7.91
7.22
6.29
5.11
3.72
2.22
0.78
-0.45
-1.39
-2.04
-2.50
-2.89
-3.33
-3.85
-4.46
-5.15
-5.98
-7.09
-8.56
-10.37
-12.29
-13.99
-15.09
-15.38
-14.84
-13.62
-11.95
-10.03
-7.93
-5.73
-3.49
-1.34
0.54
2.01
3.02
3.61
3.91
4.08
4.30
4.62
5.09
5.61
6.07
6.37
6.45
6.40
6.36
6.47
6.76
7.17
7.57
7.85
7.97
7.96
7.83
7.56
7.10
6.40
5.46
4.39
3.27
2.16
1.00
-0.28
-1.78
-3.50
-5.36
-7.22
-8.91
-10.34
-11.46
-12.31
-12.96
-13.52
-14.03
-14.41
-14.48
-13.98
-12.74
-10.78
-8.30
-5.67
-3.28
-1.37
-0.00
0.94
1.61
2.13
2.57
2.92
3.19
3.39
3.55
3.70
3.85
3.96
4.03
4.08
4.11
4.18
4.30
4.47
4.66
4.80
4.88
4.81
4.59
4.20
3.64
2.96
2.22
1.46
0.69
-0.18
-1.25
-2.58
-4.15
-5.81
-7.36
-8.69
-9.75
-10.60
-11.27
-11.73
-11.79
-11.26
-10.04
-8.18
-5.92
-3.54
-1.24
0.90
2.88
4.72
6.40
7.79
8.77
9.27
9.30
8.97
8.47
7.99
7.66
7.52
7.55
7.68
7.89
8.17
8.54
8.99
9.43
9.71
9.66
9.13
8.11
6.73
5.22
3.80
2.62
1.69
0.88
0.06
-0.91
-2.08
-3.42
-4.91
-6.51
-8.19
-9.91
-11.54
-12.89
-13.81
-14.21
-14.12
-13.62
-12.77
-11.62
-10.11
-8.23
-6.03
-3.63
-1.24
0.95
2.81
4.27
5.34
6.12
6.68
7.14
7.55
7.99
8.50
9.08
9.78
10.54
11.29
11.88
12.17
12.07
11.66
11.11
10.63
10.34
10.19
9.94
9.28
8.00
6.08
3.67
1.02
-1.59
-4.00
-6.10
-7.84
-9.25
-10.38
-11.36
-12.35
-13.48
-14.77
-16.08
-17.17
-17.76
-17.65
-16.74
-15.06
-12.76
-10.10
-7.31
-4.68
-2.40
-0.60
0.74
1.71
2.42
2.99
3.49
4.00
4.61
5.42
6.45
7.68
8.94
10.04
10.83
11.30
11.54
11.68
11.90
12.23
12.61
12.92
12.99
12.70
12.04
11.10
10.04
8.97
7.90
6.78
5.53
4.16
2.76
1.45
0.25
-0.93
-2.31
-4.07
-6.24
-8.63
-10.90
-12.72
-13.95
-14.61
-14.87
-14.82
-14.42
-13.52
-11.95
-9.67
-6.80
-3.63
-0.53
2.24
4.53
6.38
7.86
9.07
10.01
10.71
11.13
11.31
11.34
11.30
11.27
11.26
11.20
11.03
10.64
10.01
9.18
8.25
7.35
6.62
6.12
5.84
5.69
5.52
5.22
4.70
3.96
3.06
2.00
0.80
-0.53
-1.99
-3.53
-5.13
-6.76
-8.45
-10.24
-12.16
-14.15
-16.13
-17.95
-19.44
-20.42
-20.72
-20.21
-18.85
-16.77
-14.20
-11.47
-8.85
-6.48
-4.38
-2.41
-0.48
1.44
3.31
5.03
6.57
7.92
9.13
10.20
11.09
11.73
12.08
12.20
12.20
12.24
12.38
12.65
12.96
13.20
13.26
13.07
12.64
11.97
11.09
10.05
8.89
7.65
6.38
5.10
3.83
2.58
1.34
0.06
-1.26
-2.66
-4.17
-5.81
-7.59
-9.47
-11.40
-13.25
-14.87
-16.09
-16.78
-16.78
-16.03
-14.50
-12.27
-9.51
-6.49
-3.50
-0.79
1.50
3.33
4.78
5.96
6.98
7.90
8.71
9.35
9.79
10.00
10.01
9.95
9.91
9.99
10.19
10.48
10.78
11.06
11.26
11.34
11.20
10.71
9.77
8.31
6.41
4.23
1.98
-0.13
-1.93
-3.34
-4.38
-5.14
-5.76
-6.49
-7.53
-8.99
-10.87
-12.99
-15.09
-16.87
-18.10
-18.65
-18.47
-17.60
-16.10
-14.04
-11.49
-8.57
-5.40
-2.15
1.01
3.93
6.51
8.69
10.45
11.77
12.65
13.09
13.10
12.77
12.22
11.66
11.25
11.09
11.15
11.30
11.28
10.83
9.81
8.22
6.24
4.14
2.17
0.45
-1.06
-2.47
-3.94
-5.55
-7.30
-9.06
-10.68
-11.99
-12.92
-13.46
-13.79
-14.13
-14.67
-15.52
-16.55
-17.50
-18.02
-17.86
-16.86
-15.05
-12.55
-9.54
-6.23
-2.82
0.45
3.40
5.89
7.97
9.72
11.33
12.93
14.52
15.98
17.14
17.90
18.24
18.24
18.03
17.70
17.29
16.79
16.17
15.43
14.58
13.65
12.61
11.39
9.93
8.21
6.30
4.35
2.48
0.75
-0.85
-2.38
-3.91
-5.45
-7.01
-8.56
-10.09
-11.69
-13.42
-15.33
-17.35
-19.30
-20.93
-22.00
-22.30
-21.74
-20.37
-18.30
-15.74
-12.92
-10.02
-7.16
-4.38
-1.66
0.97
3.39
5.45
7.02
8.07
8.71
9.15
9.55
9.97
10.35
10.60
10.64
10.52
10.35
10.22
10.14
10.00
9.64
8.94
7.89
6.65
5.43
4.49
3.95
3.76
3.70
3.48
2.87
1.81
0.45
-0.99
-2.34
-3.63
-5.06
-6.88
-9.19
-11.88
-14.66
-17.17
-19.16
-20.54
-21.36
-21.66
-21.37
-20.31
-18.36
-15.47
-11.87
-7.97
-4.21
-0.93
1.74
3.90
5.72
7.34
8.77
9.89
10.60
10.85
10.77
10.58
10.44
10.44
10.50
10.51
10.37
10.08
9.70
9.32
8.96
8.61
8.19
7.68
7.05
6.34
5.55
4.75
3.93
3.13
2.34
1.57
0.79
-0.03
-0.91
-1.79
-2.64
-3.45
-4.29
-5.32
-6.70
-8.52
-10.74
-13.17
-15.58
-17.65
-19.15
-19.87
-19.68
-18.59
-16.70
-14.23
-11.44
-8.56
-5.78
-3.20
-0.88
1.16
2.90
4.35
5.55
6.56
7.45
8.27
9.05
9.76
10.35
10.78
11.04
11.17
11.25
11.34
11.47
11.57
11.49
11.11
10.34
9.19
7.74
6.11
4.43
2.77
1.24
-0.16
-1.44
-2.72
-4.18
-5.99
-8.21
-10.77
-13.46
-16.04
-18.32
-20.28
-22.02
-23.70
-25.44
-27.19
-28.75
-29.80
-29.98
-28.99
-26.73
-23.23
-18.78
-13.72
-8.50
-3.49
0.97
4.71
7.67
9.92
11.57
12.73
13.48
13.85
13.88
13.68
13.37
13.12
13.04
13.18
13.46
13.83
14.22
14.59
14.88
15.01
14.83
14.29
13.40
12.27
11.10
9.97
8.88
7.77
6.51
5.07
3.55
2.08
0.72
-0.53
-1.80
-3.28
-5.06
-7.09
-9.20
-11.15
-12.70
-13.70
-14.15
-14.11
-13.63
-12.73
-11.37
-9.49
-7.15
-4.45
-1.64
1.09
3.61
5.89
7.93
9.72
11.22
12.34
13.00
13.18
12.98
12.56
12.13
11.91
12.01
12.43
13.06
13.69
14.10
14.20
14.04
13.77
13.56
13.44
13.34
13.04
12.37
11.22
9.65
7.78
5.73
3.50
1.08
-1.58
-4.43
-7.33
-10.14
-12.72
-15.07
-17.23
-19.22
-20.95
-22.11
-22.38
-21.44
-19.23
-15.96
-12.06
-8.07
-4.42
-1.38
1.03
2.90
4.38
5.59
6.61
7.47
8.21
8.92
9.69
10.56
11.50
12.38
13.02
13.25
12.97
12.25
11.27
10.25
9.39
8.76
8.28
7.76
7.00
5.90
4.49
2.87
1.18
-0.47
-2.08
-3.67
-5.30
-7.05
-8.94
-11.03
-13.34
-15.82
-18.35
-20.75
-22.74
-24.10
-24.63
-24.24
-22.89
-20.64
-17.66
-14.20
-10.57
-7.07
-3.89
-1.10
1.38
3.62
5.68
7.54
9.12
10.38
11.23
11.71
11.87
11.82
11.64
11.42
11.21
11.00
10.77
10.47
10.08
9.61
9.08
8.51
7.85
7.05
6.02
4.71
3.20
1.62
0.13
-1.13
-2.15
-2.99
-3.78
-4.65
-5.67
-6.95
-8.52
-10.43
-12.70
-15.26
-17.85
-20.09
-21.56
-21.89
-20.95
-18.85
-15.89
-12.47
-8.98
-5.68
-2.77
-0.33
1.64
3.16
4.33
5.27
6.14
7.07
8.15
9.41
10.75
12.04
13.11
13.80
14.07
13.97
13.66
13.31
13.06
12.93
12.84
12.64
12.21
11.51
10.58
9.51
8.42
7.37
6.37
5.43
4.51
3.61
2.69
1.68
0.53
-0.88
-2.60
-4.69
-7.13
-9.84
-12.70
-15.50
-17.97
-19.80
-20.68
-20.44
-19.06
-16.69
-13.67
-10.36
-7.13
-4.22
-1.76
0.22
1.77
2.96
3.90
4.68
5.39
6.06
6.71
7.31
7.80
8.22
8.58
8.96
9.43
9.95
10.41
10.66
10.53
9.96
8.99
7.79
6.51
5.31
4.24
3.25
2.29
1.30
0.21
-0.98
-2.25
-3.57
-4.92
-6.28
-7.66
-9.07
-10.52
-11.99
-13.48
-14.95
-16.36
-17.60
-18.54
-18.96
-18.62
-17.36
-15.17
-12.26
-8.97
-5.71
-2.75
-0.23
1.91
3.81
5.60
7.32
8.95
10.38
11.49
12.24
12.64
12.81
12.91
13.04
13.23
13.44
13.62
13.73
13.81
13.83
13.72
13.33
12.51
11.16
9.35
7.27
5.19
3.35
1.88
0.74
-0.24
-1.27
-2.58
-4.27
-6.31
-8.57
-10.84
-12.88
-14.52
-15.58
-15.95
-15.57
-14.44
-12.67
-10.49
-8.14
-5.80
-3.55
-1.34
0.94
3.34
5.79
8.09
10.04
11.43
12.22
12.48
12.44
12.28
12.12
11.99
11.81
11.46
10.86
9.97
8.86
7.60
6.25
4.86
3.47
2.08
0.76
-0.47
-1.59
-2.61
-3.59
-4.57
-5.57
-6.65
-7.86
-9.27
-10.90
-12.72
-14.57
-16.24
-17.51
-18.21
-18.26
-17.62
-16.25
-14.13
-11.22
-7.61
-3.53
0.73
4.82
8.46
11.55
14.16
16.45
18.65
20.97
23.48
26.20
29.03
31.84
34.57
37.22
39.79
42.29
44.65
46.83
48.89
51.06
53.72
57.18
61.39
65.76
69.28
70.80
69.53
65.32
58.66
50.33
40.99
30.93
20.10
8.42
-3.98
-16.65
-29.09
-40.97
-52.27
-63.11
-73.51
-83.15
-91.48
-97.98
-102.53
-105.37
-106.91
-107.30
-106.27
-103.20
-97.49
-88.94
-77.90
-65.17
-51.76
-38.64
-26.59
-16.25
-8.05
-2.15
1.61
3.81
5.27
6.80
9.05
12.25
16.30
20.82
25.33
29.32
32.40
34.37
35.17
35.00
34.12
32.84
31.42
29.99
28.62
27.30
25.96
24.44
22.53
20.07
17.04
13.57
9.94
6.47
3.37
0.71
-1.51
-3.29
-4.51
-4.96
-4.48
-3.10
-1.01
1.43
3.85
6.02
7.83
9.31
10.49
11.44
12.19
12.86
13.52
14.27
15.11
15.96
16.65
16.98
16.82
16.18
15.18
14.06
13.03
12.21
11.59
11.06
10.48
9.77
8.94
8.04
7.12
6.13
5.02
3.72
2.26
0.74
-0.70
-1.99
-3.17
-4.39
-5.81
-7.55
-9.60
-11.86
-14.25
-16.72
-19.27
-21.91
-24.53
-26.85
-28.51
-29.11
-28.45
-26.56
-23.74
-20.43
-17.08
-13.98
-11.20
-8.66
-6.22
-3.80
-1.41
0.83
2.83
4.48
5.80
6.83
7.56
8.05
8.33
8.53
8.85
9.53
10.66
12.11
13.55
14.53
14.70
13.98
12.55
10.72
8.81
6.96
5.22
3.57
2.08
0.87
0.10
-0.16
0.03
0.51
1.00
1.24
1.01
0.18
-1.21
-3.03
-5.04
-6.92
-8.38
-9.22
-9.32
-8.68
-7.38
-5.51
-3.24
-0.79
1.62
3.82
5.74
7.51
9.36
11.55
14.16
17.04
19.73
21.67
22.39
21.75
20.04
17.84
15.81
14.39
13.64
13.28
12.87
12.09
10.95
9.67
8.57
7.76
7.14
6.35
5.04
3.04
0.48
-2.24
-4.64
-6.42
-7.57
-8.37
-9.24
-10.50
-12.26
-14.34
-16.43
-18.23
-19.58
-20.45
-20.89
-20.83
-20.17
-18.75
-16.56
-13.77
-10.67
-7.58
-4.68
-2.04
0.34
2.40
4.00
5.06
5.58
5.75
5.88
6.16
6.61
6.99
6.99
6.41
5.25
3.76
2.24
0.94
-0.07
-0.85
-1.47
-2.02
-2.56
-3.19
-4.03
-5.23
-6.79
-8.56
-10.30
-11.77
-12.90
-13.82
-14.77
-15.90
-17.27
-18.75
-20.26
-21.79
-23.45
-25.34
-27.35
-29.10
-29.98
-29.38
-27.02
-23.06
-18.01
-12.58
-7.33
-2.58
1.60
5.27
8.50
11.37
13.92
16.19
18.24
20.06
21.60
22.76
23.44
23.64
23.48
23.20
23.02
23.06
23.29
23.55
23.62
23.30
22.53
21.32
19.76
17.93
15.87
13.58
11.10
8.47
5.79
3.23
0.85
-1.33
-3.43
-5.60
-8.00
-10.68
-13.65
-16.80
-20.00
-23.06
-25.70
-27.60
-28.40
-27.82
-25.82
-22.60
-18.62
-14.46
-10.62
-7.47
-5.07
-3.32
-2.04
-1.09
-0.40
0.02
0.15
0.03
-0.21
-0.43
-0.53
-0.49
-0.37
-0.29
-0.31
-0.50
-0.90
-1.51
-2.32
-3.33
-4.51
-5.82
-7.26
-8.83
-10.50
-12.15
-13.59
-14.59
-15.07
-15.12
-15.03
-15.10
-15.51
-16.12
-16.63
-16.72
-16.23
-15.22
-13.83
-12.14
-10.08
-7.51
-4.41
-0.99
2.32
5.09
7.09
8.37
9.22
9.94
10.68
11.35
11.73
11.64
11.11
10.37
9.70
9.35
9.36
9.61
9.91
10.10
10.06
9.74
9.02
7.75
5.77
3.03
-0.22
-3.51
-6.25
-7.98
-8.63
-8.54
-8.34
-8.58
-9.50
-10.93
-12.40
-13.42
-13.69
-13.21
-12.12
-10.56
-8.58
-6.15
-3.29
-0.21
2.73
5.08
6.58
7.25
7.42
7.54
7.99
8.88
10.05
11.21
12.09
12.60
12.78
12.80
12.79
12.79
12.76
12.63
12.35
11.87
11.16
10.16
8.88
7.28
5.37
3.11
0.49
-2.48
-5.72
-9.08
-12.40
-15.49
-18.22
-20.45
-22.05
-22.86
-22.80
-21.86
-20.14
-17.84
-15.20
-12.45
-9.81
-7.47
-5.57
-4.21
-3.36
-2.90
-2.62
-2.31
-1.88
-1.32
-0.74
-0.29
-0.09
-0.22
-0.68
-1.44
-2.41
-3.47
-4.51
-5.37
-5.96
-6.22
-6.24
-6.17
-6.26
-6.68
-7.45
-8.41
-9.26
-9.72
-9.70
-9.28
-8.74
-8.39
-8.45
-8.94
-9.65
-10.21
-10.30
-9.67
-8.26
-6.22
-3.80
-1.30
1.01
2.98
4.54
5.69
6.46
6.88
6.96
6.73
6.25
5.66
5.09
4.66
4.43
4.36
4.40
4.47
4.55
4.70
4.92
5.17
5.32
5.17
4.58
3.54
2.16
0.67
-0.69
-1.76
-2.52
-3.11
-3.75
-4.70
-6.17
-8.24
-10.78
-13.55
-16.23
-18.50
-20.09
-20.79
-20.45
-18.96
-16.36
-12.85
-8.85
-4.90
-1.50
1.08
2.87
4.11
5.07
5.96
6.77
7.41
7.85
8.12
8.40
8.83
9.45
10.13
10.66
10.81
10.50
9.83
8.96
8.07
7.28
6.51
5.63
4.51
3.10
1.49
-0.16
-1.66
-2.91
-3.89
-4.61
-5.18
-5.71
-6.29
-7.02
-7.87
-8.73
-9.42
-9.73
-9.56
-8.87
-7.68
-5.99
-3.82
-1.21
1.61
4.29
6.36
7.54
7.80
7.46
6.93
6.58
6.50
6.57
6.59
6.47
6.31
6.25
6.40
6.68
6.83
6.63
5.97
4.99
3.98
3.17
2.68
2.37
2.03
1.45
0.59
-0.39
-1.27
-1.85
-2.13
-2.26
-2.48
-3.03
-3.99
-5.34
-7.02
-8.95
-11.08
-13.33
-15.50
-17.32
-18.42
-18.53
-17.52
-15.53
-12.91
-10.09
-7.42
-5.05
-2.96
-1.05
0.73
2.32
3.60
4.47
4.94
5.10
5.16
5.29
5.57
6.02
6.62
7.33
8.09
8.81
9.36
9.63
9.53
9.07
8.30
7.33
6.21
4.96
3.56
2.02
0.41
-1.17
-2.61
-3.87
-4.99
-6.09
-7.25
-8.46
-9.62
-10.59
-11.32
-11.88
-12.43
-13.15
-14.06
-14.97
-15.51
-15.26
-13.89
-11.35
-7.89
-4.00
-0.22
3.04
5.59
7.46
8.85
9.94
10.86
11.59
12.08
12.32
12.37
12.34
12.33
12.38
12.43
12.45
12.39
12.31
12.26
12.27
12.28
12.14
11.72
10.96
9.92
8.76
7.67
6.72
5.86
4.93
3.76
2.24
0.39
-1.70
-3.90
-6.09
-8.21
-10.26
-12.21
-14.11
-15.99
-17.87
-19.72
-21.44
-22.89
-23.86
-24.16
-23.64
-22.24
-20.01
-17.15
-13.93
-10.63
-7.48
-4.58
-1.92
0.59
2.98
5.26
7.27
8.84
9.82
10.14
9.90
9.30
8.63
8.21
8.25
8.80
9.70
10.65
11.26
11.27
10.59
9.28
7.57
5.75
4.06
2.67
1.71
1.20
1.13
1.36
1.71
1.96
1.94
1.58
0.88
-0.07
-1.21
-2.46
-3.76
-5.09
-6.39
-7.66
-8.87
-9.96
-10.81
-11.22
-10.97
-9.90
-7.97
-5.31
-2.22
0.97
3.91
6.34
8.15
9.30
9.84
9.86
9.51
8.93
8.32
7.81
7.51
7.45
7.65
8.07
8.72
9.52
10.38
11.17
11.71
11.86
11.55
10.88
9.98
9.05
8.26
7.69
7.36
7.23
7.19
7.08
6.69
5.78
4.26
2.17
-0.23
-2.57
-4.57
-6.12
-7.40
-8.69
-10.22
-12.03
-13.86
-15.36
-16.13
-15.95
-14.79
-12.72
-9.89
-6.43
-2.55
1.49
5.38
8.81
11.55
13.56
14.89
15.70
16.14
16.34
16.37
16.30
16.20
16.09
15.97
15.77
15.46
15.06
14.64
14.31
14.19
14.27
14.49
14.71
14.77
14.51
13.88
12.90
11.62
10.15
8.59
7.06
5.63
4.39
3.32
2.41
1.53
0.50
-0.88
-2.79
-5.30
-8.29
-11.45
-14.31
-16.37
-17.23
-16.74
-15.03
-12.51
-9.61
-6.75
-4.15
-1.87
0.08
1.74
3.10
4.11
4.73
4.99
4.98
4.89
4.89
5.10
5.58
6.27
7.10
7.98
8.86
9.74
10.57
11.28
11.69
11.63
11.01
9.84
8.25
6.39
4.45
2.52
0.70
-0.96
-2.36
-3.55
-4.58
-5.64
-6.92
-8.59
-10.69
-13.08
-15.54
-17.75
-19.46
-20.48
-20.73
-20.21
-18.95
-17.01
-14.49
-11.55
-8.41
-5.38
-2.73
-0.62
0.91
1.97
2.66
3.12
3.38
3.49
3.55
3.71
4.12
4.87
5.93
7.10
8.09
8.63
8.57
7.93
6.88
5.68
4.54
3.59
2.84
2.25
1.70
1.15
0.56
-0.08
-0.81
-1.69
-2.75
-3.97
-5.26
-6.58
-7.93
-9.43
-11.17
-13.18
-15.27
-17.04
-18.02
-17.84
-16.36
-13.76
-10.45
-6.90
-3.53
-0.59
1.92
4.05
5.93
7.58
8.99
10.09
10.84
11.33
11.66
11.92
12.13
12.26
12.22
12.02
11.71
11.42
11.27
11.30
11.46
11.61
11.59
11.19
10.23
8.60
6.36
3.73
1.07
-1.20
-2.83
-3.80
-4.30
-4.64
-5.10
-5.83
-6.84
-8.08
-9.51
-11.13
-12.94
-14.84
-16.64
-18.08
-18.92
-18.99
-18.24
-16.75
-14.63
-12.06
-9.22
-6.30
-3.45
-0.78
1.68
3.94
6.00
7.76
9.08
9.82
9.91
9.50
8.92
8.58
8.78
9.58
10.80
12.08
13.09
13.68
13.90
13.89
13.81
13.66
13.35
12.75
11.80
10.57
9.19
7.83
6.54
5.29
4.03
2.77
1.56
0.54
-0.27
-0.95
-1.77
-3.03
-4.93
-7.48
-10.41
-13.35
-15.82
-17.49
-18.19
-17.94
-16.85
-15.09
-12.82
-10.23
-7.52
-4.93
-2.67
-0.89
0.39
1.24
1.82
2.30
2.88
3.67
4.76
6.18
7.85
9.67
11.47
13.15
14.57
15.66
16.35
16.57
16.24
15.40
14.17
12.76
11.43
10.34
9.51
8.77
7.95
6.90
5.61
4.14
2.60
1.05
-0.54
-2.22
-4.04
-6.02
-8.17
-10.48
-12.98
-15.63
-18.31
-20.77
-22.65
-23.55
-23.24
-21.63
-18.86
-15.22
-11.08
-6.79
-2.66
1.08
4.28
6.87
8.88
10.42
11.71
12.92
14.21
15.60
17.01
18.34
19.46
20.25
20.62
20.50
19.87
18.74
17.25
15.61
14.07
12.80
11.87
11.15
10.44
9.51
8.21
6.53
4.56
2.44
0.33
-1.67
-3.51
-5.18
-6.70
-8.14
-9.56
-11.05
-12.78
-14.90
-17.51
-20.54
-23.71
-26.55
-28.54
-29.26
-28.53
-26.50
-23.53
-20.02
-16.32
-12.58
-8.82
-5.07
-1.41
1.94
4.75
6.88
8.36
9.41
10.33
11.32
12.43
13.57
14.55
15.26
15.76
16.18
16.71
17.43
18.28
19.05
19.48
19.38
18.71
17.55
16.07
14.41
12.67
10.87
8.98
6.96
4.82
2.61
0.41
-1.66
-3.52
-5.11
-6.48
-7.75
-9.07
-10.60
-12.40
-14.43
-16.56
-18.61
-20.38
-21.71
-22.43
-22.41
-21.60
-20.01
-17.80
-15.19
-12.37
-9.49
-6.63
-3.85
-1.25
1.04
2.85
4.09
4.76
4.98
4.92
4.81
4.86
5.23
6.02
7.20
8.65
10.16
11.51
12.55
13.19
13.40
13.17
12.52
11.49
10.21
8.87
7.67
6.70
5.95
5.26
4.44
3.32
1.89
0.28
-1.31
-2.67
-3.70
-4.42
-4.92
-5.37
-6.00
-7.01
-8.57
-10.75
-13.44
-16.32
-18.94
-20.79
-21.46
-20.77
-18.79
-15.80
-12.21
-8.46
-4.88
-1.71
0.96
3.12
4.85
6.24
7.38
8.34
9.15
9.81
10.31
10.62
10.75
10.78
10.79
10.89
11.13
11.46
11.75
11.87
11.69
11.16
10.28
9.11
7.79
6.45
5.21
4.19
3.41
2.80
2.27
1.68
0.90
-0.15
-1.51
-3.12
-4.91
-6.75
-8.49
-10.08
-11.55
-13.03
-14.66
-16.53
-18.55
-20.46
-21.92
-22.65
-22.50
-21.47
-19.71
-17.34
-14.51
-11.32
-7.91
-4.50
-1.32
1.38
3.51
5.08
6.25
7.18
7.96
8.58
9.01
9.21
9.16
8.93
8.60
8.22
7.89
7.65
7.56
7.65
7.88
8.16
8.35
8.36
8.13
7.68
7.09
6.40
5.65
4.79
3.77
2.56
1.17
-0.31
-1.76
-3.04
-4.06
-4.84
-5.48
-6.19
-7.16
-8.49
-10.15
-11.98
-13.69
-15.01
-15.67
-15.52
-14.46
-12.54
-9.88
-6.74
-3.42
-0.25
2.51
4.71
6.33
7.49
8.37
9.17
10.00
10.89
11.77
12.54
13.08
13.36
13.41
13.28
13.03
12.65
12.15
11.51
10.77
9.96
9.10
8.18
7.13
5.88
4.44
2.85
1.21
-0.40
-1.92
-3.33
-4.58
-5.61
-6.37
-6.91
-7.35
-7.86
-8.63
-9.76
-11.28
-13.16
-15.34
-17.68
-19.97
-21.89
-23.08
-23.26
-22.36
-20.51
-18.03
-15.25
-12.43
-9.69
-7.05
-4.54
-2.22
-0.14
1.66
3.23
4.64
5.90
6.99
7.78
8.18
8.18
7.94
7.70
7.71
8.06
8.72
9.43
9.93
10.03
9.63
8.85
7.81
6.70
5.61
4.55
3.53
2.53
1.54
0.57
-0.41
-1.49
-2.73
-4.16
-5.72
-7.27
-8.71
-10.04
-11.33
-12.68
-14.09
-15.33
-16.03
-15.80
-14.42
-11.92
-8.64
-4.99
-1.42
1.78
4.46
6.57
8.15
9.21
9.80
10.00
9.93
9.76
9.67
9.78
10.12
10.61
11.05
11.18
10.90
10.20
9.26
8.31
7.55
7.01
6.56
6.03
5.24
4.14
2.80
1.32
-0.16
-1.60
-2.97
-4.21
-5.27
-6.07
-6.59
-6.90
-7.23
-7.87
-9.03
-10.77
-12.88
-15.00
-16.70
-17.67
-17.74
-16.95
-15.42
-13.28
-10.70
-7.83
-4.86
-1.99
0.57
2.71
4.38
5.62
6.49
7.03
7.29
7.29
7.15
7.02
7.08
7.45
8.12
8.94
9.70
10.19
10.29
10.00
9.42
8.64
7.75
6.74
5.63
4.41
3.09
1.71
0.32
-1.03
-2.33
-3.64
-5.03
-6.62
-8.45
-10.45
-12.44
-14.21
-15.65
-16.78
-17.76
-18.74
-19.75
-20.64
-21.06
-20.69
-19.31
-16.93
-13.78
-10.20
-6.55
-3.07
0.09
2.86
5.19
7.09
8.52
9.51
10.15
10.55
10.87
11.25
11.75
12.30
12.76
12.97
12.87
12.53
12.12
11.84
11.78
11.88
11.93
11.68
10.95
9.72
8.05
6.03
3.71
1.12
-1.66
-4.45
-7.01
-9.08
-10.55
-11.57
-12.47
-13.66
-15.45
-17.95
-20.92
-23.96
-26.53
-28.13
-28.36
-27.08
-24.36
-20.47
-15.82
-10.87
-5.98
-1.39
2.81
6.59
9.95
12.90
15.43
17.52
19.20
20.55
21.60
22.36
22.81
22.93
22.77
22.44
22.02
21.59
21.09
20.35
19.23
17.65
15.71
13.61
11.58
9.75
8.16
6.68
5.13
3.34
1.22
-1.20
-3.84
-6.62
-9.44
-12.23
-14.94
-17.51
-19.93
-22.22
-24.49
-26.90
-29.52
-32.30
-34.98
-37.16
-38.40
-38.39
-37.03
-34.48
-31.15
-27.51
-24.02
-20.99
-18.53
-16.59
-14.90
-13.19
-11.19
-8.77
-5.99
-3.03
-0.15
2.39
4.44
5.96
7.01
7.75
8.41
9.20
10.32
11.86
13.75
15.80
17.67
19.04
19.69
19.58
18.84
17.72
16.44
15.18
13.96
12.77
11.58
10.41
9.31
8.24
7.15
5.87
4.21
2.09
-0.44
-3.16
-5.77
-7.98
-9.56
-10.38
-10.38
-9.58
-8.09
-6.03
-3.55
-0.81
2.03
4.87
7.60
10.14
12.39
14.27
15.72
16.69
17.20
17.30
17.09
16.77
16.56
16.65
17.15
17.94
18.73
19.13
18.82
17.68
15.88
13.78
11.77
10.14
8.98
8.21
7.67
7.21
6.70
6.03
5.09
3.84
2.27
0.48
-1.32
-2.92
-4.21
-5.19
-6.04
-6.94
-8.07
-9.51
-11.21
-13.08
-14.97
-16.71
-18.12
-19.01
-19.17
-18.45
-16.87
-14.62
-11.98
-9.22
-6.49
-3.74
-0.88
2.18
5.35
8.49
11.38
13.83
15.78
17.31
18.58
19.85
21.34
23.14
25.17
27.18
28.86
29.99
30.48
30.39
29.85
28.85
27.34
25.24
22.59
19.66
16.87
14.55
12.85
11.64
10.66
9.64
8.48
7.22
5.98
4.85
3.87
2.98
2.15
1.30
0.41
-0.58
-1.68
-2.88
-4.08
-5.09
-5.66
-5.59
-4.84
-3.57
-2.14
-1.04
-0.68
-1.32
-2.96
-5.40
-8.36
-11.53
-14.65
-17.57
-20.17
-22.38
-24.08
-25.14
-25.40
-24.75
-23.18
-20.86
-18.14
-15.44
-13.16
-11.53
-10.59
-10.21
-10.17
-10.26
-10.25
-9.97
-9.27
-8.11
-6.57
-4.88
-3.31
-2.09
-1.33
-0.96
-0.87
-0.96
-1.20
-1.63
-2.26
-3.04
-3.91
-4.81
-5.69
-6.56
-7.35
-7.91
-8.02
-7.50
-6.27
-4.44
-2.25
0.01
2.11
3.93
5.41
6.56
7.36
7.82
7.97
7.92
7.85
7.92
8.21
8.71
9.24
9.64
9.81
9.78
9.72
9.83
10.22
10.82
11.44
11.83
11.85
11.43
10.62
9.51
8.15
6.60
4.94
3.27
1.69
0.22
-1.22
-2.76
-4.52
-6.50
-8.57
-10.58
-12.41
-14.10
-15.78
-17.57
-19.46
-21.28
-22.78
-23.69
-23.86
-23.24
-21.87
-19.79
-17.10
-13.92
-10.46
-7.00
-3.86
-1.32
0.50
1.64
2.31
2.78
3.34
4.15
5.21
6.38
7.46
8.24
8.65
8.76
8.67
8.57
8.51
8.52
8.52
8.48
8.33
8.02
7.51
6.75
5.69
4.35
2.81
1.17
-0.44
-1.98
-3.47
-4.98
-6.59
-8.31
-10.14
-12.06
-14.05
-16.10
-18.19
-20.17
-21.82
-22.83
-22.91
-21.91
-19.88
-17.05
-13.79
-10.50
-7.48
-4.81
-2.49
-0.36
1.69
3.77
5.91
8.11
10.31
12.40
14.24
15.65
16.50
16.77
16.56
16.05
15.44
14.90
14.45
14.02
13.54
12.91
12.12
11.24
10.40
9.72
9.27
9.00
8.76
8.36
7.64
6.52
5.04
3.23
1.17
-1.14
-3.66
-6.33
-9.03
-11.71
-14.38
-17.18
-20.27
-23.65
-27.07
-30.01
-31.83
-32.06
-30.51
-27.36
-23.05
-18.13
-13.10
-8.32
-4.03
-0.37
2.59
4.89
6.63
7.93
8.93
9.73
10.39
10.95
11.40
11.70
11.79
11.66
11.33
10.91
10.53
10.28
10.15
10.00
9.61
8.82
7.58
6.01
4.37
2.90
1.75
0.93
0.29
-0.37
-1.21
-2.30
-3.67
-5.23
-6.99
-8.96
-11.22
-13.86
-16.90
-20.25
-23.69
-26.91
-29.55
-31.28
-31.86
-31.20
-29.29
-26.15
-21.86
-16.52
-10.40
-3.89
2.43
7.99
12.37
15.43
17.34
18.49
19.29
20.04
20.87
21.74
22.54
23.22
23.78
24.29
24.77
25.19
25.45
25.44
25.08
24.40
23.49
22.46
21.36
20.22
18.97
17.54
15.89
13.99
11.88
9.60
7.15
4.52
1.70
-1.35
-4.62
-8.10
-11.80
-15.68
-19.67
-23.65
-27.43
-30.77
-33.49
-35.44
-36.57
-36.89
-36.39
-35.07
-32.98
-30.36
-27.68
-25.65
-24.96
-26.02
-28.71
-32.42
-36.26
-39.48
-41.80
-43.59
-45.63
-48.87
-54.11
-61.71
-71.59
-82.95
-94.31
-103.63
-108.76
-108.37
-102.87
-94.86
-88.72
-89.24
-99.80
-120.97
-150.21
-182.71
-213.15
-237.31
-253.13
-260.69
-261.53
-257.73
-251.23
-243.61
-236.06
-229.58
-224.93
-222.48
-222.01
-222.62
-222.91
-221.30
-216.64
-208.54
-197.54
-184.93
-172.24
-160.71
-150.89
-142.53
-134.89
-127.24
-119.28
-111.50
-104.98
-100.95
-100.19
-102.46
-106.35
-109.52
-109.34
-103.72
-91.57
-73.03
-48.99
-20.57
11.52
47.23
87.00
131.45
181.01
235.73
294.91
356.67
417.46
472.03
514.22
538.58
542.29
526.36
495.47
456.36
415.56
377.42
343.61
313.84
287.27
263.63
243.40
227.14
214.71
204.73
195.02
183.35
168.30
149.72
128.72
107.00
86.13
66.95
49.39
32.71
16.10
-0.78
-17.52
-33.07
-46.24
-56.31
-63.30
-68.01
-71.53
-74.73
-77.87
-80.55
-81.94
-81.21
-77.97
-72.49
-65.81
-59.52
-55.43
-55.10
-59.40
-68.33
-81.11
-96.64
-113.94
-132.35
-151.36
-170.08
-186.98
-199.86
-206.53
-205.57
-196.90
-181.79
-162.49
-141.44
-120.60
-101.10
-83.19
-66.60
-50.88
-35.69
-20.98
-6.84
6.54
19.05
30.76
41.84
52.42
62.64
72.53
82.14
91.58
100.96
110.23
119.01
126.70
132.68
136.58
138.39
138.36
136.85
134.13
130.35
125.66
120.23
114.39
108.54
103.06
98.24
94.05
90.09
85.57
79.47
70.96
59.80
46.74
33.47
22.12
14.58
11.93
14.12
20.32
29.38
40.30
52.41
65.35
78.87
92.76
106.88
121.08
135.22
148.93
161.59
172.35
180.40
185.23
186.74
185.21
181.05
174.62
166.17
155.95
144.35
132.02
119.77
108.43
98.59
90.40
83.59
77.56
71.64
65.38
58.65
51.63
44.50
37.28
29.74
21.56
12.63
3.23
-6.05
-14.60
-22.19
-29.13
-36.16
-44.11
-53.53
-64.31
-75.69
-86.39
-94.97
-100.25
-101.62
-99.17
-93.72
-86.41
-78.35
-70.24
-62.26
-54.17
-45.65
-36.62
-27.43
-18.81
-11.59
-6.47
-3.79
-3.53
-5.35
-8.81
-13.37
-18.38
-23.10
-26.63
-28.03
-26.54
-21.80
-14.00
-3.91
7.31
18.29
27.79
34.97
39.52
41.66
42.06
41.48
40.52
39.41
37.85
35.20
30.77
24.14
15.52
5.79
-3.59
-11.06
-15.49
-16.76
-15.99
-15.28
-17.16
-23.76
-35.98
-53.08
-72.75
-91.66
-106.40
-114.41
-114.60
-107.55
-95.05
-79.43
-62.88
-46.95
-32.55
-20.00
-9.37
-0.64
6.31
11.65
15.66
18.61
20.71
22.09
22.85
23.15
23.19
23.20
23.33
23.58
23.75
23.61
22.98
21.79
20.06
17.82
14.95
11.19
6.27
0.05
-7.33
-15.47
-23.86
-32.06
-39.88
-47.35
-54.63
-61.85
-69.08
-76.35
-83.73
-91.34
-99.21
-107.12
-114.47
-120.18
-122.79
-120.62
-112.02
-95.63
-70.73
-37.48
2.91
48.08
94.50
137.62
172.34
193.80
198.62
186.06
158.76
122.67
85.87
56.65
41.55
43.85
63.16
95.94
136.53
178.47
215.60
243.03
257.82
259.31
248.93
229.57
204.63
177.07
148.91
121.24
94.52
69.07
45.36
23.97
5.38
-10.27
-23.28
-34.24
-43.82
-52.61
-60.95
-69.02
-76.82
-84.33
-91.53
-98.40
-104.88
-110.84
-116.15
-120.68
-124.38
-127.29
-129.39
-130.51
-130.14
-127.53
-121.86
-112.59
-99.76
-84.13
-67.05
-50.20
-35.08
-22.73
-13.48
-7.09
-2.93
-0.33
1.26
2.20
2.74
3.02
3.20
3.40
3.66
3.95
4.17
4.25
4.15
3.90
3.46
2.72
1.52
-0.26
-2.65
-5.52
-8.67
-11.92
-15.18
-18.36
-21.31
-23.78
-25.41
-25.98
-25.58
-24.64
-23.95
-24.35
-26.52
-30.73
-36.78
-44.00
-51.33
-57.43
-60.93
-60.63
-55.85
-46.72
-34.10
-19.39
-4.05
10.76
24.41
36.63
47.29
56.24
63.23
68.15
71.25
73.14
74.68
76.63
79.39
82.96
87.08
91.42
95.75
99.99
104.08
107.95
111.53
114.80
117.86
120.86
123.89
126.82
129.22
130.54
130.29
128.29
124.80
120.37
115.69
111.26
107.28
103.59
99.72
95.12
89.40
82.44
74.57
66.45
58.84
52.31
47.03
42.71
38.79
34.71
30.17
25.06
19.36
12.88
5.21
-4.19
-15.58
-28.71
-42.70
-56.25
-68.01
-76.98
-82.73
-85.41
-85.47
-83.41
-79.57
-74.13
-67.18
-58.93
-49.77
-40.27
-31.16
-23.19
-17.04
-13.26
-12.17
-13.77
-17.71
-23.38
-30.23
-38.09
-47.48
-59.64
-76.19
-98.46
-126.91
-160.68
-197.61
-234.60
-268.25
-295.57
-314.54
-324.36
-325.25
-318.03
-303.56
-282.19
-253.72
-217.64
-173.90
-123.65
-69.81
-16.86
29.85
65.59
87.74
96.83
96.71
93.32
92.68
98.83
112.37
130.54
148.44
160.96
164.49
157.80
141.81
118.82
91.52
62.41
33.78
7.76
-13.64
-28.88
-37.09
-38.51
-34.34
-26.42
-16.73
-6.84
2.31
10.51
18.12
25.73
33.68
41.76
49.11
54.54
57.21
57.18
55.58
54.18
54.45
56.83
60.49
63.91
65.68
65.21
62.79
59.15
54.92
50.29
45.22
39.81
34.45
29.67
25.81
22.66
19.57
15.81
10.95
5.10
-1.25
-7.52
-13.40
-18.89
-24.21
-29.58
-35.06
-40.65
-46.34
-52.17
-58.12
-63.84
-68.45
-70.75
-69.52
-64.06
-54.56
-42.03
-28.01
-14.03
-1.13
10.26
20.17
28.86
36.44
42.78
47.48
49.98
49.76
46.52
40.32
31.69
21.52
10.93
1.00
-7.49
-14.17
-19.13
-22.78
-25.66
-28.36
-31.29
-34.68
-38.55
-42.70
-46.81
-50.63
-54.00
-56.98
-59.82
-62.91
-66.62
-71.13
-76.22
-81.16
-84.75
-85.64
-82.79
-75.92
-65.65
-53.40
-40.87
-29.51
-20.19
-13.14
-8.15
-4.89
-3.08
-2.46
-2.78
-3.62
-4.50
-4.90
-4.48
-3.14
-1.06
1.40
3.83
5.94
7.53
8.55
8.92
8.52
7.21
4.93
1.78
-1.92
-5.75
-9.35
-12.59
-15.69
-19.10
-23.38
-28.92
-35.78
-43.49
-51.03
-57.00
-59.87
-58.48
-52.35
-41.91
-28.38
-13.46
1.12
14.05
24.56
32.44
37.85
41.03
42.25
41.76
39.85
36.94
33.61
30.46
27.94
26.16
24.88
23.62
21.93
19.57
16.69
13.65
10.85
8.47
6.36
4.11
1.25
-2.47
-7.00
-11.92
-16.71
-20.90
-24.29
-27.01
-29.44
-32.07
-35.35
-39.63
-45.00
-51.30
-57.98
-64.02
-68.06
-68.70
-64.92
-56.52
-44.23
-29.56
-14.35
-0.23
11.79
21.30
28.42
33.46
36.66
38.20
38.25
37.09
35.20
33.14
31.48
30.48
30.08
29.89
29.34
27.99
25.66
22.51
19.00
15.56
12.45
9.56
6.51
2.79
-1.89
-7.42
-13.35
-19.00
-23.82
-27.61
-30.64
-33.51
-36.95
-41.54
-47.55
-54.80
-62.59
-69.78
-74.89
-76.44
-73.34
-65.25
-52.84
-37.61
-21.44
-6.08
7.33
18.32
26.94
33.40
37.85
40.32
40.94
40.04
38.28
36.44
35.16
34.67
34.75
34.80
34.21
32.60
30.02
26.84
23.54
20.50
17.71
14.83
11.35
6.81
1.07
-5.54
-12.40
-18.75
-24.05
-28.15
-31.39
-34.42
-38.04
-42.93
-49.36
-57.14
-65.43
-72.84
-77.65
-78.20
-73.46
-63.41
-49.14
-32.56
-15.81
-0.64
11.97
21.85
29.37
34.94
38.84
41.16
41.91
41.28
39.74
37.93
36.46
35.67
35.50
35.56
35.34
34.46
32.83
30.70
28.40
26.22
24.16
21.99
19.33
15.85
11.39
6.00
-0.03
-6.30
-12.40
-18.05
-23.16
-27.91
-32.72
-38.10
-44.51
-52.17
-60.82
-69.65
-77.27
-82.00
-82.25
-77.03
-66.45
-51.69
-34.77
-17.94
-2.98
9.18
18.47
25.38
30.53
34.34
36.98
38.45
38.81
38.31
37.39
36.57
36.27
36.63
37.46
38.31
38.64
38.08
36.50
34.07
31.12
27.93
24.60
21.00
16.86
11.97
6.31
0.09
-6.30
-12.45
-18.07
-23.08
-27.55
-31.69
-35.75
-40.01
-44.79
-50.40
-57.03
-64.48
-71.99
-78.13
-81.10
-79.22
-71.62
-58.62
-41.70
-23.11
-5.13
10.56
23.11
32.50
39.15
43.60
46.28
47.60
47.91
47.67
47.28
47.06
47.07
47.20
47.21
46.88
46.14
45.02
43.61
41.94
39.94
37.49
34.49
30.93
26.92
22.62
18.18
13.68
9.10
4.39
-0.52
-5.58
-10.64
-15.49
-19.86
-23.64
-26.86
-29.82
-32.99
-36.96
-42.20
-48.83
-56.36
-63.58
-68.75
-70.05
-66.20
-56.93
-43.18
-26.82
-10.04
5.25
17.90
27.52
34.30
38.69
41.16
42.16
42.10
41.40
40.46
39.60
38.98
38.58
38.23
37.68
36.68
35.16
33.18
30.91
28.51
26.00
23.24
19.99
16.13
11.73
7.09
2.60
-1.47
-5.07
-8.37
-11.63
-15.04
-18.60
-22.19
-25.58
-28.65
-31.42
-34.06
-36.92
-40.42
-44.95
-50.63
-56.98
-62.80
-66.33
-65.78
-60.00
-49.13
-34.63
-18.84
-4.16
7.78
16.44
22.19
25.80
27.88
28.67
28.19
26.53
24.05
21.32
18.98
17.40
16.61
16.41
16.47
16.58
16.70
16.90
17.22
17.63
17.98
18.03
17.61
16.67
15.31
13.73
12.08
10.45
8.77
6.94
4.88
2.55
0.01
-2.67
-5.43
-8.29
-11.33
-14.75
-18.82
-23.82
-29.86
-36.59
-43.07
-47.88
-49.44
-46.67
-39.48
-28.89
-16.73
-4.98
4.87
12.15
16.97
19.78
21.07
21.06
19.85
17.60
14.66
11.52
8.71
6.56
5.12
4.17
3.36
2.32
0.72
-1.57
-4.54
-8.01
-11.65
-15.13
-18.23
-20.93
-23.50
-26.44
-30.35
-35.67
-42.50
-50.51
-58.97
-67.13
-74.43
-80.78
-86.65
-92.91
-100.55
-110.31
-122.24
-135.43
-147.99
-157.50
-161.78
-159.79
-152.35
-142.20
-133.30
-129.57
-133.47
-144.98
-161.36
-177.85
-189.09
-190.79
-181.06
-160.87
-133.51
-103.39
-74.57
-49.81
-30.23
-15.68
-5.27
2.11
7.65
12.52
17.79
24.10
31.48
39.20
45.99
50.57
52.09
50.38
45.98
39.97
33.64
28.24
24.78
23.84
25.49
29.21
34.00
38.50
41.25
40.99
37.05
29.51
19.35
8.27
-1.81
-9.17
-12.87
-12.89
-9.98
-5.27
0.28
6.19
12.49
19.37
26.80
34.30
41.08
46.52
50.59
54.05
58.08
63.64
70.86
78.84
86.03
90.99
92.96
92.18
89.56
86.05
82.12
77.59
71.84
64.24
54.59
43.25
31.05
19.07
8.36
-0.15
-5.85
-8.61
-8.87
-7.77
-6.91
-8.07
-12.47
-20.31
-30.50
-40.85
-48.79
-52.22
-50.25
-43.41
-33.25
-21.69
-10.30
0.10
9.32
17.43
24.33
29.62
32.80
33.69
32.72
30.94
29.63
29.84
31.91
35.46
39.59
43.35
46.13
47.79
48.59
48.92
49.07
49.12
49.01
48.78
48.65
49.08
50.47
52.90
55.82
58.08
58.26
55.16
48.31
38.15
25.91
13.12
1.23
-8.65
-15.73
-19.38
-19.00
-14.04
-4.23
10.29
28.78
50.06
72.69
95.26
116.55
135.75
152.45
166.75
179.27
191.10
203.67
218.33
235.80
255.77
276.75
296.34
311.93
321.47
324.18
320.75
313.06
303.42
293.70
284.70
275.95
266.11
253.75
238.10
219.51
199.23
178.74
159.00
139.99
120.92
100.82
79.35
57.30
36.50
19.23
7.29
1.18
-0.41
-0.36
-2.32
-9.61
-24.32
-46.93
-76.79
-112.89
-154.60
-201.61
-253.20
-307.29
-360.08
-406.77
-443.15
-467.30
-480.32
-485.85
-488.39
-491.40
-496.02
-500.97
-503.50
-500.72
-490.82
-473.55
-450.07
-422.35
-392.43
-361.93
-331.80
-302.48
-274.31
-247.93
-224.35
-204.75
-189.82
-179.22
-171.46
-164.18
-154.95
-142.11
-125.29
-105.36
-83.81
-62.16
-41.58
-22.95
-7.19
4.64
11.49
12.99
9.98
4.63
-0.02
-1.08
3.28
13.38
28.41
47.20
69.22
95.02
126.00
163.50
207.76
257.11
307.90
355.25
394.32
421.63
435.78
437.37
428.35
411.17
388.11
361.07
331.71
301.49
271.56
242.54
214.40
186.56
158.51
130.34
102.98
77.91
56.42
39.00
25.09
13.61
3.82
-3.98
-8.35
-7.42
0.04
13.84
32.13
52.06
70.80
86.47
98.52
107.42
114.11
119.46
124.11
128.56
133.23
138.41
143.81
148.40
150.32
147.52
138.55
123.22
102.86
79.86
56.80
35.60
17.05
0.93
-13.58
-27.36
-41.01
-54.75
-68.45
-81.77
-94.26
-105.49
-115.08
-122.87
-129.01
-133.98
-138.47
-143.13
-148.14
-153.03
-156.55
-157.09
-153.22
-144.30
-130.80
-114.16
-96.35
-79.20
-63.95
-51.09
-40.56
-32.06
-25.27
-20.01
-16.12
-13.37
-11.44
-9.93
-8.53
-7.11
-5.72
-4.54
-3.74
-3.48
-3.81
-4.79
-6.54
-9.16
-12.67
-16.99
-21.79
-26.63
-31.07
-34.86
-38.05
-40.98
-44.18
-48.11
-52.95
-58.39
-63.62
-67.51
-68.90
-67.01
-61.63
-53.18
-42.51
-30.64
-18.36
-6.01
6.62
20.21
35.56
53.05
72.21
91.52
108.77
121.84
129.52
131.97
130.65
127.50
124.05
120.68
116.67
110.73
101.94
90.42
77.35
64.43
52.97
43.33
34.82
26.35
17.18
7.55
-1.40
-8.29
-12.37
-14.07
-14.91
-16.80
-21.18
-28.47
-38.04
-48.56
-58.50
-66.44
-71.23
-72.11
-68.85
-61.94
-52.65
-42.82
-34.32
-28.53
-25.87
-25.75
-26.85
-27.62
-26.78
-23.69
-18.45
-11.78
-4.72
1.81
7.25
11.54
15.04
18.23
21.42
24.64
27.69
30.33
32.40
33.80
34.40
33.90
31.92
28.19
22.74
16.02
8.70
1.42
-5.47
-11.98
-18.38
-25.04
-32.34
-40.66
-50.29
-61.29
-73.24
-85.08
-95.16
-101.76
-103.63
-100.46
-93.07
-83.07
-72.29
-62.14
-53.37
-45.98
-39.47
-33.09
-25.94
-17.08
-5.64
8.91
26.41
45.90
65.77
84.35
100.44
113.77
124.83
134.31
142.45
148.71
152.03
151.39
146.37
137.31
125.06
110.46
94.03
76.05
56.95
37.72
20.00
5.79
-3.23
-6.28
-3.75
2.92
11.74
20.75
28.39
33.76
36.54
36.89
35.27
32.31
28.61
24.60
20.47
16.15
11.42
6.13
0.35
-5.49
-10.57
-14.00
-15.15
-14.09
-11.71
-9.58
-9.30
-11.88
-17.26
-24.35
-31.66
-38.00
-43.07
-47.49
-52.45
-59.15
-68.42
-80.50
-94.95
-110.48
-124.94
-135.58
-139.71
-135.78
-124.36
-108.31
-91.98
-79.50
-73.00
-71.62
-71.81
-69.09
-60.07
-44.10
-23.44
-2.22
15.56
27.71
34.44
37.82
40.31
43.40
47.09
50.26
51.63
50.65
47.74
43.87
39.92
36.33
33.39
32.06
34.41
43.26
60.84
87.32
119.83
152.93
180.16
196.16
198.28
187.05
165.54
137.93
108.16
79.05
52.12
27.81
5.92
-13.95
-32.11
-48.56
-62.90
-74.37
-81.84
-83.72
-78.19
-63.52
-38.84
-4.74
36.55
81.72
127.16
169.81
207.29
237.54
258.41
267.65
263.65
246.35
217.81
181.80
142.67
103.82
66.87
31.66
-2.93
-38.02
-74.31
-111.99
-151.12
-191.58
-232.90
-273.84
-312.29
-345.72
-372.07
-390.64
-402.46
-409.90
-415.56
-421.13
-426.90
-432.00
-435.34
-436.34
-435.09
-431.74
-425.70
-415.33
-398.47
-373.58
-340.70
-301.93
-260.65
-220.36
-183.48
-150.89
-122.27
-96.74
-73.63
-52.67
-33.85
-17.15
-2.40
10.76
22.69
33.66
43.71
52.72
60.45
66.60
70.95
73.49
74.45
74.19
73.04
71.12
68.39
64.84
60.87
57.51
56.27
58.75
65.97
77.95
93.65
111.32
129.18
145.87
160.63
173.27
183.85
192.48
199.22
204.21
207.73
210.21
212.20
214.15
216.23
218.26
219.80
220.20
218.86
215.35
209.46
201.23
190.96
179.17
166.60
154.18
142.84
133.27
125.62
119.55
114.40
109.64
105.27
101.82
100.10
100.60
103.03
106.24
108.52
108.34
104.80
97.89
88.15
76.31
62.89
48.21
32.46
15.81
-1.65
-20.08
-39.93
-61.70
-85.35
-109.91
-133.35
-153.18
-167.39
-175.31
-177.80
-176.81
-174.37
-171.78
-169.36
-166.70
-163.32
-159.10
-154.45
-149.98
-146.13
-142.97
-140.24
-137.55
-134.50
-130.76
-126.04
-119.99
-112.15
-102.18
-89.99
-75.99
-61.21
-46.99
-34.62
-24.81
-17.40
-11.54
-6.16
-0.55
5.30
10.89
15.62
19.23
21.89
23.87
25.18
25.33
23.63
19.62
13.54
6.43
-0.36
-5.74
-9.51
-12.43
-15.89
-21.18
-28.89
-38.48
-48.58
-57.51
-64.08
-67.97
-69.75
-70.37
-70.49
-69.93
-67.60
-61.77
-50.76
-33.38
-9.38
20.59
54.96
91.48
127.26
159.12
183.97
199.37
204.17
198.79
185.14
166.08
144.67
123.43
103.89
86.59
71.25
57.19
43.69
30.26
16.88
3.97
-7.75
-17.59
-25.23
-30.88
-35.28
-39.41
-44.12
-49.83
-56.22
-62.28
-66.45
-66.93
-62.20
-51.46
-34.95
-14.02
9.20
32.36
53.46
71.30
85.56
96.57
104.99
111.46
116.41
120.06
122.50
123.88
124.41
124.43
124.27
124.19
124.26
124.43
124.46
124.04
122.77
120.21
115.92
109.65
101.30
91.03
79.14
65.92
51.43
35.49
17.85
-1.47
-21.80
-41.67
-59.10
-72.18
-79.76
-81.84
-79.54
-74.63
-68.90
-63.63
-59.41
-56.26
-53.95
-52.34
-51.44
-51.35
-52.12
-53.56
-55.22
-56.43
-56.48
-54.75
-50.94
-45.05
-37.40
-28.38
-18.28
-7.22
4.77
17.44
30.13
41.63
50.36
54.75
53.66
46.64
33.99
16.59
-4.26
-26.81
-48.94
-68.21
-82.21
-89.13
-88.35
-80.68
-68.08
-53.07
-37.92
-24.13
-12.33
-2.61
5.04
10.47
13.40
13.75
11.94
8.95
6.16
4.80
5.57
8.27
11.99
15.38
17.18
16.50
12.97
6.65
-2.17
-13.19
-26.18
-40.96
-57.35
-75.18
-94.22
-114.13
-134.29
-153.67
-170.72
-183.61
-190.61
-190.58
-183.39
-169.94
-151.91
-131.28
-109.86
-89.08
-69.97
-53.31
-39.74
-29.76
-23.63
-21.16
-21.70
-24.20
-27.38
-29.99
-31.03
-29.90
-26.44
-20.95
-14.06
-6.59
0.50
6.28
9.97
11.04
9.41
5.45
0.00
-5.80
-10.91
-14.71
-17.18
-18.82
-20.22
-21.51
-22.02
-20.40
-15.10
-5.08
9.64
27.87
47.72
67.26
85.12
100.68
113.88
124.79
133.45
139.86
144.21
147.16
149.68
152.82
157.23
162.94
169.39
175.67
181.01
184.87
187.12
187.73
186.68
183.92
179.40
173.16
165.37
156.34
146.51
136.35
126.34
116.81
107.83
99.07
89.88
79.54
67.64
54.33
40.52
27.63
17.19
10.35
7.48
8.12
11.15
15.18
18.96
21.59
22.61
21.93
19.67
15.99
11.06
5.04
-1.86
-9.42
-17.39
-25.51
-33.55
-41.24
-48.34
-54.74
-60.53
-66.02
-71.73
-78.14
-85.55
-93.96
-103.09
-112.50
-121.77
-130.66
-139.08
-147.14
-155.06
-163.05
-171.25
-179.38
-186.57
-191.17
-190.99
-183.89
-168.67
-145.70
-117.03
-85.82
-55.31
-27.85
-4.55
14.52
29.70
41.28
49.32
53.94
55.48
54.68
52.47
49.76
47.30
45.64
45.03
45.35
45.91
45.62
43.33
38.49
31.42
23.16
14.77
6.68
-1.48
-10.39
-20.22
-30.17
-38.67
-44.28
-46.57
-46.60
-46.47
-48.25
-53.11
-60.90
-70.53
-80.54
-89.66
-96.80
-101.02
-101.46
-97.64
-89.94
-79.86
-69.82
-62.49
-59.84
-62.47
-69.52
-79.10
-89.16
-98.19
-105.57
-111.57
-116.84
-122.09
-127.84
-134.55
-142.65
-152.51
-163.93
-175.67
-185.23
-189.33
-185.05
-171.08
-148.47
-120.30
-90.47
-62.20
-36.88
-14.21
7.02
27.70
47.70
65.92
81.04
92.47
100.86
107.98
116.01
126.60
140.12
155.47
170.55
183.05
191.32
194.91
194.47
191.15
185.84
178.66
169.00
156.02
139.34
119.67
98.69
78.58
61.17
47.37
36.95
28.79
21.47
13.78
5.04
-4.77
-15.06
-24.80
-32.72
-37.70
-39.25
-37.78
-34.61
-31.57
-30.29
-31.63
-35.47
-41.04
-47.46
-54.13
-60.81
-67.31
-73.17
-77.38
-78.53
-75.16
-66.31
-51.93
-33.26
-12.81
5.99
19.72
26.30
25.95
21.30
16.49
15.52
20.83
32.27
47.07
60.38
66.61
60.97
41.32
9.57
-28.06
-62.30
-83.46
-84.82
-65.07
-28.74
15.84
60.03
98.13
128.75
153.83
176.21
197.27
215.83
228.93
233.61
228.75
215.83
198.07
178.92
160.48
143.15
126.18
108.83
91.21
74.23
58.90
45.47
33.03
19.82
4.01
-15.30
-37.52
-60.61
-81.74
-98.34
-109.13
-114.54
-116.53
-117.59
-119.66
-123.24
-127.16
-129.24
-127.26
-120.06
-107.90
-92.26
-75.18
-58.46
-43.24
-29.94
-18.55
-8.85
-0.68
6.11
11.68
16.31
20.33
24.07
27.76
31.43
34.98
38.25
41.12
43.59
45.76
47.75
49.64
51.34
52.57
52.98
52.23
50.18
46.88
42.53
37.33
31.39
24.70
17.33
9.65
2.40
-3.32
-6.35
-5.80
-1.45
6.24
16.17
27.00
37.46
46.56
53.78
58.95
62.28
64.19
65.23
65.85
66.21
66.06
64.78
61.68
56.37
49.12
40.92
33.11
26.97
23.07
21.10
19.96
18.22
14.70
8.93
1.28
-7.25
-15.38
-22.02
-26.58
-29.10
-30.14
-30.60
-31.22
-32.17
-32.74
-31.31
-25.77
-14.22
4.13
28.44
56.15
83.56
106.79
122.75
129.76
127.79
118.17
103.10
85.08
66.33
48.53
32.55
18.58
6.18
-5.33
-16.52
-27.63
-38.45
-48.41
-56.96
-63.80
-69.18
-73.78
-78.31
-83.15
-87.99
-91.91
-93.66
-92.18
-86.90
-77.84
-65.50
-50.56
-33.73
-15.61
3.40
23.20
43.94
65.83
88.74
111.94
134.05
153.26
167.87
176.64
178.90
174.36
162.87
144.29
118.77
87.15
51.17
13.41
-23.16
-55.82
-82.50
-101.95
-113.62
-117.57
-114.29
-104.81
-90.66
-73.95
-57.14
-42.74
-32.81
-28.59
-30.25
-36.88
-46.78
-57.95
-68.63
-77.56
-84.16
-88.37
-90.39
-90.48
-88.92
-86.07
-82.41
-78.61
-75.30
-72.95
-71.58
-70.81
-69.93
-68.17
-65.01
-60.44
-54.93
-49.28
-44.27
-40.45
-37.92
-36.46
-35.67
-35.06
-34.13
-32.31
-29.14
-24.63
-19.61
-15.86
-15.67
-20.82
-31.52
-45.90
-60.63
-72.20
-78.45
-79.32
-76.47
-72.25
-68.55
-66.45
-66.68
-70.18
-78.15
-91.38
-109.20
-128.98
-146.62
-157.95
-160.32
-153.36
-138.69
-118.93
-96.49
-73.04
-49.54
-26.71
-5.40
13.34
28.64
40.09
47.84
52.54
55.05
56.28
56.98
57.73
58.86
60.42
62.11
63.40
63.54
61.81
57.67
50.92
41.60
29.93
16.06
0.01
-18.29
-38.82
-61.27
-84.87
-108.45
-130.60
-149.87
-165.09
-175.51
-181.00
-182.01
-179.51
-174.54
-167.70
-158.60
-145.74
-126.96
-100.54
-66.36
-26.61
14.45
51.80
81.34
101.26
112.52
118.15
122.06
127.59
136.65
149.47
164.89
181.02
195.91
208.14
217.02
222.56
225.07
224.66
220.94
212.95
199.65
180.60
156.50
129.24
101.45
75.63
53.48
35.57
21.61
10.82
2.31
-4.88
-11.92
-20.11
-30.48
-43.04
-56.17
-66.70
-70.81
-65.58
-50.30
-26.87
0.90
28.77
53.53
73.59
88.93
100.23
108.08
112.60
113.49
110.52
103.98
94.71
83.97
72.85
61.92
51.04
39.59
26.84
12.51
-3.05
-18.94
-34.15
-48.20
-61.55
-75.60
-92.17
-112.76
-137.80
-166.37
-196.30
-224.65
-248.35
-264.96
-273.23
-273.55
-268.01
-259.78
-252.16
-247.36
-245.80
-245.97
-245.28
-241.13
-231.81
-216.81
-196.37
-170.97
-141.00
-107.05
-70.35
-33.10
1.90
32.02
55.70
72.89
84.97
94.12
102.54
111.91
123.07
136.02
149.93
163.34
174.43
181.40
182.96
178.69
169.12
155.49
139.36
122.15
104.94
88.44
73.04
59.00
46.53
35.88
27.28
20.76
16.03
12.34
8.54
3.50
-3.37
-11.63
-19.82
-25.91
-28.07
-25.46
-18.52
-8.73
2.10
12.45
21.54
29.32
36.10
42.18
47.64
52.28
55.87
58.27
59.60
60.22
60.61
61.22
62.50
64.82
68.52
73.77
80.56
88.53
97.00
105.01
111.50
115.42
115.94
112.48
104.79
93.07
78.03
60.95
43.57
27.76
15.07
6.25
1.02
-1.86
-4.20
-7.70
-13.32
-20.85
-28.91
-35.29
-37.71
-34.50
-25.14
-10.42
7.76
26.85
44.25
57.87
66.57
70.32
70.15
67.79
65.17
63.81
64.44
66.84
69.93
72.30
72.65
70.23
64.97
57.25
47.59
36.16
22.63
6.19
-14.11
-38.91
-68.10
-100.73
-135.13
-169.28
-201.27
-229.60
-253.39
-272.29
-286.43
-296.28
-302.58
-306.14
-307.48
-306.46
-302.10
-292.90
-277.64
-256.35
-230.75
-204.00
-179.62
-160.06
-145.75
-135.09
-125.35
-113.90
-99.27
-81.32
-60.73
-38.27
-14.27
11.26
38.21
65.87
92.87
117.56
138.78
156.49
171.85
186.77
203.01
221.40
241.48
261.83
280.63
296.49
308.83
317.77
323.83
327.49
328.94
328.15
325.01
319.49
311.76
302.05
290.62
277.60
263.00
246.78
228.92
209.60
189.27
168.62
148.45
129.35
111.60
95.02
79.25
64.01
49.49
36.32
25.37
17.24
11.98
8.97
7.17
5.55
3.38
0.30
-3.83
-9.11
-15.69
-23.57
-32.48
-41.76
-50.45
-57.69
-62.97
-66.30
-68.15
-69.17
-69.94
-70.75
-71.56
-72.20
-72.46
-72.33
-71.99
-71.72
-71.81
-72.34
-73.23
-74.27
-75.24
-76.05
-76.71
-77.30
-77.90
-78.67
-79.89
-81.95
-85.26
-89.87
-95.19
-99.95
-102.54
-101.57
-96.54
-88.04
-77.55
-66.89
-57.53
-50.15
-44.61
-40.12
-35.79
-31.00
-25.73
-20.58
-16.55
-14.47
-14.61
-16.35
-18.44
-19.44
-18.36
-15.12
-10.46
-5.56
-1.52
0.95
1.54
0.03
-3.88
-10.57
-20.17
-32.29
-45.88
-59.55
-72.11
-83.10
-92.91
-102.47
-112.63
-123.63
-134.97
-145.80
-155.46
-163.71
-170.61
-175.87
-178.51
-176.90
-169.40
-155.28
-135.25
-111.51
-86.89
-63.95
-44.03
-27.06
-11.94
2.59
17.40
32.83
48.84
65.43
82.66
100.38
117.68
132.88
144.14
150.63
153.54
155.96
161.55
172.19
186.32
198.89
203.51
195.78
175.85
148.78
122.31
103.32
94.93
95.65
100.81
105.22
105.30
99.76
89.02
74.03
55.67
34.88
13.23
-6.87
-22.59
-31.68
-33.31
-28.36
-19.01
-8.00
2.23
9.99
14.53
16.01
15.37
14.09
13.87
16.17
21.82
30.79
42.28
55.12
68.22
80.92
92.90
103.93
113.48
120.50
123.53
121.20
112.75
98.47
79.64
58.21
36.08
14.60
-5.86
-25.78
-46.13
-67.98
-91.95
-118.11
-145.87
-173.99
-200.82
-224.44
-243.16
-255.93
-262.86
-265.28
-265.40
-265.50
-267.04
-270.05
-273.24
-274.66
-272.49
-265.80
-254.71
-240.11
-223.30
-205.59
-188.15
-171.82
-156.87
-142.64
-127.27
-108.01
-82.18
-48.51
-8.04
35.80
78.43
115.79
145.86
169.01
187.26
202.80
216.60
227.94
234.84
235.23
228.17
214.48
196.67
178.29
162.97
153.52
151.46
156.72
167.75
181.88
195.72
205.73
208.92
203.58
189.79
169.52
146.16
123.49
104.49
90.47
80.81
73.59
66.42
57.41
45.65
31.29
15.18
-1.48
-17.50
-31.75
-43.23
-51.17
-55.29
-55.95
-54.17
-51.38
-48.92
-47.69
-47.98
-49.61
-52.27
-55.50
-58.70
-60.84
-60.61
-56.75
-48.71
-36.99
-23.12
-9.04
3.59
13.84
21.43
26.25
28.03
26.35
21.07
12.78
2.92
-6.66
-14.40
-19.64
-22.72
-24.62
-26.36
-28.49
-30.97
-33.38
-35.22
-36.26
-36.57
-36.43
-36.15
-35.95
-35.86
-35.77
-35.54
-35.10
-34.47
-33.89
-33.77
-34.51
-36.36
-39.13
-42.14
-44.22
-44.07
-40.64
-33.51
-23.16
-10.79
1.98
13.58
22.91
29.48
33.30
34.73
34.19
32.06
28.66
24.37
19.68
15.18
11.40
8.58
6.59
4.95
3.00
0.22
-3.55
-8.07
-12.79
-17.18
-20.90
-23.93
-26.53
-29.07
-31.92
-35.34
-39.37
-43.86
-48.43
-52.62
-55.95
-58.16
-59.18
-59.15
-58.32
-56.91
-55.20
-53.49
-52.11
-51.26
-50.74
-49.85
-47.48
-42.62
-34.88
-24.86
-14.01
-4.17
3.29
7.95
10.45
12.09
14.19
17.59
22.41
28.26
34.50
40.62
46.32
51.46
55.89
59.25
61.09
61.00
58.94
55.32
50.98
46.85
43.61
41.42
39.89
38.41
36.40
33.70
30.60
27.67
25.53
24.50
24.54
25.31
26.30
27.08
27.38
27.07
26.25
25.17
24.12
23.40
23.14
23.22
23.25
22.64
20.85
17.57
12.86
7.08
0.63
-6.20
-13.49
-21.54
-30.76
-41.39
-53.33
-66.08
-78.88
-90.94
-101.81
-111.75
-121.72
-133.20
-147.48
-164.91
-184.23
-202.57
-216.24
-221.91
-217.87
-204.71
-185.09
-162.68
-140.81
-121.41
-104.65
-89.46
-74.51
-59.03
-43.19
-27.85
-14.08
-2.85
5.24
10.10
12.38
13.86
17.48
26.77
44.46
71.00
103.72
137.30
165.72
184.52
192.36
190.94
183.55
173.19
161.43
148.41
133.82
117.90
101.67
86.47
73.15
61.51
50.48
38.90
26.26
13.09
0.70
-9.45
-16.49
-20.49
-22.34
-23.30
-24.37
-25.96
-27.83
-29.41
-30.18
-30.00
-29.16
-28.22
-27.67
-27.74
-28.34
-29.04
-29.30
-28.67
-26.91
-24.12
-20.70
-17.20
-14.10
-11.69
-9.93
-8.62
-7.56
-6.65
-6.00
-5.79
-6.07
-6.74
-7.51
-8.04
-8.10
-7.55
-6.36
-4.53
-2.14
0.69
3.63
6.34
8.68
10.81
13.36
17.08
22.56
29.87
38.48
47.47
55.81
62.65
67.40
69.69
69.21
65.70
59.01
49.22
36.81
22.73
8.40
-4.55
-14.68
-21.23
-24.40
-25.29
-25.48
-26.42
-28.90
-32.88
-37.78
-42.86
-47.75
-52.50
-57.37
-62.59
-68.00
-73.15
-77.38
-80.06
-80.67
-78.78
-74.07
-66.27
-55.37
-41.78
-26.50
-10.98
3.08
14.30
21.98
26.20
27.67
27.39
26.20
24.63
22.93
21.14
19.33
17.56
15.92
14.40
12.87
11.18
9.23
7.12
4.99
2.98
1.06
-1.01
-3.57
-6.87
-10.94
-15.62
-20.73
-26.24
-32.44
-39.78
-48.75
-59.58
-72.00
-85.20
-97.93
-108.72
-116.28
-119.78
-119.15
-115.12
-109.03
-102.42
-96.68
-92.66
-90.67
-90.51
-91.82
-94.25
-97.54
-101.42
-105.55
-109.44
-112.62
-114.75
-115.90
-116.56
-117.53
-119.61
-123.38
-128.94
-135.96
-143.72
-151.29
-157.83
-162.65
-165.41
-166.19
-165.52
-164.30
-163.68
-164.62
-167.44
-171.47
-175.02
-175.83
-171.75
-161.60
-145.50
-124.78
-101.31
-76.90
-52.66
-29.07
-6.24
15.75
36.76
56.71
76.05
95.92
118.03
144.00
174.40
208.13
242.26
272.69
295.31
307.27
307.70
297.79
280.16
258.02
234.21
210.85
189.15
169.54
151.81
135.34
119.37
103.31
87.01
70.76
55.17
40.67
27.30
14.54
1.67
-11.77
-25.48
-38.29
-48.39
-53.95
-53.75
-47.46
-35.73
-19.89
-1.59
17.55
36.18
53.40
68.89
82.81
95.66
107.76
118.85
127.96
133.71
134.93
131.37
123.96
114.56
105.26
97.64
92.29
88.88
86.64
84.81
83.02
81.27
79.67
78.21
76.56
74.07
70.12
64.27
56.54
47.34
37.26
26.77
16.06
5.08
-6.32
-18.07
-29.84
-41.21
-51.82
-61.53
-70.29
-77.80
-83.40
-86.19
-85.52
-81.48
-75.15
-68.26
-62.54
-58.96
-57.36
-56.51
-54.76
-50.78
-44.02
-34.95
-24.67
-14.53
-5.57
1.69
7.39
12.15
16.81
22.12
28.34
35.04
41.01
44.65
44.54
40.07
31.77
21.27
10.74
2.17
-3.12
-4.69
-2.80
1.95
8.81
16.97
25.57
33.74
40.81
46.47
50.94
54.74
58.50
62.61
67.15
71.83
76.28
80.16
83.30
85.64
87.22
88.08
88.29
87.90
86.98
85.58
83.67
81.15
77.80
73.27
67.13
58.95
48.44
35.57
20.75
4.92
-10.43
-23.53
-32.73
-36.94
-35.98
-30.60
-22.19
-12.38
-2.65
5.77
11.97
15.34
15.62
13.04
8.36
2.69
-2.82
-7.41
-10.90
-13.58
-15.83
-17.82
-19.38
-20.14
-19.87
-18.68
-17.01
-15.47
-14.59
-14.65
-15.68
-17.46
-19.65
-21.77
-23.35
-24.01
-23.61
-22.39
-20.87
-19.76
-19.54
-20.20
-21.13
-21.18
-18.97
-13.36
-3.71
9.85
26.53
45.10
64.11
82.31
98.67
112.50
123.38
131.15
135.96
138.19
138.54
137.81
136.78
135.97
135.64
135.76
136.24
137.06
138.35
140.39
143.41
147.40
152.01
156.43
159.56
160.20
157.23
149.97
138.41
123.40
106.59
90.05
75.79
65.26
59.07
57.04
58.43
62.30
67.64
73.47
78.83
82.90
85.04
84.93
82.52
78.01
71.62
63.50
53.80
42.76
30.86
18.77
7.28
-2.94
-11.51
-18.36
-23.59
-27.11
-28.64
-27.74
-24.37
-19.27
-14.04
-10.78
-11.16
-15.71
-23.53
-32.81
-41.82
-49.71
-56.77
-63.88
-71.80
-80.54
-89.30
-96.90
-102.44
-105.75
-107.46
-108.73
-110.76
-114.34
-119.60
-126.04
-132.82
-139.15
-144.61
-149.11
-152.84
-155.89
-158.12
-159.12
-158.53
-156.28
-152.76
-148.63
-144.54
-140.78
-137.28
-133.61
-129.26
-123.92
-117.54
-110.38
-102.89
-95.53
-88.64
-82.40
-76.78
-71.65
-66.80
-62.06
-57.30
-52.45
-47.43
-42.21
-36.72
-30.91
-24.78
-18.40
-11.96
-5.68
0.08
5.01
8.86
11.58
13.33
14.42
15.17
15.81
16.38
16.97
17.84
19.54
22.72
27.68
33.97
40.26
44.69
45.56
41.97
34.12
23.17
10.71
-1.68
-12.67
-21.17
-26.30
-27.46
-24.58
-18.35
-10.18
-1.89
4.77
8.59
9.15
6.70
1.93
-4.24
-10.94
-17.50
-23.48
-28.75
-33.39
-37.64
-41.79
-46.20
-51.27
-57.50
-65.32
-74.88
-85.85
-97.38
-108.30
-117.69
-125.25
-131.58
-138.03
-146.17
-157.25
-171.71
-188.97
-207.45
-224.81
-238.20
-244.87
-242.84
-231.60
-212.61
-189.01
-164.68
-142.98
-125.49
-111.60
-98.91
-84.37
-65.67
-42.10
-14.83
13.71
40.70
63.89
82.02
94.88
102.89
106.80
107.47
105.94
103.60
102.03
102.72
106.46
113.10
121.54
130.31
138.22
144.75
150.06
154.60
158.60
161.92
164.17
165.03
164.48
162.86
160.61
158.06
155.16
151.55
146.66
140.00
131.32
120.80
109.00
96.74
84.85
73.91
64.10
55.25
47.07
39.38
32.28
26.01
20.79
16.58
13.00
9.52
5.68
1.37
-3.16
-7.39
-10.79
-13.03
-13.96
-13.54
-11.57
-7.68
-1.43
7.40
18.40
30.46
41.86
50.77
55.80
56.39
52.91
46.40
38.16
29.39
21.02
13.69
7.92
4.05
2.19
1.98
2.64
3.08
2.33
-0.03
-3.69
-7.78
-11.39
-14.04
-15.99
-18.10
-21.37
-26.45
-33.41
-41.70
-50.63
-59.64
-68.65
-77.97
-88.15
-99.68
-112.73
-127.07
-142.09
-157.03
-171.31
-184.71
-197.41
-209.82
-222.13
-234.08
-244.75
-252.76
-256.54
-254.71
-246.52
-232.11
-212.75
-190.75
-169.13
-150.73
-137.36
-129.09
-124.20
-119.91
-113.54
-103.50
-89.74
-73.40
-56.05
-38.96
-22.75
-7.54
6.69
19.76
31.17
40.33
46.80
50.57
52.21
52.67
53.07
54.27
56.57
59.56
62.29
63.63
62.72
59.16
53.04
44.79
35.03
24.51
14.24
5.38
-0.88
-3.68
-2.76
1.37
7.67
14.92
22.15
28.78
34.60
39.51
43.35
45.85
46.85
46.49
45.34
44.22
43.94
44.96
47.22
50.19
53.26
55.94
58.14
60.04
61.89
63.76
65.38
66.26
65.87
63.90
60.38
55.68
50.28
44.61
38.86
32.93
26.55
19.36
11.07
1.66
-8.52
-18.65
-27.47
-33.54
-35.68
-33.34
-26.85
-17.33
-6.37
4.54
14.38
22.87
30.30
37.24
44.19
51.43
58.97
66.78
74.89
83.56
92.99
103.15
113.48
122.96
130.40
135.11
137.31
138.18
139.53
143.00
149.37
158.23
168.07
176.87
182.58
183.62
179.18
169.25
154.72
137.29
119.09
102.09
87.31
74.46
62.03
48.18
31.85
13.59
-4.33
-18.68
-26.61
-26.83
-20.16
-9.24
2.55
12.29
18.39
20.75
20.40
18.58
16.23
13.64
10.68
7.31
3.82
0.83
-1.05
-1.63
-1.29
-0.81
-0.93
-2.01
-3.82
-5.69
-6.90
-7.08
-6.49
-5.96
-6.46
-8.58
-12.04
-15.69
-18.08
-18.10
-15.54
-11.13
-5.96
-0.86
4.00
8.91
14.09
19.30
23.79
26.74
27.81
27.45
26.71
26.65
27.90
30.38
33.47
36.31
38.11
38.38
37.02
34.52
31.90
30.50
31.54
35.55
42.09
49.90
57.37
63.17
66.67
67.84
66.94
64.18
59.66
53.54
46.27
38.56
31.03
23.83
16.49
8.14
-1.94
-13.84
-26.95
-40.16
-52.31
-62.57
-70.45
-75.73
-78.31
-78.18
-75.60
-71.14
-65.65
-60.03
-54.89
-50.48
-46.70
-43.31
-40.17
-37.25
-34.65
-32.43
-30.64
-29.25
-28.27
-27.77
-27.91
-28.87
-30.82
-33.86
-38.00
-43.09
-48.79
-54.61
-60.00
-64.53
-68.05
-70.74
-73.06
-75.53
-78.62
-82.65
-87.76
-93.91
-100.74
-107.59
-113.46
-117.27
-118.29
-116.51
-112.56
-107.38
-101.54
-94.77
-86.00
-73.87
-57.55
-37.31
-14.58
8.66
30.66
50.52
68.26
84.32
99.07
112.34
123.47
131.74
136.86
139.08
139.09
137.69
135.43
132.58
129.16
125.21
120.84
116.20
111.39
106.46
101.50
96.75
92.71
90.03
89.20
90.33
92.90
95.95
98.27
98.79
96.87
92.39
85.73
77.62
68.96
60.60
53.25
47.29
42.75
39.30
36.29
33.00
28.79
23.37
16.87
9.78
2.71
-3.88
-9.95
-15.90
-22.38
-30.10
-39.46
-50.49
-62.94
-76.39
-90.27
-103.86
-116.28
-126.54
-133.92
-138.23
-140.02
-140.41
-140.64
-141.49
-143.02
-144.57
-145.24
-144.31
-141.59
-137.41
-132.35
-126.94
-121.40
-115.65
-109.46
-102.66
-95.41
-88.16
-81.60
-76.38
-72.80
-70.69
-69.52
-68.61
-67.50
-66.12
-64.72
-63.76
-63.57
-64.24
-65.61
-67.34
-69.02
-70.15
-70.02
-67.61
-61.81
-51.82
-37.75
-20.93
-3.75
11.18
21.94
28.00
30.28
30.57
30.59
31.40
33.23
35.88
39.19
43.31
48.48
54.74
61.67
68.44
74.17
78.34
80.99
82.64
84.02
85.76
88.15
91.05
94.00
96.44
97.99
98.62
98.68
98.69
99.12
100.06
101.22
102.06
102.04
100.90
98.64
95.41
91.32
86.26
79.99
72.33
63.34
53.37
43.04
32.97
23.59
15.00
6.99
-0.84
-8.90
-17.46
-26.48
-35.67
-44.65
-53.10
-60.89
-68.14
-75.07
-81.89
-88.56
-94.85
-100.38
-104.91
-108.55
-111.83
-115.59
-120.72
-127.73
-136.64
-146.81
-157.02
-165.63
-170.90
-171.40
-166.42
-156.27
-142.22
-126.08
-109.63
-94.04
-79.76
-66.67
-54.46
-42.94
-32.10
-21.99
-12.52
-3.52
5.17
13.43
20.92
27.25
32.25
36.11
39.24
42.08
44.80
47.35
49.62
51.75
54.23
57.82
63.21
70.69
80.02
90.54
101.45
112.03
121.80
130.27
136.81
140.65
141.03
137.58
130.56
120.84
109.64
98.12
86.98
76.43
66.30
56.24
46.06
35.68
25.24
14.93
4.90
-4.77
-14.11
-23.21
-32.10
-40.71
-48.84
-56.26
-62.80
-68.51
-73.72
-78.92
-84.76
-91.77
-100.30
-110.29
-121.25
-132.24
-142.07
-149.54
-153.68
-154.01
-150.67
-144.25
-135.68
-125.93
-115.69
-105.34
-94.93
-84.37
-73.64
-62.90
-52.54
-42.97
-34.55
-27.36
-21.30
-16.16
-11.69
-7.71
-3.96
-0.18
3.83
8.06
12.22
15.80
18.39
19.89
20.72
21.56
23.04
25.42
28.50
31.74
34.62
36.89
38.65
40.22
42.00
44.28
47.21
50.87
55.16
59.78
64.14
67.35
68.55
67.11
63.03
56.89
49.81
43.06
37.78
34.68
34.03
35.70
39.44
44.99
52.15
60.75
70.42
80.53
90.11
98.05
103.31
105.28
103.91
99.71
93.56
86.33
78.62
70.57
61.91
52.22
41.23
29.06
16.23
3.43
-8.85
-20.50
-31.85
-43.32
-55.08
-66.82
-77.85
-87.58
-95.89
-103.50
-111.68
-121.55
-133.31
-145.70
-156.30
-162.35
-161.98
-155.01
-142.97
-128.43
-113.85
-100.74
-89.37
-79.24
-69.66
-60.37
-51.57
-43.68
-36.90
-31.05
-25.64
-20.17
-14.33
-8.16
-2.04
3.60
8.34
12.04
14.85
17.22
19.75
23.14
27.93
34.35
42.21
50.89
59.44
66.91
72.60
76.34
78.52
79.86
81.15
82.91
85.14
87.36
88.78
88.55
86.08
81.23
74.32
65.96
56.80
47.32
37.79
28.36
19.22
10.66
2.94
-3.82
-9.83
-15.54
-21.42
-27.73
-34.43
-41.47
-49.05
-57.77
-68.30
-80.80
-94.37
-107.12
-116.75
-121.60
-121.38
-117.19
-110.85
-103.94
-97.20
-90.43
-83.13
-75.04
-66.49
-58.16
-50.68
-44.23
-38.53
-32.99
-27.11
-20.61
-13.52
-6.19
0.95
7.50
13.28
18.41
23.07
27.30
30.65
32.32
31.42
27.60
21.41
14.30
8.30
5.39
6.95
13.42
24.34
38.58
54.69
71.15
86.63
99.97
110.14
116.23
117.55
113.80
105.43
93.68
80.40
67.41
56.01
46.54
38.53
31.22
24.09
17.06
10.39
4.22
-1.62
-7.66
-14.37
-21.78
-29.26
-35.68
-39.91
-41.28
-39.82
-36.21
-31.52
-26.79
-22.90
-20.41
-19.65
-20.71
-23.34
-26.91
-30.43
-32.68
-32.64
-29.74
-24.22
-17.01
-9.44
-2.71
2.57
6.49
9.71
12.99
16.74
20.92
25.22
29.41
33.61
38.29
43.91
50.65
58.20
65.90
72.93
78.72
83.05
86.05
88.01
89.24
89.97
90.38
90.65
90.91
91.22
91.55
91.74
91.53
90.59
88.59
85.49
81.60
77.60
74.34
72.45
72.01
72.52
73.16
73.17
72.23
70.44
68.14
65.53
62.51
58.71
53.78
47.67
40.75
33.54
26.54
19.91
13.43
6.64
-0.87
-9.25
-18.21
-27.13
-35.31
-42.22
-47.72
-52.03
-55.49
-58.40
-60.79
-62.61
-63.84
-64.71
-65.66
-67.15
-69.35
-72.10
-74.93
-77.32
-78.92
-79.61
-79.50
-78.85
-78.00
-77.39
-77.57
-79.12
-82.38
-87.28
-93.14
-98.88
-103.42
-106.15
-107.36
-108.09
-109.57
-112.55
-116.63
-120.34
-121.73
-119.22
-112.38
-102.02
-89.76
-77.18
-65.23
-54.06
-43.27
-32.42
-21.31
-9.98
1.46
13.03
24.83
36.90
49.13
61.13
72.35
82.14
89.83
94.90
97.11
96.70
94.45
91.64
89.55
89.07
90.35
92.72
95.14
96.60
96.57
94.97
92.00
87.88
82.62
76.10
68.21
58.97
48.65
37.71
26.69
16.09
6.24
-2.79
-11.20
-19.38
-27.73
-36.54
-45.96
-55.93
-66.36
-77.20
-88.44
-100.08
-112.12
-124.53
-137.14
-149.45
-160.49
-168.72
-172.39
-170.09
-161.43
-147.37
-130.04
-111.98
-95.28
-80.90
-68.73
-57.97
-47.83
-37.97
-28.52
-19.78
-11.86
-4.47
2.92
10.75
19.08
27.49
35.24
41.63
46.35
49.56
51.79
53.54
55.09
56.33
57.04
57.04
56.40
55.31
53.91
52.04
49.31
45.46
40.66
35.77
32.19
31.43
34.57
41.79
52.45
65.33
79.17
92.94
105.99
117.84
127.88
135.22
138.58
136.57
127.99
112.49
91.00
65.83
40.38
18.30
2.51
-5.73
-7.07
-3.76
1.36
5.77
8.08
8.09
6.51
4.41
2.66
1.82
2.06
3.32
5.42
8.02
10.64
12.55
12.96
11.15
6.82
0.22
-7.83
-16.18
-23.78
-29.98
-34.68
-38.26
-41.20
-43.88
-46.35
-48.42
-49.71
-49.90
-48.88
-46.84
-44.27
-41.94
-40.76
-41.60
-44.93
-50.52
-57.38
-63.99
-68.77
-70.70
-69.66
-66.39
-62.07
-57.70
-53.79
-50.19
-46.51
-42.41
-37.97
-33.54
-29.58
-26.29
-23.60
-21.18
-18.63
-15.58
-11.60
-6.16
1.37
11.49
24.18
38.66
53.41
66.62
76.82
83.42
86.80
88.01
88.24
88.29
88.42
88.35
87.67
85.93
82.91
78.56
73.03
66.63
59.79
52.91
46.27
39.89
33.52
26.89
19.83
12.49
5.23
-1.58
-7.76
-13.46
-19.12
-25.20
-31.99
-39.44
-47.18
-54.75
-61.79
-68.38
-74.92
-81.95
-89.83
-98.44
-107.00
-114.27
-118.82
-119.27
-114.49
-103.68
-86.45
-63.20
-35.34
-5.46
22.97
46.37
62.06
69.15
68.74
63.42
56.17
49.34
43.97
39.90
36.32
32.52
28.34
24.04
19.91
15.92
11.60
6.34
-0.18
-7.77
-15.81
-23.65
-31.00
-38.13
-45.68
-54.26
-64.08
-74.72
-85.15
-94.11
-100.60
-104.30
-105.87
-106.82
-108.87
-113.29
-120.23
-128.75
-137.33
-144.52
-149.29
-150.94
-148.73
-141.58
-128.35
-108.48
-82.51
-52.16
-19.84
12.20
42.38
69.88
94.20
114.79
130.97
142.18
148.44
150.49
149.60
147.18
144.42
142.17
140.86
140.57
141.03
141.64
141.59
140.05
136.43
130.65
123.06
114.43
105.63
97.32
89.86
83.33
77.66
72.90
69.24
66.88
65.75
65.26
64.30
61.63
56.37
48.52
38.93
28.98
20.01
12.85
7.77
4.65
3.37
3.93
6.44
10.81
16.58
22.91
28.82
33.57
36.93
39.28
41.23
43.23
45.08
45.90
44.38
39.37
30.58
18.81
5.74
-6.78
-17.51
-26.33
-34.08
-42.09
-51.45
-62.56
-75.03
-87.95
-100.14
-110.42
-117.75
-121.36
-120.87
-116.54
-109.19
-100.10
-90.68
-82.16
-75.39
-70.66
-67.72
-65.87
-64.18
-61.87
-58.63
-54.85
-51.37
-49.19
-48.84
-50.16
-52.41
-54.70
-56.54
-57.98
-59.57
-61.83
-64.84
-68.11
-70.79
-72.19
-72.26
-71.66
-71.56
-72.93
-75.97
-79.70
-82.24
-81.44
-75.83
-65.36
-51.46
-36.60
-23.37
-13.62
-7.95
-5.87
-6.00
-6.70
-6.32
-3.47
2.90
13.01
25.45
37.09
43.91
43.13
35.23
24.84
19.24
25.14
45.33
77.03
113.10
145.24
167.42
177.66
177.58
170.40
159.06
145.44
130.94
117.10
105.79
98.39
94.85
93.43
91.30
85.50
74.30
57.75
37.57
16.52
-2.50
-17.35
-27.25
-33.14
-37.38
-42.85
-51.82
-64.92
-80.56
-95.36
-105.06
-105.91
-95.95
-75.88
-49.14
-21.09
2.61
17.73
22.69
18.71
8.72
-4.32
-18.73
-34.28
-51.31
-69.41
-86.67
-99.95
-106.10
-103.23
-91.23
-71.62
-46.75
-19.24
8.38
33.81
55.28
71.89
83.66
91.20
94.97
94.72
89.70
79.46
64.91
48.76
34.85
26.72
26.09
32.14
42.01
52.14
59.61
63.18
63.22
61.18
58.90
57.90
58.96
61.87
65.59
68.73
70.13
69.53
67.57
65.49
64.41
64.95
67.03
70.25
74.29
79.19
85.20
92.43
100.49
108.60
115.82
121.69
126.53
131.37
137.56
146.20
157.55
171.01
185.22
198.57
209.48
216.63
218.93
215.33
204.90
187.14
162.40
132.32
99.83
68.65
42.31
23.12
11.44
5.75
3.34
1.42
-1.93
-7.43
-14.86
-23.84
-34.22
-46.25
-60.14
-75.57
-91.52
-106.47
-119.04
-128.62
-135.63
-141.32
-147.23
-154.60
-163.98
-175.16
-187.42
-199.77
-211.23
-220.99
-228.36
-232.86
-234.15
-232.20
-227.37
-220.37
-212.09
-203.32
-194.41
-185.31
-175.65
-164.99
-152.98
-139.47
-124.51
-108.29
-91.10
-73.32
-55.52
-38.43
-22.93
-9.89
0.27
8.01
14.79
22.66
33.43
47.60
63.89
79.88
93.11
102.35
108.01
111.34
113.35
114.01
112.42
107.73
99.97
90.31
80.39
71.56
64.42
59.18
56.32
56.99
62.66
74.28
91.29
111.42
131.25
147.36
157.41
160.66
157.95
151.20
142.67
134.30
127.10
120.91
114.57
106.40
94.88
79.17
59.35
36.22
10.91
-15.32
-41.22
-65.38
-86.18
-102.01
-111.76
-115.34
-113.72
-108.70
-102.06
-94.98
-87.70
-79.78
-70.69
-60.34
-49.38
-38.99
-30.42
-24.46
-21.04
-19.22
-17.49
-14.37
-9.05
-1.80
6.07
12.53
15.62
14.09
7.84
-2.18
-14.29
-26.72
-37.98
-47.07
-53.43
-56.87
-57.43
-55.56
-52.32
-49.31
-48.43
-51.33
-58.92
-71.17
-87.04
-104.74
-121.86
-135.68
-143.58
-143.80
-136.13
-122.34
-105.80
-90.46
-79.48
-74.33
-74.60
-78.60
-84.29
-89.99
-94.55
-97.34
-98.12
-97.15
-95.17
-93.25
-92.43
-92.95
-93.85
-92.96
-87.44
-74.77
-53.76
-25.18
8.26
42.53
73.45
97.67
113.52
121.13
122.00
118.15
111.42
102.93
93.19
82.52
71.51
61.35
53.65
49.95
51.16
57.08
66.50
77.62
88.57
97.87
104.55
108.08
108.27
105.27
99.62
92.22
84.13
76.37
69.59
64.07
59.83
56.78
54.83
53.87
53.68
54.06
54.92
56.50
59.38
64.14
71.00
79.49
88.49
96.57
102.58
105.92
106.62
104.99
101.30
95.65
88.07
78.70
67.87
56.13
44.06
32.24
21.23
11.73
4.53
0.37
-0.33
2.31
7.56
14.28
21.23
27.32
31.69
33.86
33.56
30.87
26.11
19.81
12.56
4.97
-2.37
-9.02
-14.76
-19.91
-25.42
-32.83
-43.74
-59.16
-78.81
-100.91
-122.58
-140.67
-152.79
-157.93
-156.55
-150.09
-140.38
-129.06
-117.56
-107.13
-98.83
-93.45
-91.07
-90.90
-91.30
-90.27
-86.30
-78.97
-69.22
-58.95
-50.12
-44.01
-40.63
-38.97
-37.52
-34.92
-30.41
-23.79
-15.13
-4.53
7.98
22.17
37.31
51.99
64.39
72.90
76.70
76.10
72.31
66.95
61.33
56.12
51.34
46.65
41.73
36.37
30.42
23.66
15.79
6.59
-3.80
-14.73
-25.21
-34.31
-41.64
-47.56
-53.04
-59.11
-66.30
-74.26
-81.88
-87.73
-90.76
-90.63
-87.81
-83.25
-77.89
-72.37
-66.86
-61.29
-55.47
-49.28
-42.70
-35.79
-28.63
-21.28
-13.75
-6.02
1.87
9.70
17.04
23.32
28.02
30.93
32.38
33.14
34.17
36.23
39.64
44.18
49.32
54.45
59.12
63.14
66.58
69.63
72.52
75.37
78.14
80.58
82.31
82.89
81.99
79.49
75.50
70.31
64.32
58.02
51.77
45.81
40.09
34.33
28.14
21.18
13.39
4.95
-3.78
-12.45
-20.83
-28.81
-36.27
-43.13
-49.39
-55.39
-61.78
-69.38
-78.61
-89.00
-98.83
-105.55
-106.59
-100.47
-87.49
-69.84
-50.71
-33.23
-19.51
-10.31
-5.30
-3.59
-4.20
-6.22
-8.72
-10.88
-12.03
-12.01
-11.28
-10.96
-12.49
-17.23
-25.99
-38.62
-53.71
-68.61
-79.95
-84.59
-80.73
-68.59
-50.39
-29.38
-8.72
9.54
24.76
37.23
47.58
56.30
63.59
69.72
75.16
80.61
86.61
93.18
99.63
104.74
107.15
105.95
101.01
93.10
83.61
74.04
65.45
58.19
51.92
45.95
39.74
33.12
26.33
19.69
13.27
6.75
-0.53
-9.32
-20.14
-33.19
-48.30
-65.00
-82.46
-99.45
-114.29
-125.17
-130.58
-129.89
-123.54
-112.87
-99.50
-84.73
-69.25
-53.35
-37.31
-21.72
-7.30
5.53
17.04
28.13
39.86
52.64
65.82
77.85
86.94
92.03
93.20
91.55
88.57
85.46
82.80
80.68
79.01
77.84
77.26
77.29
77.76
78.32
78.68
78.78
78.67
78.31
77.34
75.03
70.51
63.23
53.29
41.35
28.34
15.04
1.91
-10.87
-23.15
-34.69
-45.20
-54.68
-63.64
-73.07
-84.10
-97.43
-113.06
-130.19
-147.45
-163.23
-175.87
-183.89
-186.12
-182.11
-172.44
-158.79
-143.55
-128.90
-116.08
-104.99
-94.58
-83.70
-71.76
-59.03
-46.25
-34.04
-22.55
-11.48
-0.42
10.76
21.76
32.06
41.15
48.81
55.12
60.51
65.62
70.99
76.76
82.49
87.32
90.39
91.48
91.23
90.86
91.45
93.32
95.70
97.28
96.94
94.47
90.64
86.72
83.83
82.39
82.06
82.03
81.31
79.02
74.39
66.92
56.55
43.76
29.56
15.27
2.08
-9.36
-19.13
-28.01
-37.22
-48.17
-62.06
-79.38
-99.57
-120.73
-139.94
-154.17
-161.40
-161.48
-156.27
-148.69
-141.31
-135.32
-130.23
-124.65
-117.33
-107.91
-96.84
-84.87
-72.47
-59.66
-46.30
-32.44
-18.42
-4.79
7.97
19.62
30.17
39.76
48.64
57.03
65.10
72.60
78.86
82.77
83.32
80.14
73.91
66.09
58.30
51.53
45.79
40.34
34.22
26.80
17.97
7.92
-3.06
-14.60
-26.08
-36.51
-44.59
-49.32
-50.40
-48.56
-45.14
-41.40
-37.85
-34.02
-28.95
-21.88
-12.85
-2.76
7.12
15.75
22.89
29.07
35.24
42.15
49.96
58.12
65.70
71.85
76.07
78.31
78.71
77.37
74.25
69.31
62.82
55.59
48.80
43.64
40.74
39.86
39.92
39.46
37.21
32.63
26.04
18.45
11.14
5.07
0.61
-2.51
-4.94
-7.31
-9.94
-12.74
-15.28
-17.13
-18.04
-18.18
-17.97
-18.00
-18.65
-20.03
-22.00
-24.37
-27.13
-30.64
-35.53
-42.43
-51.69
-63.18
-76.20
-89.49
-101.41
-110.17
-114.30
-113.13
-107.09
-97.59
-86.38
-74.78
-63.14
-50.90
-37.26
-21.97
-5.76
9.87
23.35
33.84
41.46
47.15
52.09
57.12
62.49
67.91
72.84
76.82
79.78
82.02
84.06
86.35
89.08
92.16
95.31
98.21
100.55
101.91
101.81
99.88
96.13
91.20
86.28
82.71
81.33
82.15
84.31
86.54
87.73
87.25
85.05
81.41
76.63
70.90
64.32
56.94
48.87
40.31
31.49
22.58
13.68
4.78
-4.20
-13.28
-22.31
-30.91
-38.62
-45.12
-50.60
-55.79
-61.82
-69.79
-80.34
-93.40
-108.24
-123.69
-138.44
-151.30
-161.26
-167.60
-169.91
-168.18
-162.78
-154.31
-143.53
-131.16
-117.90
-104.44
-91.54
-79.90
-70.09
-62.36
-56.58
-52.28
-48.78
-45.43
-41.70
-37.32
-32.29
-26.72
-20.75
-14.43
-7.71
-0.57
6.91
14.42
21.52
27.73
32.63
35.92
37.46
37.26
35.65
33.40
31.68
31.87
35.13
41.92
51.76
63.33
74.86
84.84
92.37
97.37
100.27
101.58
101.54
100.05
96.90
92.11
86.07
79.41
72.61
65.73
58.41
50.20
40.83
30.47
19.51
8.34
-2.96
-14.51
-26.60
-39.46
-53.33
-68.44
-84.86
-102.16
-118.96
-133.03
-141.89
-143.94
-139.34
-130.09
-119.30
-109.73
-102.70
-97.73
-93.12
-87.11
-78.75
-68.28
-56.72
-45.27
-34.67
-25.18
-16.69
-9.11
-2.52
2.87
6.98
10.14
13.00
16.34
20.47
25.05
29.19
31.85
32.47
31.15
28.44
24.83
20.36
14.72
7.61
-0.60
-8.78
-15.19
-18.05
-16.09
-8.74
3.76
20.50
40.01
60.36
79.42
95.33
106.94
114.06
117.39
118.08
117.27
115.66
113.41
110.21
105.50
98.78
89.90
79.32
67.97
57.11
47.78
40.49
34.98
30.38
25.57
19.40
10.82
-1.08
-16.95
-36.80
-59.62
-83.17
-104.41
-120.40
-129.41
-131.57
-128.63
-123.17
-117.47
-112.69
-108.81
-105.07
-100.54
-94.61
-87.11
-78.12
-67.89
-56.75
-45.13
-33.57
-22.59
-12.51
-3.38
5.02
12.99
20.61
27.69
33.75
38.25
40.80
41.28
39.89
37.10
33.61
30.32
28.37
28.88
32.73
40.14
50.48
62.31
73.90
83.89
91.79
98.09
103.85
110.09
117.23
124.89
132.04
137.39
139.71
138.15
132.43
122.92
110.58
96.69
82.48
68.73
55.67
43.21
31.16
19.55
8.45
-2.25
-13.20
-25.48
-40.22
-58.06
-78.91
-101.87
-125.39
-147.37
-165.23
-176.24
-178.19
-170.28
-153.75
-131.86
-108.85
-88.45
-72.72
-61.63
-53.73
-47.25
-41.15
-35.31
-30.17
-26.00
-22.42
-18.51
-13.22
-5.84
3.65
14.67
26.25
37.30
46.80
53.99
58.48
60.28
59.75
57.53
54.34
50.82
47.49
44.78
43.06
42.64
43.61
45.75
48.43
50.80
52.10
51.98
50.65
48.70
46.86
45.57
44.86
44.33
43.44
41.62
38.53
34.12
28.63
22.42
15.89
9.32
2.85
-3.52
-9.90
-16.34
-22.96
-29.96
-37.73
-46.90
-58.03
-71.33
-86.17
-101.09
-114.05
-123.02
-126.57
-124.20
-116.39
-104.39
-89.96
-75.20
-62.27
-52.98
-48.26
-47.74
-49.79
-52.03
-52.36
-49.74
-44.34
-37.26
-29.61
-21.93
-14.00
-5.07
5.49
17.95
31.96
46.68
61.02
73.81
83.95
90.67
93.68
93.26
90.16
85.32
79.66
73.82
68.23
63.10
58.53
54.49
50.70
46.68
41.94
36.11
29.24
21.75
14.36
7.77
2.47
-1.42
-4.10
-6.07
-7.88
-10.04
-12.84
-16.28
-20.07
-23.73
-26.80
-29.01
-30.45
-31.49
-32.70
-34.56
-37.28
-40.81
-44.81
-48.90
-52.80
-56.41
-59.84
-63.29
-66.99
-70.99
-75.20
-79.32
-82.95
-85.67
-87.17
-87.23
-85.77
-82.78
-78.35
-72.78
-66.58
-60.50
-55.25
-51.33
-48.91
-47.91
-48.19
-49.71
-52.62
-56.96
-62.58
-68.95
-75.26
-80.71
-84.57
-86.44
-86.21
-84.13
-80.71
-76.68
-72.68
-68.92
-64.91
-59.59
-51.74
-40.67
-26.64
-10.98
4.46
17.90
28.30
35.46
39.84
42.10
42.59
41.23
37.57
31.14
21.78
9.82
-4.03
-18.92
-34.20
-49.61
-65.24
-81.31
-97.94
-115.01
-132.12
-148.66
-163.75
-176.25
-184.81
-188.06
-185.10
-175.75
-160.80
-141.72
-120.21
-97.64
-74.72
-51.35
-26.99
-1.02
26.71
55.54
84.04
110.27
132.26
148.58
158.73
163.17
163.09
159.93
154.99
149.19
142.98
136.49
129.60
122.03
113.37
103.23
91.39
78.04
63.91
50.22
38.34
29.30
23.32
19.65
16.79
13.12
7.55
0.11
-8.14
-15.44
-19.94
-20.34
-16.01
-7.01
6.13
22.64
41.58
61.88
82.35
101.81
119.19
133.71
144.89
152.62
157.08
158.68
158.05
156.00
153.36
150.85
148.92
147.65
146.76
145.73
143.93
140.69
135.45
127.81
117.60
105.00
90.59
75.26
60.04
45.74
32.56
19.99
6.87
-8.15
-26.09
-47.21
-70.81
-95.33
-118.53
-137.83
-150.72
-155.23
-150.37
-136.55
-115.66
-90.65
-64.91
-41.42
-22.10
-7.67
2.20
8.30
11.48
12.28
10.98
7.69
2.66
-3.52
-9.65
-14.09
-15.01
-10.98
-1.46
12.94
30.47
48.79
65.38
78.09
85.28
85.77
78.93
64.80
44.47
20.22
-4.78
-27.24
-44.71
-56.20
-62.35
-64.85
-65.70
-66.60
-68.61
-72.17
-77.26
-83.40
-89.65
-94.61
-96.64
-94.32
-86.75
-73.80
-55.95
-34.16
-9.54
16.55
42.55
66.63
86.88
101.76
110.46
113.15
110.89
105.20
97.50
88.86
79.92
71.18
63.17
56.62
52.32
50.86
52.52
57.17
64.30
73.21
83.07
93.07
102.51
110.81
117.48
122.07
124.16
123.43
119.86
113.78
105.90
97.02
87.76
78.45
69.13
59.86
50.97
43.06
36.86
32.88
31.17
31.33
32.60
34.14
35.17
35.12
33.64
30.68
26.45
21.35
15.66
9.31
1.65
-8.29
-21.27
-37.19
-54.71
-71.28
-83.76
-89.23
-85.86
-73.34
-52.83
-26.68
2.07
30.19
54.57
72.60
82.54
83.86
77.26
64.42
47.48
28.60
9.56
-8.15
-23.44
-35.59
-44.43
-50.53
-55.20
-59.90
-65.61
-72.14
-78.06
-81.19
-79.59
-72.38
-60.04
-44.09
-26.44
-8.76
7.78
22.50
35.09
45.40
53.44
59.39
63.54
66.26
67.91
68.76
69.02
68.90
68.60
68.25
67.90
67.56
67.31
67.29
67.68
68.45
69.26
69.54
68.73
66.46
62.76
57.88
52.12
45.60
38.31
30.27
21.69
13.04
4.80
-2.73
-9.65
-16.29
-22.97
-29.76
-36.39
-42.44
-47.58
-51.77
-55.29
-58.57
-62.07
-66.16
-71.12
-77.08
-84.14
-92.25
-101.10
-110.07
-118.25
-124.73
-128.77
-130.19
-129.37
-127.12
-124.44
-122.18
-120.83
-120.50
-120.88
-121.31
-120.92
-118.86
-114.56
-108.05
-99.96
-91.33
-83.13
-75.81
-69.18
-62.62
-55.61
-48.03
-40.27
-32.88
-26.15
-19.97
-13.85
-7.38
-0.48
6.50
12.97
18.48
22.98
26.82
30.60
34.82
39.54
44.35
48.41
50.79
50.72
47.81
42.16
34.26
24.91
15.07
5.89
-1.47
-5.93
-6.78
-3.97
1.71
8.83
15.70
20.90
23.56
23.37
20.30
14.37
5.62
-5.77
-19.30
-34.13
-49.29
-63.99
-77.85
-90.87
-103.21
-114.98
-126.07
-136.25
-145.12
-152.16
-156.59
-157.43
-153.82
-145.47
-132.97
-117.74
-101.51
-85.67
-70.73
-56.27
-41.43
-25.46
-8.18
9.90
27.85
44.66
59.49
71.68
80.77
86.59
89.40
90.09
90.04
90.77
93.41
98.27
104.76
111.76
118.12
123.14
126.62
128.72
129.49
128.74
126.00
120.84
113.06
102.82
90.44
76.22
60.40
43.14
24.84
6.20
-11.85
-28.48
-43.33
-56.68
-69.28
-81.82
-94.54
-106.85
-117.46
-124.68
-127.08
-123.83
-114.92
-101.11
-83.67
-64.23
-44.50
-26.04
-10.07
2.76
12.50
19.76
25.50
30.74
36.34
42.84
50.39
58.66
66.86
73.75
77.98
78.48
74.95
68.03
59.15
49.94
41.69
34.83
29.00
23.32
16.90
9.16
-0.01
-10.31
-21.15
-31.74
-41.22
-48.82
-54.10
-57.21
-58.95
-60.48
-62.79
-66.17
-69.83
-72.24
-71.65
-66.96
-58.08
-45.95
-32.04
-17.69
-3.78
9.36
21.65
32.93
42.78
50.71
56.41
60.04
62.29
64.08
66.21
68.99
72.16
75.03
76.93
77.46
76.74
75.31
73.89
72.94
72.53
72.28
71.57
69.90
67.12
63.47
59.45
55.56
52.16
49.40
47.34
45.98
45.24
44.84
44.20
42.55
39.22
34.07
27.70
21.45
16.90
15.29
16.98
21.27
26.62
31.21
33.65
33.41
31.00
27.60
24.61
23.10
23.53
25.83
29.68
34.79
41.06
48.43
56.65
65.08
72.77
78.66
82.00
82.60
80.83
77.39
72.99
67.96
62.20
55.27
46.65
36.02
23.41
9.21
-5.86
-20.84
-34.68
-46.28
-54.80
-59.81
-61.61
-61.26
-60.43
-60.91
-64.04
-70.20
-78.62
-87.60
-95.04
-99.11
-98.67
-93.49
-84.09
-71.50
-57.00
-41.84
-27.17
-13.98
-2.90
5.75
12.07
16.47
19.48
21.60
23.07
23.89
23.85
22.79
20.69
17.79
14.55
11.47
8.87
6.78
5.04
3.39
1.75
0.27
-0.74
-1.00
-0.46
0.61
1.75
2.43
2.34
1.43
-0.13
-2.11
-4.34
-6.89
-10.02
-14.12
-19.53
-26.38
-34.48
-43.22
-51.63
-58.44
-62.31
-62.10
-57.14
-47.52
-34.13
-18.53
-2.62
11.80
23.45
31.76
36.81
39.16
39.46
38.31
36.09
33.13
29.75
26.29
23.11
20.45
18.37
16.80
15.69
15.17
15.56
17.20
20.26
24.50
29.29
33.83
37.36
39.43
39.92
38.92
36.64
33.23
28.82
23.55
17.58
11.10
4.34
-2.50
-9.19
-15.52
-21.34
-26.62
-31.46
-36.05
-40.40
-44.22
-46.79
-47.18
-44.49
-38.26
-28.62
-16.27
-2.27
12.21
26.14
38.69
49.23
57.33
62.71
65.31
65.23
62.80
58.55
53.17
47.40
41.84
36.84
32.49
28.66
25.17
21.97
19.12
16.67
14.59
12.63
10.46
7.87
4.91
1.94
-0.47
-1.82
-1.86
-0.68
1.31
3.56
5.49
6.62
6.55
5.01
1.82
-3.07
-9.58
-17.53
-26.59
-36.32
-46.04
-54.88
-61.84
-65.92
-66.41
-63.07
-56.29
-46.97
-36.27
-25.35
-15.13
-6.21
1.10
6.73
10.79
13.50
15.25
16.48
17.70
19.27
21.34
23.69
25.79
26.90
26.34
23.79
19.38
13.69
7.50
1.44
-4.22
-9.59
-14.99
-20.68
-26.68
-32.78
-38.65
-44.05
-48.82
-52.95
-56.44
-59.35
-61.81
-64.11
-66.69
-69.95
-73.94
-78.25
-81.95
-83.89
-83.09
-79.09
-72.13
-62.99
-52.66
-42.05
-31.75
-22.03
-12.94
-4.57
2.87
9.01
13.54
16.32
17.56
17.80
17.76
18.09
19.14
20.87
22.91
24.78
26.12
26.77
26.82
26.38
25.50
24.08
21.95
19.00
15.32
11.21
7.07
3.30
0.10
-2.49
-4.62
-6.59
-8.77
-11.51
-15.13
-19.77
-25.35
-31.48
-37.51
-42.52
-45.52
-45.69
-42.60
-36.46
-28.03
-18.49
-9.02
-0.51
6.65
12.51
17.34
21.40
24.78
27.50
29.52
30.90
31.76
32.27
32.55
32.67
32.66
32.54
32.31
31.94
31.36
30.44
29.08
27.20
24.81
21.97
18.80
15.47
12.12
8.95
6.03
3.38
0.88
-1.68
-4.52
-7.77
-11.41
-15.33
-19.43
-23.69
-28.24
-33.21
-38.62
-44.09
-48.88
-51.93
-52.24
-49.12
-42.52
-33.01
-21.64
-9.67
1.79
11.92
20.37
27.10
32.32
36.23
38.99
40.66
41.29
41.07
40.28
39.30
38.44
37.88
37.57
37.31
36.90
36.17
35.07
33.61
31.88
29.93
27.84
25.68
23.52
21.36
19.12
16.66
13.82
10.51
6.76
2.72
-1.40
-5.40
-9.18
-12.76
-16.26
-19.90
-23.84
-28.13
-32.56
-36.65
-39.65
-40.74
-39.32
-35.21
-28.81
-20.93
-12.60
-4.70
2.20
7.89
12.37
15.66
17.77
18.68
18.48
17.48
16.19
15.13
14.72
15.11
16.19
17.72
19.41
21.08
22.65
24.03
25.11
25.68
25.57
24.66
23.01
20.80
18.24
15.44
12.42
9.05
5.24
0.97
-3.63
-8.39
-13.12
-17.67
-21.98
-26.06
-29.99
-33.95
-38.25
-43.16
-48.80
-54.82
-60.34
-64.10
-64.82
-61.68
-54.71
-44.77
-33.24
-21.55
-10.72
-1.23
6.88
13.74
19.38
23.72
26.59
27.91
27.78
26.51
24.54
22.36
20.34
18.73
17.58
16.75
16.03
15.23
14.23
13.03
11.68
10.11
8.15
5.55
2.13
-2.11
-6.88
-11.67
-15.93
-19.23
-21.35
-22.38
-22.66
-22.69
-23.08
-24.35
-26.83
-30.51
-35.04
-39.73
-43.70
-46.07
-46.12
-43.46
-38.13
-30.60
-21.68
-12.37
-3.60
3.90
9.76
13.92
16.48
17.65
17.64
16.65
14.98
13.00
11.14
9.68
8.67
7.84
6.74
4.94
2.31
-0.95
-4.34
-7.34
-9.63
-11.26
-12.58
-14.05
-16.05
-18.70
-21.89
-25.40
-28.99
-32.47
-35.72
-38.66
-41.30
-43.75
-46.26
-49.17
-52.72
-56.83
-60.97
-64.15
-65.07
-62.52
-55.70
-44.45
-29.22
-10.90
9.46
30.88
52.55
73.81
94.07
112.74
129.23
143.06
153.95
161.92
167.25
170.36
171.71
171.70
170.68
168.85
166.32
163.04
158.80
153.28
146.22
137.55
127.51
116.63
105.56
94.84
84.72
75.07
65.53
55.66
45.12
33.78
21.63
8.80
-4.46
-17.79
-30.68
-42.63
-53.21
-62.26
-69.83
-76.12
-81.22
-84.93
-86.76
-86.14
-82.67
-76.46
-68.10
-58.58
-49.01
-40.28
-32.87
-26.87
-22.06
-18.17
-15.13
-13.13
-12.57
-13.82
-16.98
-21.77
-27.56
-33.52
-38.94
-43.21
-45.83
-46.35
-44.40
