1675442839
64
0
0
0
0
0
0
0
0
0
0
0
0.01
0.01
0
-0.03
-0.05
-0.05
0
0.13
0.36
0.66
1.01
1.37
1.72
2.06
2.4
2.79
3.24
3.8
4.42
5.06
5.66
6.2
6.68
7.15
7.68
8.31
9.14
10.09
11.04
11.88
12.56
13.14
13.76
14.65
15.96
17.91
20.32
22.9
25.38
27.58
29.57
31.68
34.32
37.81
42.54
48.15
54.1
59.83
64.97
69.58
74.14
79.34
85.71
93.76
103
112.62
121.73
129.77
136.75
143.3
150.75
157.77
166.64
177.95
191.79
206.97
220.57
228.25
225.36
208.53
176.87
132.76
80.05
23.07
-34.94
-92.44
-149.16
-205.23
-260.37
-313.74
-363.87
-409.83
-450.91
-486.5
-515.74
-537.23
-549.22
-549.96
-538.37
-514.21
-478.67
-433.88
-382.45
-327.02
-269.84
-212.63
-156.66
-102.95
-52.37
-5.9
35.58
71.43
101.35
125.5
144.38
158.69
169.15
176.37
180.75
182.57
182.07
179.51
175.23
169.65
163.18
156.15
148.81
141.3
133.69
126.02
118.33
110.69
103.16
95.8
88.68
81.83
75.25
68.95
62.95
57.25
51.86
46.78
42.03
37.59
33.45
29.61
26.07
22.81
19.83
17.11
14.67
12.48
10.54
8.83
7.35
6.07
4.97
4.05
3.27
2.62
2.09
1.65
1.3
1.01
0.79
0.61
0.47
0.37
0.29
0.25
0.21
0.18
0.12
0.06
-0.01
-0.06
-0.08
-0.07
-0.03
0.02
0.04
0.03
-0.03
-0.1
-0.16
-0.17
-0.12
-0.04
0.05
0.08
0.04
-0.09
-0.25
-0.38
-0.4
-0.28
-0.08
0.13
0.2
0.06
-0.27
-0.68
-1
-1.05
-0.78
-0.29
0.2
0.42
0.17
-0.49
-1.36
-2.03
-2.2
-1.74
-0.85
0.05
0.48
0.11
-0.98
-2.38
-3.47
-3.75
-3.07
-1.72
-0.28
0.66
0.71
-0.13
-1.72
-3.82
-6.05
-7.75
-7.96
-5.75
-0.74
6.3
13.58
18.88
20.61
18.74
14.58
10.21
7.31
6.46
6.98
7.68
7.55
6.33
4.49
2.84
1.97
2.01
2.58
2.99
2.68
1.55
0.03
-1.1
-1.19
-0.05
1.82
3.35
3.45
1.6
-1.96
-6.26
-10.18
-12.99
-14.53
-15.18
-15.52
-15.91
-16.23
-15.89
-14.09
-10.27
-4.53
2.27
8.7
13.4
15.7
15.89
14.81
13.28
11.37
8.51
3.99
-2.45
-10.35
-18.68
-26.33
-32.56
-36.94
-39.02
-38.04
-32.95
-23.26
-9.68
5.76
20.38
31.81
38.95
42.11
41.68
38.75
34.41
29.31
23.89
18.46
13.44
9.2
5.87
3.19
0.68
-2.2
-5.83
-10.24
-15.11
-19.96
-24.25
-27.49
-29.28
-29.14
-26.74
-21.83
-14.23
-3.83
9.25
24.46
40.62
56
68.66
76.91
79.91
77.88
71.96
63.76
54.83
46.21
38.43
31.57
25.55
20.29
15.87
12.54
10.59
10.13
10.92
12.35
13.66
14.25
13.94
13.11
12.45
12.69
14.27
17.17
20.93
24.85
28.3
31
33.32
36.2
41.06
49.25
61.55
77.75
96.58
116.06
134.09
149.03
159.92
166.57
169.3
168.7
165.33
159.55
151.32
140.14
125.04
104.71
77.91
43.86
2.8
-43.68
-92.75
-140.9
-184.87
-222.52
-253.43
-278.87
-301.15
-322.67
-345.08
-368.71
-392.42
-413.86
-429.71
-435.99
-428.67
-404.53
-362.76
-306.21
-241.77
-179.09
-127.97
-95.2
-82.53
-86.48
-100.19
-116.26
-129.04
-135.66
-135.4
-128.58
-115.6
-96.78
-72.83
-45.3
-16.54
10.9
35.08
55.19
71.52
85.08
96.88
107.44
116.64
123.91
128.7
130.8
130.56
128.71
126.08
123.15
119.87
115.6
109.45
100.55
88.4
72.98
54.76
34.49
13.15
-8.17
-28.23
-45.63
-58.97
-67.15
-69.73
-67.06
-60.23
-50.62
-39.55
-27.86
-15.96
-3.98
7.96
19.53
30.3
39.79
47.55
53.26
56.77
58.2
57.95
56.71
55.26
54.15
53.45
52.71
51.14
48.04
43.14
36.83
29.92
23.39
17.97
13.92
11.05
8.86
6.89
4.88
2.94
1.56
1.52
3.76
9.07
17.82
29.55
42.84
55.41
64.57
68.02
64.82
55.97
44.43
34.32
29.54
32.36
42.58
57.52
73.09
85.21
91.22
90.52
84.45
75.41
65.82
57.36
50.73
45.85
42.23
39.28
36.33
32.52
26.91
18.68
7.58
-5.65
-19.37
-31.52
-40.36
-45.09
-45.9
-43.65
-39.2
-33
-25.14
-15.64
-4.81
6.67
17.95
28.32
37.38
44.96
50.98
55.16
57.05
56.06
51.8
44.25
33.94
21.91
9.53
-1.79
-10.92
-17.26
-20.85
-22.17
-21.99
-21.04
-19.86
-18.84
-18.26
-18.34
-19.27
-21.16
-23.97
-27.72
-32.46
-38.43
-45.9
-54.88
-64.84
-74.53
-82.15
-85.78
-84.11
-76.99
-65.62
-52.2
-39.22
-28.66
-21.44
-17.24
-14.8
-12.33
-8.17
-1.19
8.89
21.48
35.42
49.37
62.23
73.43
82.88
90.72
96.97
101.4
103.55
103.08
100.03
94.91
88.52
81.63
74.65
67.59
60.23
52.38
44.08
35.53
27.01
18.66
10.48
2.55
-4.78
-10.77
-14.52
-15.22
-12.63
-7.16
0.18
8.12
15.52
21.58
25.9
28.41
29.19
28.44
26.43
23.5
20.02
16.31
12.64
9.16
5.96
3.02
0.27
-2.45
-5.29
-8.36
-11.63
-14.98
-18.19
-21.08
-23.61
-25.87
-28.07
-30.42
-33.14
-36.39
-40.22
-44.47
-48.64
-51.9
-53.13
-51.28
-45.75
-36.62
-24.71
-11.34
2.1
14.57
25.55
35.06
43.35
50.67
57
62.1
65.61
67.31
67.23
65.67
63.05
59.68
55.7
51.09
45.76
39.78
33.39
27
21
15.66
10.98
6.8
2.85
-1.15
-5.39
-9.95
-14.85
-20.05
-25.45
-30.81
-35.65
-39.3
-40.89
-39.63
-35.12
-27.58
-17.91
-7.44
2.46
10.85
17.39
22.25
25.87
28.6
30.56
31.62
31.64
30.57
28.54
25.83
22.79
19.68
16.71
14
11.57
9.37
7.26
5.1
2.75
0.15
-2.67
-5.64
-8.66
-11.7
-14.82
-18.18
-21.99
-26.45
-31.57
-37.07
-42.29
-46.33
-48.19
-47.08
-42.65
-35.16
-25.43
-14.62
-3.98
5.46
13.07
18.67
22.44
24.67
25.64
25.51
24.38
22.36
19.63
16.49
13.29
10.29
7.62
5.22
2.94
0.6
-1.96
-4.78
-7.87
-11.13
-14.49
-17.85
-21.17
-24.43
-27.65
-30.91
-34.32
-38.04
-42.21
-46.88
-51.86
-56.63
-60.37
-62.13
-61.11
-56.96
-49.97
-41.04
-31.38
-22.27
-14.61
-8.87
-5.1
-3.04
-2.38
-2.74
-3.79
-5.1
-6.18
-6.49
-5.58
-3.14
0.85
6.15
12.34
18.9
25.31
31.17
36.23
40.31
43.33
45.23
46
45.62
44.15
41.63
38.11
33.58
28.06
21.6
14.53
7.48
1.39
-2.68
-3.83
-1.71
3.44
10.71
18.88
26.73
33.4
38.47
41.92
43.92
44.67
44.33
43.01
40.88
38.16
35.1
31.91
28.7
25.48
22.2
18.84
15.4
11.89
8.35
4.79
1.19
-2.42
-6.02
-9.58
-13.04
-16.42
-19.74
-23.13
-26.77
-30.82
-35.36
-40.16
-44.69
-48.09
-49.43
-47.93
-43.26
-35.69
-26.01
-15.38
-4.98
4.21
11.66
17.23
21.11
23.63
25.12
25.81
25.8
25.12
23.82
21.93
19.61
17.03
14.33
11.66
9.06
6.51
3.96
1.38
-1.3
-4.07
-6.93
-9.88
-12.89
-15.95
-19.05
-22.2
-25.5
-29.09
-33.14
-37.67
-42.45
-46.88
-50.07
-51.07
-49.12
-43.99
-36.05
-26.22
-15.68
-5.58
3.23
10.31
15.56
19.11
21.16
21.9
21.53
20.21
18.13
15.52
12.62
9.66
6.84
4.29
2.08
0.18
-1.46
-2.92
-4.31
-5.68
-7.12
-8.71
-10.5
-12.53
-14.79
-17.2
-19.69
-22.24
-24.92
-27.75
-30.65
-33.28
-35.02
-35.07
-32.67
-27.41
-19.41
-9.37
1.6
12.25
21.52
28.76
33.78
36.79
38.25
38.59
38.1
36.85
34.79
31.87
28.19
23.99
19.61
15.35
11.35
7.6
4
0.48
-2.95
-6.17
-9.07
-11.56
-13.64
-15.36
-16.8
-18.01
-19.11
-20.32
-21.95
-24.22
-27.13
-30.19
-32.46
-32.75
-29.99
-23.67
-14.08
-2.32
10.09
21.57
31.02
37.93
42.32
44.59
45.17
44.43
42.66
40.08
36.94
33.52
30.06
26.69
23.5
20.45
17.48
14.5
11.41
8.14
4.71
1.18
-2.32
-5.65
-8.74
-11.6
-14.37
-17.21
-20.35
-24
-28.3
-33.28
-38.67
-43.92
-48.12
-50.18
-49.16
-44.59
-36.68
-26.37
-15.03
-4.06
5.45
12.96
18.46
22.28
24.82
26.39
27.16
27.17
26.47
25.1
23.16
20.78
18.08
15.19
12.27
9.37
6.61
4.01
1.61
-0.6
-2.68
-4.79
-7.07
-9.68
-12.67
-15.93
-19.3
-22.68
-26.12
-29.88
-34.19
-39.11
-44.23
-48.72
-51.48
-51.47
-48.15
-41.61
-32.6
-22.3
-11.99
-2.71
4.86
10.48
14.22
16.34
17.15
16.91
15.8
14.01
11.68
9
6.2
3.53
1.18
-0.7
-2.1
-3.09
-3.82
-4.41
-4.97
-5.62
-6.42
-7.47
-8.76
-10.21
-11.65
-12.89
-13.86
-14.7
-15.72
-17.31
-19.67
-22.6
-25.52
-27.44
-27.38
-24.65
-19.08
-11.16
-1.86
7.68
16.44
23.71
29.17
32.72
34.42
34.44
33.09
30.81
28.09
25.37
22.89
20.64
18.46
16.21
13.88
11.63
9.66
8.08
6.84
5.67
4.25
2.31
-0.27
-3.37
-6.75
-10.07
-13.07
-15.65
-17.98
-20.38
-23.33
-27.12
-31.68
-36.44
-40.33
-42.05
-40.47
-35.09
-26.19
-14.88
-2.7
8.81
18.52
25.94
31.16
34.67
37.03
38.63
39.66
40.11
39.89
38.9
37.18
34.83
32.12
29.29
26.59
24.13
21.94
19.91
17.87
15.65
13.2
10.64
8.29
6.62
6.12
7.04
9.21
11.97
14.28
15
13.25
8.78
2.09
-5.65
-12.92
-18.3
-20.97
-20.91
-18.94
-16.34
-14.36
-13.66
-14.16
-15.15
-15.77
-15.52
-14.58
-13.69
-13.74
-15.44
-18.92
-23.91
-29.79
-35.94
-41.8
-46.97
-51.02
-53.58
-54.33
-53.23
-50.51
-46.77
-42.74
-39.12
-36.36
-34.57
-33.6
-33.11
-32.78
-32.32
-31.52
-30.26
-28.45
-25.94
-22.44
-17.46
-10.38
-0.55
12.38
28.11
45.65
63.45
79.83
93.43
103.48
109.75
112.28
111.03
105.82
96.39
82.81
65.69
46.35
26.68
8.81
-5.38
-14.64
-18.65
-18.04
-14.12
-8.52
-2.73
2.18
5.71
7.81
8.73
8.87
8.6
8.22
7.87
7.46
6.67
5.03
2.13
-2.13
-7.42
-12.98
-17.86
-21.17
-22.38
-21.42
-18.66
-14.79
-10.63
-6.9
-4.01
-1.97
-0.43
1.21
3.43
6.37
9.63
12.44
13.95
13.62
11.39
7.75
3.38
-1.07
-5.3
-9.35
-13.39
-17.58
-21.87
-26.05
-29.91
-33.38
-36.58
-39.73
-43.04
-46.63
-50.48
-54.51
-58.62
-62.57
-65.93
-67.97
-67.75
-64.44
-57.64
-47.67
-35.52
-22.62
-10.44
-0.06
7.94
13.53
16.95
18.57
18.72
17.62
15.44
12.38
8.62
4.38
-0.18
-4.93
-9.81
-14.78
-19.77
-24.71
-29.41
-33.64
-37.16
-39.7
-41.03
-40.96
-39.43
-36.54
-32.65
-28.26
-23.95
-20.19
-17.2
-14.89
-12.81
-10.31
-6.65
-1.25
6.13
15.22
25.3
35.32
44.28
51.45
56.65
60.12
62.32
63.64
64.19
63.8
62.19
59.18
54.87
49.56
43.73
37.81
32.08
26.7
21.71
17.15
13.09
9.58
6.61
3.98
1.33
-1.77
-5.59
-10.12
-15.05
-19.94
-24.45
-28.52
-32.27
-35.85
-39.09
-41.42
-42.03
-40.13
-35.39
-28.03
-18.81
-8.77
1.04
9.81
17.02
22.48
26.22
28.49
29.52
29.51
28.58
26.81
24.35
21.5
18.73
16.49
15.08
14.51
14.47
14.52
14.21
13.29
11.71
9.61
7.22
4.73
2.23
-0.38
-3.3
-6.83
-11.2
-16.41
-22.12
-27.59
-31.81
-33.72
-32.54
-27.98
-20.37
-10.59
0.21
10.77
20.1
27.54
32.84
36.12
37.74
38.09
37.48
36
33.65
30.42
26.41
21.96
17.5
13.46
10.03
7.19
4.63
1.97
-1.1
-4.69
-8.77
-13.19
-17.77
-22.36
-26.86
-31.24
-35.51
-39.81
-44.36
-49.37
-54.95
-60.81
-66.31
-70.47
-72.42
-71.71
-68.58
-63.86
-58.63
-53.75
-49.6
-46.07
-42.89
-39.86
-36.97
-34.19
-31.29
-27.68
-22.53
-15
-4.53
9.04
25.33
43.43
61.86
78.59
91.37
98.19
97.89
90.6
77.8
61.93
45.64
31.05
19.34
10.69
4.58
0.21
-3.01
-5.27
-6.32
-5.68
-2.92
2.07
8.92
16.85
24.87
32.12
37.99
42.17
44.61
45.36
44.54
42.34
39.1
35.24
31.28
27.57
24.3
21.37
18.57
15.63
12.42
8.95
5.37
1.84
-1.51
-4.62
-7.44
-9.99
-12.28
-14.31
-16.11
-17.74
-19.33
-21.14
-23.53
-26.81
-31.07
-35.95
-40.53
-43.46
-43.39
-39.36
-31.3
-20.08
-7.28
5.32
16.27
24.8
30.78
34.52
36.43
36.83
35.94
33.92
30.95
27.31
23.27
19.04
14.76
10.5
6.29
2.14
-1.91
-5.84
-9.64
-13.28
-16.76
-20.09
-23.3
-26.47
-29.65
-32.9
-36.29
-39.85
-43.65
-47.73
-51.92
-55.74
-58.34
-58.66
-55.75
-49.2
-39.31
-27.06
-13.83
-0.99
10.4
19.8
27.07
32.39
36.07
38.46
39.82
40.27
39.79
38.33
35.92
32.69
28.98
25.11
21.42
18.07
15.13
12.58
10.37
8.5
6.89
5.42
3.89
2.1
-0.11
-2.81
-5.98
-9.58
-13.6
-18
-22.64
-27.24
-31.22
-33.81
-34.18
-31.66
-26.01
-17.6
-7.35
3.47
13.62
22.13
28.54
32.86
35.42
36.65
36.87
36.25
34.83
32.65
29.83
26.61
23.29
20.14
17.32
14.81
12.54
10.35
8.19
6.06
4.02
2.09
0.22
-1.71
-3.78
-5.97
-8.12
-10.1
-11.86
-13.64
-15.78
-18.6
-22.04
-25.49
-27.9
-28.07
-25.17
-19.07
-10.44
-0.48
9.42
18.13
24.97
29.71
32.47
33.51
33.07
31.38
28.69
25.29
21.52
17.68
13.97
10.5
7.25
4.23
1.4
-1.22
-3.63
-5.91
-8.18
-10.58
-13.2
-15.97
-18.73
-21.24
-23.33
-24.97
-26.32
-27.7
-29.54
-32.19
-35.73
-39.84
-43.73
-46.28
-46.33
-43.13
-36.55
-27.18
-16.15
-4.81
5.6
14.16
20.4
24.27
26.09
26.43
25.88
24.98
24.04
23.2
22.43
21.67
20.86
19.94
18.85
17.52
15.89
14.03
12.01
9.95
7.86
5.64
3.11
0.17
-3.19
-6.81
-10.4
-13.74
-16.73
-19.51
-22.39
-25.66
-29.41
-33.3
-36.58
-38.22
-37.32
-33.41
-26.68
-17.95
-8.48
0.49
8.01
13.62
17.3
19.31
19.99
19.6
18.24
16
13.06
9.76
6.57
3.95
2.17
1.29
1.07
1.17
1.26
1.09
0.63
-0.07
-0.87
-1.63
-2.34
-3.08
-4.04
-5.52
-7.77
-10.95
-15.03
-19.69
-24.37
-28.25
-30.41
-30.02
-26.6
-20.2
-11.51
-1.6
8.28
17.1
24.21
29.45
32.92
34.78
35.14
34.05
31.62
28.14
24.13
20.2
16.9
14.52
13.01
12.08
11.26
10.19
8.7
6.82
4.76
2.71
0.75
-1.21
-3.38
-6.01
-9.31
-13.33
-18.02
-23.13
-28.23
-32.65
-35.62
-36.37
-34.39
-29.62
-22.51
-13.95
-4.96
3.51
10.82
16.65
20.94
23.71
25.01
24.89
23.5
21.11
18.1
14.94
12.02
9.59
7.66
6.08
4.58
2.96
1.15
-0.78
-2.7
-4.5
-6.18
-7.84
-9.6
-11.59
-13.88
-16.56
-19.64
-23
-26.37
-29.2
-30.76
-30.31
-27.38
-21.98
-14.63
-6.2
2.32
10.16
16.85
22.22
26.31
29.2
30.93
31.47
30.81
29.02
26.28
22.89
19.15
15.31
11.58
8.03
4.74
1.71
-1.1
-3.79
-6.49
-9.38
-12.58
-16.14
-20.02
-24.08
-28.2
-32.26
-36.21
-39.92
-43.18
-45.56
-46.46
-45.3
-41.68
-35.62
-27.63
-18.57
-9.4
-0.88
6.62
13.07
18.64
23.45
27.41
30.26
31.67
31.49
29.82
27.05
23.74
20.42
17.42
14.84
12.58
10.49
8.45
6.47
4.61
2.92
1.33
-0.32
-2.26
-4.68
-7.68
-11.27
-15.4
-19.99
-24.92
-29.92
-34.46
-37.79
-39.04
-37.49
-32.87
-25.49
-16.26
-6.42
2.83
10.57
16.41
20.35
22.66
23.67
23.63
22.67
20.92
18.55
15.84
13.15
10.82
9.03
7.77
6.85
6.01
5.04
3.9
2.67
1.5
0.5
-0.35
-1.16
-2.15
-3.46
-5.21
-7.47
-10.27
-13.63
-17.43
-21.33
-24.67
-26.55
-26.05
-22.56
-16.08
-7.28
2.68
12.49
21.05
27.75
32.46
35.31
36.59
36.52
35.24
32.95
29.95
26.63
23.41
20.62
18.38
16.6
15.01
13.31
11.28
8.86
6.23
3.63
1.29
-0.73
-2.52
-4.28
-6.23
-8.49
-11.15
-14.23
-17.81
-21.99
-26.77
-31.84
-36.56
-39.93
-40.91
-38.74
-33.3
-25.11
-15.27
-5.04
4.5
12.73
19.43
24.64
28.44
30.83
31.72
31.15
29.35
26.75
23.87
21.14
18.79
16.81
15.06
13.38
11.7
10.05
8.43
6.78
4.88
2.48
-0.66
-4.57
-9.08
-13.85
-18.49
-22.74
-26.57
-30.2
-34.02
-38.32
-43.17
-48.19
-52.61
-55.36
-55.4
-52.03
-45.18
-35.5
-24.15
-12.5
-1.76
7.31
14.42
19.7
23.42
25.89
27.35
27.99
28.06
27.77
27.36
26.92
26.38
25.58
24.37
22.72
20.74
18.7
16.81
15.18
13.76
12.29
10.48
8.09
5.04
1.45
-2.4
-6.19
-9.73
-13
-16.21
-19.68
-23.68
-28.2
-32.88
-37
-39.68
-40.06
-37.55
-32.07
-24.01
-14.27
-4.02
5.57
13.63
19.65
23.62
25.79
26.48
26
24.56
22.34
19.56
16.48
13.4
10.55
8.07
6.04
4.48
3.43
2.88
2.74
2.81
2.81
2.47
1.66
0.43
-1.05
-2.57
-3.98
-5.27
-6.58
-8.15
-10.27
-13.15
-16.83
-21.07
-25.29
-28.63
-30.13
-28.97
-24.76
-17.75
-8.71
1.18
10.68
18.78
24.86
28.76
30.66
30.94
30.02
28.25
25.93
23.31
20.66
18.19
16.06
14.34
12.95
11.75
10.59
9.4
8.11
6.68
5.05
3.1
0.74
-2.01
-5.03
-8.12
-11.08
-13.83
-16.4
-18.95
-21.7
-24.87
-28.6
-32.87
-37.39
-41.52
-44.32
-44.75
-42.03
-35.92
-26.93
-16.12
-4.81
5.81
15.03
22.6
28.58
33.14
36.4
38.39
39.22
39.08
38.24
37.03
35.69
34.38
33.16
32.1
31.27
30.78
30.69
30.92
31.24
31.33
30.75
29.15
26.35
22.4
17.63
12.56
7.63
3.11
-1.1
-5.45
-10.6
-17.19
-25.59
-35.72
-46.91
-58.03
-67.77
-75.01
-79.25
-80.68
-80.13
-78.63
-77.03
-75.62
-74.17
-72.06
-68.67
-63.6
-56.74
-48.23
-38.35
-27.41
-15.76
-3.82
7.95
19.05
29.05
37.64
44.69
50.28
54.5
57.37
58.64
57.77
54.09
47.09
36.85
24.16
10.49
-2.4
-12.93
-20.18
-24.07
-25.38
-25.44
-25.78
-27.62
-31.48
-36.89
-42.46
-46.27
-46.55
-42.4
-34.18
-23.4
-12.06
-1.88
6.36
12.84
18.39
23.79
29.32
34.7
39.31
42.68
44.71
45.71
46.08
46.1
45.78
44.92
43.36
41.14
38.56
36.1
34.17
32.95
32.22
31.46
30.03
27.43
23.51
18.54
13.12
7.93
3.41
-0.27
-3.38
-6.38
-9.76
-13.86
-18.72
-24
-29
-32.79
-34.41
-33.12
-28.67
-21.38
-12.06
-1.84
8.12
16.86
23.74
28.45
31.03
31.72
30.95
29.21
27.01
24.77
22.79
21.16
19.85
18.63
17.25
15.51
13.3
10.67
7.78
4.77
1.72
-1.43
-4.79
-8.46
-12.44
-16.56
-20.6
-24.33
-27.62
-30.5
-33.16
-35.88
-38.93
-42.4
-46.03
-49.24
-51.08
-50.56
-46.87
-39.78
-29.74
-17.81
-5.36
6.32
16.34
24.37
30.48
34.99
38.21
40.37
41.54
41.73
40.97
39.3
36.87
33.88
30.57
27.18
23.94
20.98
18.37
16.06
13.96
11.86
9.61
6.99
3.92
0.36
-3.56
-7.64
-11.67
-15.47
-19.06
-22.61
-26.42
-30.76
-35.63
-40.61
-44.83
-47.13
-46.45
-42.2
-34.51
-24.27
-12.82
-1.6
8.24
16.06
21.69
25.3
27.19
27.7
27.16
25.92
24.25
22.38
20.41
18.27
15.89
13.18
10.25
7.29
4.56
2.24
0.3
-1.43
-3.22
-5.27
-7.66
-10.3
-13.02
-15.65
-18.09
-20.34
-22.52
-24.91
-27.77
-31.31
-35.42
-39.64
-43.1
-44.72
-43.52
-38.93
-31.05
-20.61
-8.79
3.05
13.72
22.39
28.66
32.58
34.57
35.21
35.19
35.01
34.9
34.77
34.3
33.14
31.13
28.36
25.18
22.05
19.3
17.1
15.38
13.88
12.36
10.61
8.51
6.03
3.18
0
-3.44
-7
-10.53
-13.95
-17.28
-20.69
-24.41
-28.51
-32.64
-36.02
-37.53
-36.09
-31.14
-22.91
-12.4
-1.05
9.69
18.75
25.54
30
32.36
33.03
32.46
31.1
29.29
27.28
25.19
23.03
20.77
18.4
15.99
13.66
11.55
9.75
8.27
6.94
5.52
3.73
1.34
-1.68
-5.15
-8.74
-12.11
-15.07
-17.69
-20.24
-23.15
-26.78
-31.26
-36.28
-41.1
-44.61
-45.64
-43.27
-37.18
-27.85
-16.43
-4.43
6.67
15.79
22.46
26.73
28.99
29.74
29.44
28.37
26.78
24.87
22.84
20.86
18.99
17.17
15.25
13.12
10.82
8.6
6.73
5.36
4.42
3.56
2.35
0.5
-2.05
-5.08
-8.24
-11.22
-13.88
-16.3
-18.74
-21.53
-24.95
-29.03
-33.45
-37.42
-39.88
-39.7
-36.19
-29.35
-19.96
-9.33
1.12
10.3
17.64
23.01
26.6
28.64
29.3
28.74
27.17
24.91
22.34
19.83
17.58
15.6
13.77
11.9
9.84
7.56
5.11
2.62
0.16
-2.27
-4.79
-7.59
-10.81
-14.48
-18.45
-22.53
-26.56
-30.48
-34.4
-38.51
-42.92
-47.58
-52.13
-55.95
-58.25
-58.16
-55.09
-48.9
-40.08
-29.67
-19.09
-9.68
-2.45
2.09
3.91
3.34
1.02
-2.03
-4.26
-3.88
0.75
10.37
24.26
40.23
55.27
66.48
72.04
71.48
65.3
54.45
39.9
22.81
4.79
-11.94
-25.01
-32.8
-35.12
-33.19
-28.96
-23.95
-18.64
-12.72
-5.9
1.25
7.26
10.48
10.1
6.87
2.77
0
-0.07
2.55
6.85
11.6
16.12
20.49
25.2
30.58
36.32
41.61
45.55
47.69
48.33
48.39
48.87
50.32
52.51
54.6
55.7
55.46
54.41
53.74
54.75
58.17
63.77
70.44
76.58
80.6
81.24
77.66
69.4
56.4
38.99
17.93
-5.63
-30.26
-54.49
-76.87
-96.04
-110.73
-119.91
-122.96
-119.95
-111.67
-99.59
-85.45
-70.84
-56.96
-44.35
-33.06
-22.71
-12.84
-3.1
6.55
15.84
24.37
31.82
38.19
43.73
48.8
53.51
57.69
60.85
62.5
62.37
60.48
57.04
52.22
46.01
38.31
29.1
18.65
7.64
-3.09
-12.77
-21
-27.89
-34.04
-40.35
-47.81
-57.24
-69.15
-83.58
-100.1
-117.85
-135.59
-151.73
-164.57
-172.56
-174.69
-170.59
-160.55
-145.13
-124.98
-100.7
-73.17
-43.8
-14.62
12.04
34.26
51.27
63.65
73.05
81.3
89.57
97.93
105.54
111.36
114.82
116.2
116.41
116.49
117.04
117.86
118.09
116.68
113
107.31
100.69
94.55
89.89
86.64
83.56
78.78
70.7
58.84
44.11
28.41
13.75
1.42
-8.42
-16.46
-23.57
-30.25
-36.41
-41.61
-45.45
-47.95
-49.54
-50.88
-52.59
-55.04
-58.26
-61.98
-65.8
-69.3
-72.2
-74.39
-75.9
-76.83
-77.24
-77.09
-76.31
-74.86
-72.82
-70.41
-67.85
-65.25
-62.43
-58.82
-53.61
-45.89
-35.09
-21.29
-5.45
10.65
24.91
35.46
41.28
42.44
40.05
35.78
31.48
28.69
28.42
31
36.06
42.65
49.46
55.18
58.85
60.18
59.5
57.53
55.03
52.56
50.4
48.63
47.25
46.22
45.32
44.16
42.12
38.57
33.11
25.76
17.05
7.86
-0.81
-8.04
-13.25
-16.31
-17.62
-18.09
-18.96
-21.33
-25.84
-32.31
-39.76
-46.86
-52.44
-56
-57.73
-58.2
-57.74
-56.13
-52.66
-46.64
-37.98
-27.5
-16.74
-7.27
0.02
5.33
9.85
15.03
21.86
30.33
39.45
47.81
54.22
58.22
60.12
60.65
60.48
59.91
58.85
57.17
54.85
52.03
48.82
45.13
40.72
35.53
29.94
24.74
20.85
18.61
17.39
15.56
10.98
1.86
-12.38
-30.73
-50.69
-69.09
-83.03
-90.8
-92.21
-88.3
-80.67
-70.63
-58.82
-45.34
-30.4
-14.86
-0.38
10.9
17.19
17.66
12.77
4.09
-6.26
-16.22
-24.34
-29.99
-33.26
-34.71
-34.88
-34.07
-32.37
-29.83
-26.8
-23.95
-22.06
-21.65
-22.72
-24.78
-27.24
-29.88
-33.11
-37.7
-44.41
-53.28
-63.37
-72.98
-80.14
-83.32
-82.01
-76.9
-69.55
-61.8
-55.03
-49.65
-45.16
-40.5
-34.76
-27.67
-19.69
-11.7
-4.61
1.03
4.82
6.5
5.85
3.12
-0.55
-3.04
-1.84
4.95
17.65
34.58
52.69
68.58
79.67
84.75
83.95
78.2
68.68
56.61
43.16
29.6
17.1
6.57
-1.56
-7.38
-11.31
-13.9
-15.62
-16.69
-17.12
-16.74
-15.4
-13.02
-9.7
-5.77
-1.68
1.96
4.6
5.91
5.83
4.68
3.06
1.61
0.74
0.59
1
1.67
2.39
3.17
4.14
5.49
7.25
9.19
10.87
11.76
11.34
9.33
5.76
0.91
-4.81
-10.96
-17.29
-23.57
-29.6
-35.07
-39.53
-42.53
-43.8
-43.34
-41.46
-38.63
-35.28
-31.61
-27.67
-23.37
-18.72
-13.85
-9.12
-4.96
-1.83
-0.08
0.15
-0.99
-3.1
-5.61
-8.01
-9.97
-11.37
-12.3
-12.96
-13.54
-14.24
-15.24
-16.73
-18.83
-21.48
-24.42
-27.18
-29.28
-30.45
-30.81
-30.73
-30.59
-30.44
-29.76
-27.6
-22.98
-15.35
-4.96
7.23
19.87
31.83
42.47
51.75
59.89
66.98
72.77
76.67
78.05
76.62
72.6
66.64
59.64
52.56
46.2
41.24
38.21
37.55
39.38
43.35
48.5
53.35
56.29
56.1
52.42
45.81
37.52
28.83
20.61
13.05
5.86
-1.27
-8.33
-14.82
-19.99
-23.25
-24.36
-23.54
-21.27
-18.07
-14.32
-10.23
-5.82
-1
4.35
10.34
16.89
23.68
30.17
35.76
40.06
43
44.91
46.27
47.48
48.55
49.23
49.08
47.98
46.16
44.24
42.86
42.32
42.32
42.08
40.78
38.04
34.15
29.88
26.02
23.06
21.12
20.37
21.28
24.48
30.16
37.3
43.54
45.82
41.76
31
15.58
-0.73
-14.09
-22.05
-24.32
-22.4
-18.56
-14.81
-12.4
-11.74
-12.78
-15.3
-18.96
-23.24
-27.34
-30.29
-31.15
-29.35
-24.83
-18.17
-10.34
-2.49
4.39
9.75
13.64
16.65
19.46
22.46
25.39
27.37
27.11
23.36
15.44
3.6
-10.87
-26.18
-40.45
-52.18
-60.43
-64.76
-65.28
-62.39
-56.67
-48.6
-38.88
-28.35
-17.94
-8.44
-0.35
5.79
9.87
12.27
14.41
17.49
22.18
28.35
35.54
43.19
50.25
55.75
59.19
61.77
64.29
67.41
71.35
76.55
83.17
89.68
93.67
92.92
88.13
80.16
69.99
57.92
44.49
30.15
14.26
-4.1
-25.38
-47.5
-70.24
-95
-124.29
-158.96
-190.01
-206
-198.98
-181.61
-159.63
-136.96
-112.32
-88.6
-68.73
-54.5
-47.27
-47.42
-54.18
-63.75
-73.57
-82.23
-89.57
-95.16
-98.85
-102.16
-107.67
-117.79
-131.98
-149.22
-167.96
-187
-205
-220.99
-234.85
-246.35
-254.25
-255
-245.3
-222.88
-187.65
-141.31
-87.27
-30.41
23.96
71.01
107.7
132.25
144.43
145.59
138.83
128.26
118
111.16
109.19
111.94
117.86
125.01
131.89
138.05
143.86
149.8
155.89
161.42
165.23
166.24
163.9
158.3
149.92
139.28
126.65
112.03
95.38
76.78
56.59
35.28
13.27
-9.23
-32.09
-54.96
-76.95
-96.61
-112.24
-122.64
-127.63
-128.31
-126.58
-124.36
-122.83
-122.14
-121.6
-120.27
-117.41
-112.75
-106.18
-97.52
-86.36
-72.2
-54.7
-33.71
-9.28
18.51
49.36
82.52
116.45
148.89
177.24
199.28
213.75
220.51
220.35
214.59
204.79
192.71
180.33
169.58
161.68
156.79
153.89
151.22
146.97
139.99
130.09
118.2
105.76
94.23
84.99
78.96
76.44
76.9
78.88
80.33
79.79
76.25
69.43
60.05
49.8
40.85
35.3
34.23
37.38
44.43
53.8
63.31
71.23
77.11
81.65
86.27
91.72
97.97
106.34
117.12
129.22
140.32
147.57
148.33
141.56
127.93
110.29
95.25
87.63
88.21
93.51
98.22
97.53
89.59
74.73
41.44
-10.51
-71.43
-127.66
-170.75
-198.71
-217.98
-232.6
-244.63
-255.37
-261.01
-259.76
-252.45
-241.94
-231.06
-221.6
-213.5
-206.37
-200.01
-192.16
-181.79
-169.51
-157.45
-147.52
-140.61
-136.05
-132.83
-130.12
-125.15
-115.23
-98.37
-74.18
-43.02
-6.01
35.17
79.5
120.91
152.54
170.34
175.39
171.47
163.1
154.1
147.2
143.55
142.5
143.13
143.81
142.69
137.04
124.91
106.11
82.03
54.65
25.26
-5.49
-38.34
-70.27
-100.58
-129.29
-155.9
-179.38
-198.85
-214.21
-225.83
-234.29
-240.29
-245.25
-250.49
-255.81
-259.73
-260.55
-257.2
-249.32
-237
-220.76
-202.03
-182.58
-162.6
-140.75
-115.27
-84.83
-49.07
-8.54
34.96
81.3
123.32
151.48
160.36
151.96
133.67
113.65
97.99
88.95
85.03
82
76.2
66.88
54.52
40.91
28.58
20.49
18.5
22.32
29.19
35.71
39.32
39.14
36.74
33.53
33.43
40.62
57.7
84.31
117.69
153.1
184.34
204.77
208.68
193.27
159.36
111.84
58.77
9.69
-27.08
-47.09
-50.83
-43.05
-30.37
-19.24
-14.21
-17.24
-27.94
-44.31
-63.61
-82.69
-98.1
-106.28
-104.52
-92.06
-70.86
-45.5
-21.86
-5.18
1.82
-0.1
-7.21
-14.51
-17.7
-14.59
-5.46
7.49
21.27
33.19
41.57
45.91
46.66
44.79
41.45
37.56
33.8
30.48
27.79
25.87
24.87
24.91
26.03
28.02
30.47
32.82
34.47
35.02
34.33
32.62
30.31
27.79
25.15
22.06
17.87
11.91
3.87
-6
-17.02
-28.28
-38.97
-48.49
-56.34
-61.9
-64.41
-63.17
-57.96
-49.26
-38.31
-26.64
-15.64
-6.11
1.83
8.47
14.16
19.02
22.87
25.38
26.29
25.59
23.55
20.65
17.43
14.29
11.46
8.92
6.49
4
1.31
-1.55
-4.46
-7.3
-10.03
-12.75
-15.57
-18.67
-22.16
-26.14
-30.64
-35.54
-40.44
-44.49
-46.62
-45.69
-40.96
-32.34
-20.58
-7.02
6.73
19.2
29.42
37
42.02
44.84
45.87
45.41
43.71
41.01
37.63
34.03
30.65
27.77
25.33
23.03
20.41
17.18
13.4
9.38
5.46
1.84
-1.53
-4.85
-8.35
-12.2
-16.46
-21.04
-25.76
-30.4
-34.64
-37.94
-39.53
-38.62
-34.68
-27.69
-18.03
-6.62
5.34
16.64
26.4
34.19
39.98
43.87
45.92
46.59
46.24
45.02
42.85
39.75
35.92
31.73
27.47
23.22
19.73
17.53
16.34
15.17
12.92
9.04
3.63
-2.72
-9.33
-14.31
-16.34
-15.78
-14.54
-14.78
-17.57
-22.34
-27.22
-29.72
-25.5
-11.09
14.44
49.14
89.35
130.67
169.09
201.64
215.43
202.74
166.67
120.37
77.44
44.19
19.23
-1.44
-20.42
-37.54
-49.17
-51.53
-45.25
-33.77
-20.96
-10.62
-4.54
-2.44
-2.69
-2.23
0.9
6.36
11.2
13.02
8.89
-2.94
-22.78
-49.68
-81.33
-115.49
-150.57
-185.42
-210.77
-218.94
-208.02
-183.47
-153.72
-124.7
-98.7
-75.68
-57.97
-42.85
-29.88
-19.44
-11.59
-5.57
-0.18
5.17
11.39
17.79
24.01
28.31
29.35
26.86
21.71
15.32
8.87
3
-2.29
-6.77
-11.34
-16.89
-23.7
-31.34
-39.05
-46.24
-52.64
-58.34
-63.11
-67.16
-70.48
-72.59
-72.61
-69.62
-63.08
-53.03
-40.21
-25.62
-10.63
3.51
16
26.56
35.35
42.68
48.84
53.99
58.1
60.99
62.45
62.44
61.1
58.85
56.22
53.65
51.34
49.17
46.86
44.1
40.74
36.83
32.6
28.24
23.87
19.49
15.01
10.39
5.57
0.51
-4.86
-10.51
-16.25
-21.45
-25.21
-26.48
-24.52
-19.22
-11.22
-1.73
7.91
16.61
23.79
29.31
33.24
35.66
36.65
36.26
34.66
32.14
29.08
25.83
22.61
19.51
16.5
13.57
10.7
7.94
5.34
2.99
0.97
-0.69
-1.99
-3.08
-4.18
-5.62
-7.7
-10.59
-14.22
-18.25
-21.99
-24.6
-25.24
-23.33
-18.75
-11.9
-3.68
4.83
12.66
19.17
24.16
27.68
29.89
30.85
30.53
28.95
26.34
23.18
20.03
17.35
15.21
13.31
11.15
8.32
4.73
0.68
-3.25
-6.46
-8.58
-9.64
-9.99
-10.36
-11.56
-14.26
-18.76
-24.74
-31.36
-37.35
-41.41
-42.5
-40.14
-34.51
-26.34
-16.7
-6.7
2.71
10.88
17.49
22.56
26.26
28.79
30.27
30.7
30.09
28.53
26.17
23.26
20.1
16.88
13.61
10.17
6.44
2.59
-1.09
-4.3
-6.95
-9.01
-10.79
-12.8
-15.51
-19.23
-23.6
-28.06
-32.2
-35.7
-37.85
-38.06
-36.08
-31.92
-26.36
-19.77
-12.7
-5.99
-0.21
5.06
10.21
15.18
19.44
21.71
22.04
21
19.39
18.55
20.69
27.26
38.12
51.57
64.37
74.78
82.28
87.55
85.65
75.19
59.17
43.18
36.82
37.91
42.72
48.96
52.39
51.88
48.56
43.68
37.9
31.41
23.82
16.55
11.24
8.6
8.56
10.59
13.41
15.55
15.96
13.81
10.03
5.8
1.82
-1.48
-3.74
-5.09
-6.14
-7.82
-11.35
-17.02
-24.56
-33.38
-42.38
-50.14
-55.39
-57.43
-56.24
-52.64
-47.6
-42.25
-37.81
-35.18
-34.94
-37.27
-41.85
-47.76
-53.54
-57.42
-57.93
-54.48
-47.54
-38.49
-28.95
-20.23
-12.95
-7.01
-1.99
2.47
6.42
9.7
12.18
13.93
15.33
16.88
18.96
21.64
24.67
27.57
29.84
31.11
31.18
30.03
27.79
24.77
21.35
17.99
15
12.47
10.21
7.84
4.93
1.17
-3.6
-9.39
-16.07
-23.43
-31.18
-38.99
-46.51
-53.49
-59.79
-65.3
-69.91
-73.29
-74.88
-74.06
-70.26
-63.33
-53.67
-42.28
-30.58
-20.05
-11.82
-6.35
-3.36
-2.04
-1.36
-0.52
0.93
2.98
5.46
8.13
10.82
13.38
15.6
17.24
18.03
17.85
16.78
15.07
13.1
11.2
9.58
8.24
6.9
5.05
2.05
-2.58
-8.83
-16.05
-22.91
-27.93
-29.95
-28.65
-24.63
-19.08
-13.16
-7.52
-2.14
3.43
9.61
16.44
23.44
29.82
34.82
37.98
39.28
38.94
37.35
34.86
31.72
28.11
24.19
20.13
16.08
12.19
8.6
5.43
2.82
0.91
-0.15
-0.33
0.23
1.12
1.7
1.19
-1.09
-5.46
-11.65
-18.72
-25.24
-29.6
-30.51
-27.46
-20.83
-11.81
-1.98
7.1
14.36
19.3
21.97
22.79
22.26
20.82
18.76
16.2
13.1
9.36
4.95
-0.06
-5.4
-10.7
-15.63
-20.02
-23.83
-27.16
-30.12
-32.78
-35.11
-37.04
-38.55
-39.64
-40.38
-40.87
-41.21
-41.54
-42.08
-43.08
-44.68
-46.77
-48.74
-49.59
-48.14
-43.55
-35.61
-24.97
-12.96
-1.1
9.36
17.74
23.98
28.33
31.15
32.72
33.24
32.98
32.3
31.54
30.99
30.7
30.56
30.38
30.03
29.5
28.93
28.45
28.1
27.77
27.17
26.02
24.08
21.38
18.14
14.72
11.49
8.61
6
3.31
0.04
-4.27
-9.82
-16.36
-23.1
-28.82
-32.11
-31.81
-27.46
-19.45
-9.05
2.06
12.19
20.11
25.26
27.67
27.81
26.32
23.86
20.97
18.08
15.48
13.31
11.58
10.22
9.07
7.95
6.73
5.4
4.06
2.86
1.94
1.28
0.76
0.22
-0.36
-0.85
-0.99
-0.6
0.24
1.15
1.52
0.71
-1.73
-5.9
-11.52
-17.87
-23.92
-28.43
-30.24
-28.55
-23.28
-15.16
-5.54
4
12.16
18.24
22.29
24.84
26.55
27.92
29.08
29.84
29.88
28.92
26.91
24.01
20.51
16.76
13.08
9.73
6.95
4.87
3.51
2.72
2.15
1.4
0.13
-1.77
-4.16
-6.75
-9.24
-11.55
-13.8
-16.3
-19.27
-22.64
-25.94
-28.24
-28.44
-25.58
-19.2
-9.59
2.27
14.93
26.91
37.09
44.95
50.54
54.21
56.35
57.16
56.69
54.96
52.15
48.56
44.54
40.26
35.68
30.61
24.86
18.37
11.22
3.64
-3.95
-10.96
-16.61
-20.19
-21.42
-20.64
-18.88
-17.59
-17.99
-20.69
-25.47
-31.5
-37.81
-43.58
-48.2
-51.17
-51.89
-49.74
-44.34
-35.92
-25.43
-14.55
-5.2
1
3.19
1.55
-2.92
-8.77
-14.63
-19.51
-22.97
-24.9
-25.4
-24.66
-22.91
-20.49
-17.9
-15.63
-14.11
-13.56
-13.97
-15.06
-16.36
-17.26
-17.26
-16.2
-14.41
-12.74
-12.36
-14.29
-19.07
-26.45
-35.4
-44.3
-51.32
-54.98
-54.54
-50.26
-43.19
-34.76
-26.23
-18.35
-11.48
-5.78
-1.46
1.27
2.5
2.98
4.02
6.94
12.44
20.2
28.97
37.21
43.83
48.45
51.34
52.98
53.73
53.69
52.89
51.39
49.42
47.23
44.99
42.67
40.04
36.78
32.62
27.42
21.22
14.3
7.03
-0.16
-7.04
-13.64
-20.27
-27.37
-35.2
-43.6
-51.8
-58.58
-62.61
-62.84
-58.89
-51.14
-40.58
-28.55
-16.37
-5.06
4.7
12.57
18.44
22.41
24.66
25.47
25.14
24.01
22.34
20.4
18.4
16.59
15.12
14.03
13.28
12.71
12.2
11.63
10.97
10.16
9.13
7.81
6.2
4.47
2.85
1.59
0.71
-0.09
-1.33
-3.56
-7.08
-11.74
-16.89
-21.43
-24.08
-23.65
-19.44
-11.44
-0.51
11.81
23.71
33.59
40.46
44.11
44.98
43.89
41.69
39.04
36.37
33.82
31.35
28.75
25.78
22.34
18.52
14.67
11.29
8.85
7.54
7.24
7.45
7.47
6.61
4.44
0.89
-3.67
-8.63
-13.38
-17.54
-21.17
-24.73
-28.9
-34.16
-40.51
-47.21
-52.86
-55.79
-54.59
-48.62
-38.36
-25.46
-12.27
-1.2
6.13
9.48
10.11
10.28
12.37
17.82
26.48
36.66
45.88
51.98
54.07
52.78
49.79
46.89
45.17
44.68
44.66
44.14
42.47
39.55
35.63
30.98
25.51
18.89
10.76
1.15
-9.38
-19.82
-29.08
-36.52
-42.12
-46.52
-50.58
-54.85
-59.2
-62.75
-64.18
-62.34
-56.76
-47.87
-36.78
-24.91
-13.4
-2.9
6.39
14.37
20.87
25.55
28.14
28.77
28.05
26.94
26.29
26.49
27.39
28.42
29.03
28.95
28.19
26.93
25.28
23.22
20.68
17.74
14.76
12.25
10.73
10.37
10.89
11.58
11.65
10.59
8.45
5.78
3.4
1.95
1.63
2.09
2.77
3.24
3.56
4.28
6.21
9.98
15.74
23.04
31
38.64
45.11
49.88
52.61
53.05
50.86
45.57
36.74
24.2
8.22
-10.32
-30.07
-49.4
-66.63
-80.19
-88.81
-91.72
-88.96
-81.54
-71.36
-60.7
-51.48
-44.64
-39.82
-35.75
-30.97
-24.49
-16.22
-6.86
2.39
10.3
15.75
17.85
16.07
10.34
1.24
-9.94
-21.39
-31.22
-37.86
-40.41
-38.74
-33.39
-25.28
-15.42
-4.66
6.45
17.64
28.85
40.14
51.51
62.86
73.93
84.27
93.29
100.41
105.23
107.67
108.05
106.93
104.94
102.55
99.73
95.82
89.54
79.28
63.62
41.88
14.45
-17.19
-50.88
-84.24
-115.12
-141.72
-162.61
-176.75
-183.71
-183.92
-178.84
-170.68
-161.8
-153.92
-147.66
-142.58
-137.67
-132.03
-125.28
-117.74
-110.13
-103.26
-97.78
-94.05
-92.06
-91.48
-91.67
-91.73
-90.67
-87.59
-81.77
-72.71
-60.1
-44.01
-25.08
-4.7
15.03
31.78
43.75
50.36
52.47
52
50.99
50.84
51.93
54
56.81
60.57
65.9
73.22
82.2
91.61
99.75
105.1
106.8
104.68
99.02
90.51
80.5
71.31
66.17
68.54
80.76
102.9
132.3
164.3
193.55
215.48
227.28
228.19
219.36
203.5
184.29
165.69
150.95
141.76
137.82
137.14
137.03
135.13
130.24
122.28
112.06
100.64
89.15
78.76
70.65
66.27
67.06
73.85
86.32
102.81
120.56
136.53
148.08
153.2
150.8
140.76
123.66
100.39
72.04
39.58
4.16
-32.63
-69.04
-102.49
-129.95
-149.08
-159.71
-164.04
-166.24
-170.13
-177.28
-188.02
-200.19
-210.33
-215.68
-215.82
-211.92
-206.72
-201.98
-198
-197.44
-201.87
-210.66
-221.47
-231.84
-238.99
-242.67
-242.89
-239.6
-238.12
-242.34
-252.03
-263.62
-273.45
-278.03
-278.88
-278.15
-277.41
-283.93
-301.69
-327.93
-355.08
-376.01
-385.32
-385.86
-382.7
-338.24
-237.83
-96.23
52.92
181.91
264.79
314.75
342.22
353.37
351.68
338.02
312.14
278.02
242.6
211.38
188.49
171.24
156.8
143.95
127.77
105.13
77.24
48.51
23.27
5.64
-5.57
-11.95
-14.8
-18.31
-26.15
-38.88
-54.06
-68.19
-77.32
-81.21
-79.85
-73.06
-62.04
-48.34
-32.67
-15.02
4.49
25.59
45.71
63.37
78.53
92.02
104.68
114.49
117.77
111.41
100.68
87.56
73.6
57.6
40.43
23.02
5.84
-10.82
-26.69
-41.54
-55.91
-69.42
-81.17
-90.01
-95.87
-99.84
-103.34
-107.39
-112.21
-117.68
-122.28
-123.88
-120.37
-110.67
-94.74
-73.25
-47.74
-21.27
1.26
15.06
17.62
10.8
0.78
-3.92
4.21
28.45
66.55
111.89
156.95
196.2
227.49
251.1
268.11
278.99
283.47
281.33
273.25
261.25
248.01
235.76
225.23
215.38
203.97
188.86
169.3
146.56
123.68
104.33
91.31
85.32
84.77
86.48
86.96
83.72
75.98
64.74
52.05
40.09
30.3
22.94
17.28
12.03
6.03
-1.35
-10.07
-19.61
-29.18
-38.07
-45.68
-51.6
-55.55
-57.47
-57.55
-56.32
-54.52
-53
-52.43
-53.24
-55.59
-59.54
-65.21
-72.9
-83.07
-96.03
-111.46
-127.99
-143.09
-153.68
-157.12
-152.36
-140.57
-124.86
-108.98
-95.72
-85.8
-77.98
-70.11
-60.66
-49.62
-38.36
-28.65
-21.44
-16.39
-12.17
-7.45
-1.59
5.13
12.02
18.83
26.06
34.71
45.62
58.81
73.4
88.03
101.38
112.52
120.9
126.08
127.59
124.99
117.96
106.62
91.66
74.49
57.18
42.16
31.57
26.48
26.42
29.48
33.06
35.12
34.96
33.15
30.77
28.39
25.64
21.57
15.42
7.24
-2.12
-11.45
-19.77
-26.44
-31.13
-33.57
-33.77
-32.23
-30.14
-29.08
-30.39
-34.36
-39.93
-45
-47.31
-45.35
-39.09
-30.13
-21.31
-15.78
-16.06
-23.16
-36.29
-53.16
-70.9
-87.02
-100.23
-110.53
-118.76
-125.93
-132.53
-138.45
-143.05
-145.57
-145.2
-141.16
-132.59
-118.69
-99.05
-74.07
-45.29
-15.36
12.49
35.34
51.37
60.35
63.46
62.6
59.55
55.29
49.94
43.24
35.21
26.67
19.07
13.97
12.19
13.37
16.08
18.45
19.04
17.33
13.77
9.31
5
1.65
-0.13
0.23
3.29
9.47
18.77
30.53
43.47
56.01
66.76
74.95
80.58
84.29
86.97
89.31
91.47
93.03
93.21
91.21
86.65
79.86
71.82
63.84
56.98
51.68
47.49
43.35
37.99
30.5
20.56
8.56
-4.73
-18.43
-31.83
-44.5
-56.26
-67.12
-77.14
-86.36
-94.66
-101.63
-106.61
-108.75
-107.38
-102.26
-93.81
-83.02
-71.1
-59.1
-47.6
-36.67
-26.13
-16
-6.71
0.95
6.21
8.83
9.31
8.76
8.44
9.18
11.12
13.76
16.31
18.11
18.91
18.77
17.81
16.07
13.32
9.26
3.71
-3.27
-11.32
-19.86
-28.17
-35.52
-41.13
-44.31
-44.46
-41.29
-34.91
-25.91
-15.21
-3.87
7.13
17.11
25.64
32.5
37.59
40.84
42.31
42.23
41.04
39.22
37.19
35.15
33.09
30.9
28.5
25.93
23.24
20.39
17.21
13.43
8.8
3.26
-3
-9.73
-16.66
-23.73
-31.03
-38.72
-46.76
-54.81
-62.28
-68.43
-72.65
-74.62
-74.4
-72.35
-68.85
-64.1
-57.93
-49.94
-39.74
-27.32
-13.29
1.12
14.35
25.09
32.67
37.38
40.19
42.32
44.61
47.18
49.48
50.83
50.96
50.31
49.96
51
53.89
58.17
62.6
65.82
66.86
65.47
61.82
56.24
48.94
40.09
30.19
20.23
11.59
5.53
2.55
2.03
2.45
1.93
-0.93
-6.59
-14.37
-22.79
-30.05
-34.61
-35.57
-32.69
-26.36
-17.34
-6.55
5.05
16.52
26.98
35.61
41.74
44.85
44.71
41.47
35.73
28.58
21.39
15.49
11.68
9.9
9.16
7.95
4.87
-0.71
-8.24
-16.17
-22.31
-24.53
-21.2
-11.62
3.88
23.85
46.06
67.84
86.77
101.26
110.9
116.39
118.99
120
120.23
120.01
119.53
119.08
119.23
120.39
122.44
124.35
124.51
121.41
114.55
104.91
94.74
86.6
82.2
81.58
83.12
84.37
83.29
79.24
73.27
67.56
64.61
66.33
73.85
87.47
106.81
130.84
157.66
184.38
207.52
223.89
231.69
231.23
224.85
215.98
207.76
201.95
198.59
196.43
193.75
189.05
181.31
169.95
154.61
135.15
111.73
84.94
55.73
25.09
-6.33
-38.57
-72.3
-108.62
-148.4
-191.72
-237.25
-282.16
-322.57
-354.62
-375.7
-385.36
-385.41
-378.96
-369.01
-357.13
-343.18
-325.87
-304.19
-278.39
-250.25
-222.36
-196.99
-175.13
-156.41
-139.66
-123.78
-108.38
-93.86
-80.98
-70.38
-62.2
-56.09
-51.47
-47.78
-44.76
-42.45
-41.12
-40.96
-41.88
-43.32
-44.36
-44.03
-41.82
-37.94
-33.39
-29.57
-27.76
-28.72
-32.49
-38.51
-45.92
-53.72
-60.84
-66.13
-68.48
-67.07
-61.64
-52.78
-41.88
-30.72
-20.95
-13.63
-9.01
-6.62
-5.58
-5.06
-4.53
-3.87
-3.14
-2.48
-1.86
-1.15
-0.18
1.11
2.61
4.14
5.56
6.83
8.13
9.69
11.73
14.35
17.41
20.58
23.33
25.13
25.54
24.39
21.8
18.2
14.23
10.63
8.19
7.65
9.52
13.96
20.51
28.12
35.35
40.73
43.15
42.24
38.28
32.02
24.28
15.65
6.27
-4.02
-15.39
-27.76
-40.44
-52.33
-62.3
-69.71
-74.81
-78.63
-82.54
-87.52
-93.78
-100.8
-107.66
-113.44
-117.38
-118.89
-117.44
-112.8
-105.3
-96.02
-86.46
-77.8
-70.12
-62.04
-51.35
-36.11
-15.72
8.66
34.6
59.32
80.65
97.27
108.64
114.56
115.11
110.76
102.62
92.44
82.2
73.55
67.3
63.36
61.03
59.52
58.29
57.15
56.03
54.71
52.81
49.85
45.64
40.38
34.71
29.36
24.75
20.83
17.09
12.88
7.8
1.96
-4.09
-9.54
-13.68
-16.06
-16.6
-15.55
-13.41
-10.83
-8.5
-6.96
-6.49
-7.06
-8.38
-10.09
-11.96
-13.89
-15.9
-17.96
-19.94
-21.63
-22.8
-23.36
-23.41
-23.14
-22.75
-22.3
-21.71
-20.83
-19.54
-17.83
-15.81
-13.59
-11.36
-9.27
-7.49
-6.21
-5.54
-5.47
-5.83
-6.29
-6.39
-5.56
-3.17
1.33
8.16
16.99
26.83
36.18
43.49
47.67
48.46
46.48
42.79
38.48
34.22
30.19
26.25
22.28
18.27
14.31
10.35
6.11
1.05
-5.29
-13.03
-21.76
-30.67
-38.76
-45.35
-50.24
-53.72
-56.4
-58.95
-61.94
-65.82
-70.95
-77.43
-84.79
-91.95
-97.19
-98.87
-96.02
-88.93
-79.05
-68.46
-58.92
-51.28
-45.4
-40.54
-36.04
-31.69
-27.77
-24.7
-22.8
-22.05
-22.25
-23.18
-24.65
-26.49
-28.4
-29.98
-30.73
-30.24
-28.39
-25.41
-21.89
-18.62
-16.35
-15.57
-16.29
-18.06
-20.01
-21.17
-20.87
-19
-16.08
-13.03
-10.66
-9.15
-7.79
-5.22
-0.13
8.05
18.67
30.12
40.54
48.68
54.44
58.69
62.53
66.52
70.17
72.26
71.52
67.44
60.64
52.66
45.37
40.27
38.12
38.87
41.85
46.16
50.85
55.07
58.09
59.33
58.49
55.61
51.18
45.98
40.93
36.76
33.8
31.9
30.46
28.67
25.77
21.32
15.36
8.44
1.48
-4.38
-8.07
-8.79
-6.18
-0.38
7.95
17.78
27.89
37.09
44.48
49.65
52.63
53.79
53.65
52.68
51.14
49.17
46.73
43.82
40.39
36.45
32.06
27.44
22.97
19.15
16.39
14.78
13.93
13.13
11.56
8.69
4.52
-0.39
-5.19
-9.1
-11.61
-12.71
-12.78
-12.48
-12.5
-13.41
-15.45
-18.37
-21.43
-23.58
-23.81
-21.44
-16.5
-9.69
-2.18
4.71
10.02
13.35
15.01
15.84
16.87
18.95
22.49
27.42
33.26
39.43
45.45
51.03
56.11
60.73
64.92
68.63
71.76
74.12
75.57
75.99
75.37
73.9
71.89
69.72
67.61
65.6
63.49
60.92
57.56
53.2
47.71
41.1
33.45
25.03
16.3
7.93
0.48
-5.87
-11.58
-17.49
-24.34
-32.15
-40.1
-46.81
-51.02
-52.31
-51.26
-49.17
-47.42
-46.96
-48.17
-51.08
-55.54
-61.33
-67.88
-74.21
-78.95
-80.89
-79.48
-75.25
-69.66
-64.49
-61.06
-59.74
-59.83
-59.95
-58.62
-54.7
-47.59
-37.16
-23.66
-7.69
9.66
26.8
41.77
52.71
58.53
59.34
56.56
52.41
49.22
48.6
51.04
55.8
61.37
65.9
67.77
65.96
60.24
51.15
39.8
27.59
15.86
5.63
-2.45
-8.12
-11.43
-12.64
-12.24
-10.85
-9.16
-7.73
-6.78
-6.18
-5.56
-4.59
-3.25
-1.91
-1.18
-1.63
-3.61
-7.05
-11.67
-17.02
-22.73
-28.44
-33.9
-38.81
-42.86
-45.69
-47.01
-46.57
-44.31
-40.35
-35.02
-28.85
-22.46
-16.52
-11.57
-7.93
-5.6
-4.34
-3.72
-3.33
-2.9
-2.31
-1.58
-0.75
0.26
1.68
3.81
6.84
10.72
15.09
19.35
22.85
25.09
25.85
25.19
23.42
20.95
18.21
15.6
13.42
11.83
10.78
9.96
8.89
7.04
4.19
0.54
-3.16
-5.82
-6.47
-4.57
-0.42
4.95
10.13
13.83
15.31
14.52
11.95
8.25
3.98
-0.55
-5.15
-9.56
-13.35
-15.98
-17.03
-16.39
-14.36
-11.49
-8.45
-5.73
-3.64
-2.29
-1.63
-1.5
-1.62
-1.7
-1.46
-0.73
0.38
1.6
2.51
2.71
1.96
0.21
-2.43
-5.64
-8.94
-11.64
-12.98
-12.28
-9.25
-4.17
2.08
8.28
13.27
16.45
17.91
18.36
18.77
19.9
21.97
24.58
26.95
28.19
27.61
24.92
20.27
14.23
7.72
1.85
-2.35
-4.29
-4.06
-2.45
-0.71
-0.03
-1.17
-4.15
-8.4
-13.04
-17.2
-20.29
-22.08
-22.75
-22.81
-23.02
-24.14
-26.63
-30.32
-34.34
-37.33
-37.88
-35.15
-29.2
-20.97
-11.94
-3.62
2.89
7.17
9.31
9.86
9.52
8.96
8.74
9.13
10.12
11.43
12.6
13.19
12.96
11.94
10.37
8.64
7.04
5.74
4.71
3.87
3.17
2.58
2.1
1.74
1.46
1.16
0.74
0.08
-0.93
-2.42
-4.47
-6.96
-9.58
-11.71
-12.64
-11.77
-8.94
-4.49
0.75
5.84
10.11
13.36
15.89
18.24
20.83
23.69
26.43
28.31
28.63
27.01
23.51
18.63
13.12
7.75
3.17
-0.17
-2.02
-2.43
-1.68
-0.41
0.58
0.53
-0.98
-3.85
-7.47
-10.97
-13.57
-14.87
-14.96
-14.36
-13.85
-14.18
-15.93
-19.25
-23.79
-28.7
-32.78
-34.89
-34.25
-30.81
-25.17
-18.37
-11.44
-5.11
0.34
4.92
8.75
11.9
14.3
15.89
16.72
16.99
17.01
17.03
17.15
17.23
16.99
16.19
14.78
12.93
11.02
9.38
8.21
7.4
6.64
5.61
4.08
2.06
-0.29
-2.73
-5.08
-7.28
-9.38
-11.55
-14.04
-17.06
-20.69
-24.64
-28.22
-30.46
-30.31
-27.13
-21
-12.77
-3.83
4.34
10.68
14.81
16.98
17.82
17.98
17.87
17.67
17.39
17.05
16.73
16.54
16.46
16.31
15.81
14.72
13.02
10.99
9.06
7.65
6.99
6.95
7.19
7.19
6.53
4.99
2.65
-0.2
-3.13
-5.77
-7.86
-9.37
-10.47
-11.47
-12.76
-14.7
-17.48
-21.04
-25.05
-28.86
-31.64
-32.62
-31.3
-27.67
-22.2
-15.72
-9.13
-3.18
1.72
5.54
8.43
10.58
12.11
13.02
13.35
13.17
12.72
12.28
12.08
12.17
12.45
12.67
12.6
12.13
11.33
10.39
9.44
8.54
7.55
6.22
4.34
1.85
-1.07
-4.12
-6.91
-9.19
-10.81
-11.87
-12.55
-13.12
-13.85
-14.94
-16.52
-18.65
-21.34
-24.4
-27.5
-30.06
-31.35
-30.71
-27.75
-22.63
-15.98
-8.78
-2
3.66
7.95
10.94
12.84
13.85
14.14
13.9
13.44
13.13
13.25
13.85
14.69
15.35
15.44
14.82
13.65
12.3
11.19
10.54
10.32
10.28
10.03
9.22
7.61
5.18
2.08
-1.38
-4.8
-7.82
-10.18
-11.81
-12.86
-13.63
-14.57
-15.99
-17.98
-20.26
-22.2
-23.04
-22.12
-19.18
-14.51
-8.77
-2.83
2.56
7
10.41
12.97
14.91
16.34
17.29
17.75
17.76
17.46
17.08
16.8
16.7
16.65
16.44
15.81
14.68
13.17
11.55
10.15
9.12
8.38
7.65
6.59
5.01
2.92
0.53
-1.88
-4.07
-5.98
-7.66
-9.23
-10.8
-12.44
-14.18
-16.05
-18.06
-20.2
-22.22
-23.73
-24.2
-23.19
-20.51
-16.36
-11.25
-5.84
-0.76
3.58
6.98
9.39
10.8
11.27
10.9
9.9
8.59
7.32
6.35
5.84
5.77
6.02
6.4
6.69
6.71
6.36
5.65
4.7
3.69
2.76
1.95
1.15
0.17
-1.16
-2.89
-4.93
-7.08
-9.17
-11.1
-12.88
-14.59
-16.31
-18.08
-19.89
-21.72
-23.49
-25.08
-26.2
-26.44
-25.3
-22.39
-17.64
-11.4
-4.43
2.36
8.18
12.63
15.73
17.81
19.26
20.34
21.12
21.52
21.44
20.87
19.95
18.84
17.74
16.79
16.07
15.62
15.37
15.3
15.33
15.43
15.56
15.68
15.69
15.39
14.55
12.95
10.48
7.23
3.47
-0.42
-4.04
-7.06
-9.36
-11
-12.22
-13.36
-14.83
-16.88
-19.63
-22.93
-26.29
-29.04
-30.4
-29.83
-27.17
-22.78
-17.43
-12.03
-7.29
-3.55
-0.77
1.26
2.69
3.57
3.85
3.56
2.94
2.36
2.17
2.46
3.09
3.71
4.04
3.97
3.63
3.26
3.09
3.23
3.65
4.19
4.66
4.84
4.54
3.67
2.27
0.5
-1.38
-3.12
-4.56
-5.74
-6.86
-8.14
-9.78
-11.91
-14.52
-17.31
-19.77
-21.2
-20.91
-18.49
-14.02
-8.1
-1.63
4.45
9.51
13.34
16.02
17.76
18.7
18.91
18.41
17.38
16.08
14.88
14.07
13.72
13.66
13.57
13.09
12.03
10.46
8.7
7.15
6.1
5.58
5.33
4.94
4.01
2.4
0.2
-2.27
-4.67
-6.78
-8.59
-10.25
-11.99
-14.02
-16.43
-19.24
-22.35
-25.53
-28.38
-30.33
-30.73
-29.04
-25.05
-19.05
-11.79
-4.28
2.56
8.17
12.39
15.4
17.44
18.7
19.2
18.94
18
16.65
15.25
14.11
13.39
12.99
12.7
12.24
11.5
10.49
9.41
8.49
7.88
7.61
7.51
7.28
6.58
5.23
3.2
0.7
-1.96
-4.48
-6.74
-8.78
-10.74
-12.75
-14.86
-17.04
-19.26
-21.52
-23.77
-25.79
-27.14
-27.27
-25.65
-22.08
-16.83
-10.54
-4.04
2.02
7.29
11.71
15.33
18.14
19.92
20.41
19.39
16.97
13.57
9.84
6.46
3.89
2.32
1.6
1.45
1.57
1.74
1.85
1.91
1.94
1.94
1.85
1.56
0.98
0.04
-1.24
-2.74
-4.31
-5.81
-7.19
-8.5
-9.86
-11.48
-13.52
-16.08
-19.16
-22.59
-26.01
-28.83
-30.36
-29.95
-27.23
-22.27
-15.58
-8
-0.43
6.41
12.09
16.48
19.65
21.71
22.76
22.89
22.27
21.17
19.93
18.87
18.19
17.93
17.93
18
17.96
17.75
17.34
16.76
15.99
15.05
13.95
12.8
11.69
10.7
9.79
8.81
7.62
6.19
4.7
3.41
2.6
2.33
2.42
2.49
2.04
0.69
-1.72
-4.99
-8.56
-11.63
-13.24
-12.63
-9.41
-3.7
3.85
12.22
20.28
27.05
31.85
34.52
35.34
34.93
33.98
32.97
31.91
30.33
27.53
22.89
16.26
8.02
-1.09
-10.22
-18.72
-26.13
-32.18
-36.63
-39.24
-39.87
-38.59
-35.82
-32.25
-28.74
-26.05
-24.66
-24.67
-25.83
-27.58
-29.32
-30.58
-31.16
-31.17
-30.94
-30.81
-31.01
-31.5
-32.07
-32.32
-31.86
-30.34
-27.55
-23.43
-18.07
-11.75
-4.86
2.09
8.61
14.21
18.53
21.38
22.73
22.77
21.83
20.32
18.64
17.05
15.68
14.47
13.26
11.9
10.37
8.82
7.55
6.87
6.89
7.38
7.85
7.71
6.51
4.21
1.09
-2.31
-5.48
-8.13
-10.25
-12.02
-13.71
-15.56
-17.67
-19.92
-21.94
-23.18
-23.01
-20.99
-17.03
-11.47
-4.98
1.65
7.69
12.63
16.16
18.25
19.03
18.84
18.13
17.37
16.87
16.77
16.91
16.98
16.68
15.79
14.33
12.47
10.51
8.78
7.51
6.79
6.51
6.4
6.09
5.23
3.6
1.17
-1.92
-5.38
-8.89
-12.24
-15.37
-18.36
-21.36
-24.38
-27.16
-29.16
-29.68
-28.14
-24.36
-18.66
-11.82
-4.78
1.64
6.94
10.99
13.91
15.85
16.92
17.18
16.66
15.48
13.88
12.14
10.53
9.23
8.23
7.39
6.56
5.58
4.49
3.41
2.56
2.04
1.78
1.52
0.94
-0.2
-1.88
-3.82
-5.63
-7.06
-8.12
-9.2
-10.91
-13.81
-18.07
-23.34
-28.72
-33.07
-35.33
-34.87
-31.66
-26.21
-19.25
-11.53
-3.64
4.06
11.36
18.12
24.21
29.46
33.63
36.38
37.38
36.33
33.15
28.13
21.94
15.64
10.36
7.03
6.06
7.24
9.78
12.68
15.01
16.15
15.88
14.24
11.35
7.29
2.08
-4.16
-11.07
-18.03
-24.37
-29.52
-33.3
-35.92
-37.78
-39.19
-40.08
-39.99
-38.19
-34.01
-27.18
-18.05
-7.46
3.46
13.69
22.52
29.67
35.22
39.31
42.03
43.31
43.04
41.18
37.91
33.58
28.68
23.61
18.63
13.87
9.37
5.27
1.79
-0.83
-2.41
-3.05
-3.13
-3.3
-4.15
-6.02
-8.71
-11.57
-13.68
-14.23
-12.94
-10.12
-6.64
-3.56
-1.7
-1.36
-2.31
-3.88
-5.28
-5.87
-5.32
-3.67
-1.22
1.61
4.43
6.98
9.13
10.81
11.97
12.56
12.57
12.08
11.26
10.34
9.48
8.73
8
7.16
6.15
5.03
3.99
3.31
3.15
3.57
4.36
5.1
5.26
4.43
2.47
-0.35
-3.44
-6.1
-7.84
-8.56
-8.56
-8.31
-8.19
-8.36
-8.74
-9.2
-9.68
-10.27
-11.02
-11.81
-12.29
-12
-10.56
-7.9
-4.32
-0.43
3.12
5.83
7.43
7.96
7.6
6.6
5.19
3.57
1.9
0.34
-0.95
-1.85
-2.32
-2.43
-2.28
-2.01
-1.7
-1.31
-0.72
0.23
1.67
3.64
5.99
8.41
10.56
12.11
12.92
12.98
12.39
11.24
9.57
7.26
4.22
0.44
-3.83
-8.05
-11.41
-13.11
-12.62
-9.86
-5.32
0.14
5.53
10.1
13.54
15.94
17.62
18.86
19.77
20.37
20.73
21.16
22.11
23.93
26.62
29.71
32.4
33.96
33.98
32.58
30.25
27.57
24.98
22.54
20.02
16.98
13
7.86
1.62
-5.36
-12.57
-19.53
-25.92
-31.61
-36.62
-40.97
-44.64
-47.57
-49.76
-51.21
-51.9
-51.66
-50.13
-46.94
-41.95
-35.37
-27.86
-20.27
-13.34
-7.49
-2.79
0.92
3.85
6.1
7.74
8.73
9.13
9.1
8.9
8.85
9.25
10.25
11.78
13.51
14.95
15.59
15.16
13.65
11.35
8.59
5.63
2.49
-0.92
-4.68
-8.7
-12.76
-16.59
-20.02
-23.13
-26.07
-29.03
-32.01
-34.77
-36.88
-37.86
-37.32
-34.95
-30.66
-24.5
-16.72
-7.79
1.62
10.74
18.86
25.43
30.22
33.16
34.33
33.87
31.95
28.83
24.88
20.58
16.35
12.47
9.08
6.2
3.85
2.12
1.09
0.77
1.09
1.86
2.84
3.82
4.61
5.05
4.99
4.41
3.43
2.36
1.61
1.5
2.12
3.28
4.56
5.53
5.87
5.4
4.08
1.95
-0.9
-4.33
-7.98
-11.37
-13.88
-15.01
-14.54
-12.62
-9.77
-6.65
-3.86
-1.76
-0.42
0.27
0.49
0.36
-0.02
-0.55
-1.1
-1.51
-1.68
-1.59
-1.34
-1.15
-1.18
-1.58
-2.31
-3.28
-4.31
-5.25
-6
-6.5
-6.7
-6.55
-6
-5.08
-3.94
-2.91
-2.39
-2.71
-4.03
-6.21
-8.94
-11.81
-14.52
-16.87
-18.74
-19.95
-20.12
-18.79
-15.43
-9.76
-1.8
8.07
19.17
30.57
41.08
49.37
54.06
54.13
49.3
40.42
29.47
19.14
12.03
9.66
11.84
16.67
21.26
22.89
20.2
13.7
5.55
-1.49
-5.34
-5.48
-3.1
-0.43
0.38
-1.82
-6.86
-13.55
-20.39
-26.21
-30.46
-33.17
-34.67
-35.33
-35.45
-35.19
-34.64
-33.8
-32.55
-30.72
-28.04
-24.3
-19.37
-13.37
-6.59
0.41
6.99
12.43
16.18
17.93
17.75
16.09
13.62
11.11
9.24
8.38
8.52
9.33
10.28
10.86
10.78
9.98
8.63
6.97
5.25
3.64
2.29
1.23
0.48
-0.08
-0.57
-1.13
-1.79
-2.5
-3.15
-3.68
-4.14
-4.67
-5.36
-6.13
-6.68
-6.54
-5.23
-2.46
1.79
7.16
13.09
18.9
24.02
28.13
31.18
33.32
34.79
35.71
36.11
35.91
34.97
33.22
30.66
27.39
23.64
19.67
15.82
12.37
9.48
7.13
5.18
3.35
1.41
-0.81
-3.42
-6.45
-9.85
-13.46
-17.08
-20.57
-23.94
-27.47
-31.55
-36.5
-42.39
-48.87
-55.25
-60.61
-64.08
-64.99
-63.09
-58.58
-52.12
-44.63
-37.17
-30.61
-25.48
-21.87
-19.54
-17.98
-16.66
-15.06
-12.79
-9.65
-5.74
-1.38
2.97
6.94
10.39
13.39
16.13
18.76
21.2
23.26
24.73
25.46
25.46
24.83
23.63
21.89
19.61
16.79
13.48
9.74
5.6
1.05
-3.82
-8.75
-13.3
-16.81
-18.66
-18.4
-15.95
-11.64
-6.19
-0.49
4.64
8.64
11.35
12.99
13.94
14.55
14.98
15.14
14.82
13.86
12.23
10.1
7.71
5.37
3.36
1.98
1.49
2
3.36
5.16
6.78
7.65
7.45
6.25
4.43
2.47
0.77
-0.56
-1.61
-2.68
-4.08
-6.08
-8.81
-12.15
-15.7
-18.79
-20.59
-20.36
-17.67
-12.61
-5.77
1.89
9.31
15.61
20.24
23.04
24.26
24.37
23.9
23.35
22.96
22.71
22.33
21.46
19.85
17.43
14.45
11.34
8.58
6.48
5.1
4.29
3.74
3.17
2.38
1.25
-0.24
-2.06
-4.09
-6.18
-8.15
-9.95
-11.68
-13.58
-15.92
-18.85
-22.15
-25.28
-27.44
-27.82
-25.89
-21.58
-15.36
-8.14
-0.95
5.28
10.04
13.25
15.2
16.3
16.79
16.72
15.94
14.37
12.09
9.4
6.72
4.34
2.37
0.72
-0.81
-2.33
-3.79
-4.95
-5.59
-5.57
-5.01
-4.27
-3.76
-3.85
-4.64
-5.94
-7.42
-8.84
-10.22
-11.85
-14.08
-17
-20.21
-22.87
-24.02
-22.96
-19.66
-14.68
-8.97
-3.41
1.4
5.34
8.55
11.24
13.5
15.28
16.48
17.07
17.16
16.92
16.49
15.94
15.18
14.11
12.7
11.06
9.36
7.8
6.44
5.23
3.99
2.46
0.48
-2.08
-5.18
-8.76
-12.67
-16.84
-21.27
-25.98
-30.96
-35.99
-40.52
-43.79
-45.02
-43.73
-40.03
-34.57
-28.34
-22.19
-16.6
-11.55
-6.74
-1.85
3.2
8.18
12.71
16.41
19.1
20.85
21.92
22.64
23.29
23.99
24.71
25.27
25.44
24.99
23.81
21.96
19.57
16.86
14.07
11.34
8.79
6.46
4.37
2.43
0.52
-1.57
-4.05
-7.08
-10.65
-14.54
-18.29
-21.29
-22.89
-22.56
-20.11
-15.71
-9.87
-3.31
3.29
9.41
14.86
19.62
23.71
27.08
29.61
31.22
32.04
32.37
32.63
33.14
33.94
34.8
35.37
35.36
34.73
33.64
32.32
30.93
29.39
27.51
25.04
21.85
18.02
13.77
9.41
5.21
1.32
-2.3
-5.74
-9.14
-12.58
-16.07
-19.56
-22.89
-25.85
-28.06
-29.06
-28.38
-25.73
-21.13
-15.02
-8.22
-1.68
3.68
7.36
9.29
9.85
9.63
9.21
8.89
8.68
8.35
7.64
6.45
4.91
3.33
2.05
1.27
1.01
1.13
1.43
1.77
2.05
2.23
2.2
1.84
0.95
-0.59
-2.73
-5.27
-7.81
-9.97
-11.44
-12.2
-12.45
-12.6
-13.14
-14.43
-16.69
-19.85
-23.56
-27.18
-29.87
-30.78
-29.32
-25.31
-19.17
-11.77
-4.22
2.52
7.79
11.4
13.56
14.63
14.98
14.87
14.45
13.77
12.93
12.03
11.22
10.6
10.22
9.95
9.62
9.01
8.01
6.68
5.21
3.86
2.82
2.12
1.54
0.79
-0.43
-2.3
-4.73
-7.44
-10.05
-12.19
-13.59
-14.15
-13.93
-13.11
-12
-10.93
-10.26
-10.14
-10.5
-10.89
-10.67
-9.13
-5.79
-0.58
6.06
13.38
20.41
26.28
30.33
32.25
32.15
30.47
27.91
25.19
22.86
21.13
19.8
18.44
16.57
13.92
10.49
6.54
2.44
-1.4
-4.62
-6.95
-8.26
-8.52
-7.91
-6.76
-5.56
-4.85
-5.1
-6.49
-8.86
-11.68
-14.21
-15.8
-16.17
-15.56
-14.72
-14.58
-15.84
-18.58
-22.09
-25.11
-26.34
-24.9
-20.69
-14.43
-7.32
-0.63
4.71
8.3
10.1
10.33
9.22
6.98
3.89
0.37
-3.07
-5.94
-7.98
-9.28
-10.29
-11.56
-13.54
-16.26
-19.33
-22
-23.48
-23.21
-21.04
-17.28
-12.55
-7.53
-2.85
1.07
4.01
5.9
6.8
6.79
6.06
4.79
3.14
1.19
-1.14
-4
-7.54
-11.66
-15.97
-19.73
-22.11
-22.39
-20.31
-16.12
-10.53
-4.47
1.21
5.94
9.49
11.95
13.53
14.43
14.78
14.64
13.98
12.86
11.41
9.89
8.61
7.86
7.83
8.52
9.82
11.56
13.53
15.57
17.56
19.32
20.57
20.98
20.23
18.17
14.87
10.64
5.97
1.31
-3.05
-7.04
-10.79
-14.56
-18.56
-22.84
-27.17
-31.03
-33.72
-34.57
-33.16
-29.51
-24.09
-17.62
-10.9
-4.61
0.77
4.99
7.98
9.88
11.04
11.92
13.05
14.73
16.99
19.54
21.9
23.64
24.49
24.37
23.34
21.44
18.71
15.21
11.09
6.63
2.16
-2.01
-5.7
-8.93
-11.78
-14.4
-16.88
-19.28
-21.65
-24.06
-26.63
-29.39
-32.21
-34.65
-35.96
-35.32
-32.13
-26.42
-18.9
-10.87
-3.75
1.45
4.42
5.65
6.09
6.78
8.47
11.46
15.62
20.57
25.72
30.4
33.92
35.72
35.53
33.41
29.77
25.13
19.97
14.56
9.01
3.29
-2.62
-8.66
-14.66
-20.34
-25.38
-29.45
-32.36
-34.11
-35.01
-35.55
-36.24
-37.3
-38.56
-39.42
-39.12
-37.05
-33.03
-27.33
-20.51
-13.12
-5.46
2.43
10.75
19.65
29.14
38.9
48.36
56.71
63.11
66.84
67.59
65.61
61.69
56.88
52.07
47.65
43.31
38.26
31.74
23.41
13.68
3.5
-6.02
-14.02
-20.19
-24.67
-27.9
-30.32
-32.38
-34.41
-36.68
-39.3
-41.97
-43.94
-44.07
-41.27
-35.01
-25.63
-14.35
-2.87
7.22
14.86
19.74
22.1
22.45
21.28
19
15.94
12.48
9
5.88
3.35
1.44
0.01
-1.15
-2.18
-3.09
-3.78
-4.13
-4.08
-3.8
-3.57
-3.77
-4.62
-6.18
-8.24
-10.47
-12.56
-14.36
-15.91
-17.31
-18.61
-19.65
-20.06
-19.38
-17.24
-13.52
-8.5
-2.7
3.21
8.59
12.93
15.88
17.25
17.02
15.34
12.57
9.25
6.03
3.54
2.17
1.98
2.68
3.77
4.71
5.07
4.66
3.54
1.93
0.08
-1.79
-3.58
-5.29
-6.97
-8.68
-10.46
-12.4
-14.59
-17.08
-19.7
-21.98
-23.17
-22.43
-19.2
-13.52
-6.11
1.77
8.79
13.95
16.8
17.39
16.09
13.34
9.63
5.42
1.3
-2.13
-4.37
-5.15
-4.6
-3.14
-1.33
0.24
1.13
1.07
-0.04
-2.05
-4.62
-7.27
-9.48
-10.91
-11.53
-11.64
-11.67
-12.1
-13.2
-15.01
-17.32
-19.73
-21.67
-22.49
-21.56
-18.46
-13.16
-6.12
1.77
9.42
15.89
20.65
23.62
25.15
25.74
25.89
25.94
26.07
26.29
26.53
26.69
26.63
26.26
25.48
24.23
22.51
20.39
17.98
15.49
13.09
10.96
9.08
7.32
5.37
2.88
-0.39
-4.46
-9.12
-13.95
-18.47
-22.25
-24.85
-25.89
-25.01
-22
-16.9
-10.08
-2.22
5.82
13.23
19.47
24.28
27.72
30
31.32
31.82
31.52
30.38
28.42
25.8
22.82
19.9
17.45
15.74
14.85
14.66
14.89
15.23
15.4
15.18
14.46
13.25
11.62
9.71
7.62
5.4
2.95
0.06
-3.52
-7.94
-13.14
-18.71
-23.84
-27.53
-28.83
-27.12
-22.45
-15.5
-7.43
0.58
7.64
13.31
17.63
20.8
22.96
24.16
24.36
23.59
22.07
20.08
17.91
15.67
13.34
10.86
8.31
5.95
4.19
3.35
3.44
4.1
4.7
4.57
3.26
0.75
-2.64
-6.41
-10.08
-13.42
-16.47
-19.46
-22.65
-26.12
-29.76
-33.2
-35.97
-37.54
-37.54
-35.81
-32.46
-27.86
-22.46
-16.76
-11.15
-5.94
-1.34
2.51
5.5
7.53
8.4
7.7
4.95
-0.07
-6.78
-13.44
-17.5
-16.45
-9.09
3.7
19.14
33.59
43.96
48.7
47.97
42.96
35.15
25.74
15.73
6.21
-1.5
-6.03
-6.53
-3.1
3.08
10.09
15.95
19.22
19.55
17.66
15.05
13.36
13.66
16.02
19.55
22.96
25.21
25.99
25.65
24.82
23.8
22.31
19.56
14.79
7.76
-0.99
-10.31
-18.86
-25.67
-30.49
-33.78
-36.32
-38.84
-41.6
-44.3
-46.26
-46.76
-45.48
-42.74
-39.69
-38.1
-40.18
-48.12
-63.38
-85.89
-113.42
-141.51
-164.37
-176.32
-173.6
-155.63
-125.12
-87.1
-47.24
-10.28
21.09
46.28
66.28
82.64
96.65
108.83
118.9
126.15
129.92
130.02
126.83
121.07
113.48
104.51
94.24
82.67
69.85
56.16
42.26
28.88
16.66
5.97
-3.02
-10.32
-16.02
-20.22
-22.94
-24.17
-23.86
-21.86
-17.89
-11.41
-1.65
11.87
28.59
46.28
61.02
68.28
64.77
50.18
27.81
3.63
-15.99
-26.64
-27.23
-19.91
-8.58
2.85
11.59
16.36
16.92
13.56
6.86
-2.16
-11.93
-20.46
-25.72
-26.27
-21.6
-12.38
-0.06
13.54
26.74
38.42
48.15
56.2
63.26
70.07
76.99
83.63
88.79
90.57
86.8
75.59
55.93
28.09
-6.2
-43.95
-81.35
-114.36
-139.42
-154.05
-157.3
-149.85
-133.84
-112.31
-88.52
-65.27
-44.46
-26.83
-12.12
0.52
12.09
23.19
33.83
43.36
50.61
54.29
53.29
47.16
36.3
22.05
6.44
-8.27
-20.15
-28.09
-32
-32.77
-31.83
-30.71
-30.53
-31.73
-34.11
-37.03
-39.72
-41.59
-42.42
-42.37
-41.87
-41.37
-41.09
-40.86
-40.11
-38.11
-34.26
-28.46
-21.15
-13.28
-5.92
0.07
4.25
6.55
7.04
5.85
3.07
-1.01
-5.8
-10.4
-13.79
-15.25
-14.56
-12.07
-8.49
-4.61
-1.02
1.98
4.29
5.91
6.86
7.13
6.73
5.78
4.47
3.11
1.9
0.96
0.16
-0.8
-2.19
-4.15
-6.47
-8.68
-10.16
-10.39
-9.13
-6.48
-2.8
1.43
5.77
9.87
13.53
16.62
19.05
20.78
21.81
22.18
21.89
20.92
19.3
17.09
14.51
11.89
9.59
7.88
6.79
6.18
5.71
5.08
4.11
2.81
1.35
-0.06
-1.29
-2.37
-3.44
-4.7
-6.33
-8.44
-11.04
-14.14
-17.71
-21.68
-25.9
-30.1
-33.86
-36.74
-38.45
-38.93
-38.39
-37.21
-35.79
-34.34
-32.89
-31.3
-29.48
-27.5
-25.68
-24.42
-23.85
-23.61
-22.8
-20.33
-15.45
-8.28
0.18
8.34
14.76
18.7
20.29
20.24
19.3
17.89
15.92
13.21
9.69
5.69
1.72
-1.85
-5.04
-8.24
-11.97
-16.41
-21.16
-25.29
-27.66
-27.44
-24.46
-19.28
-12.97
-6.63
-1.09
3.34
6.79
9.56
11.95
14.08
15.93
17.41
18.48
19.14
19.43
19.42
19.15
18.66
18
17.21
16.36
15.5
14.64
13.79
12.94
12.06
11.1
9.99
8.7
7.2
5.51
3.67
1.65
-0.62
-3.27
-6.42
-10.05
-13.82
-17.11
-19.12
-19.13
-16.79
-12.22
-6.06
0.82
7.54
13.52
18.47
22.46
25.67
28.24
30.17
31.33
31.56
30.77
29.07
26.76
24.27
21.96
20.03
18.47
17.17
15.98
14.85
13.8
12.81
11.78
10.44
8.52
5.88
2.64
-0.85
-4.16
-7.02
-9.43
-11.68
-14.06
-16.7
-19.4
-21.75
-23.36
-24.01
-23.69
-22.47
-20.36
-17.29
-13.27
-8.49
-3.41
1.41
5.53
8.83
11.44
13.62
15.59
17.41
18.99
20.2
20.92
21.09
20.7
19.83
18.62
17.29
16.03
14.91
13.87
12.67
11.1
9.07
6.69
4.25
2.07
0.44
-0.58
-1.1
-1.4
-1.87
-2.79
-4.36
-6.61
-9.45
-12.71
-16.04
-18.93
-20.75
-20.87
-18.85
-14.67
-8.76
-1.92
4.96
11.12
16.1
19.81
22.32
23.85
24.59
24.75
24.45
23.78
22.79
21.57
20.21
18.86
17.61
16.53
15.55
14.57
13.48
12.25
10.9
9.46
7.88
6.04
3.8
1.16
-1.71
-4.48
-6.82
-8.62
-10.01
-11.37
-13.15
-15.7
-19.15
-23.31
-27.68
-31.47
-33.78
-33.81
-31.19
-26.09
-19.23
-11.66
-4.37
2.03
7.32
11.63
15.14
17.93
19.92
21.01
21.26
20.89
20.33
19.92
19.82
20
20.16
19.99
19.3
18.08
16.49
14.84
13.37
12.19
11.23
10.27
9.06
7.4
5.21
2.6
-0.22
-3.01
-5.57
-7.89
-10.12
-12.5
-15.31
-18.67
-22.51
-26.42
-29.79
-31.87
-32.04
-29.98
-25.75
-19.86
-13
-5.95
0.66
6.45
11.24
14.96
17.6
19.17
19.74
19.54
18.86
18.11
17.56
17.28
17.15
16.89
16.25
15.13
13.67
12.13
10.85
10
9.53
9.22
8.75
7.85
6.42
4.5
2.26
-0.12
-2.54
-4.93
-7.35
-9.82
-12.43
-15.22
-18.27
-21.62
-25.21
-28.84
-32.06
-34.3
-34.98
-33.71
-30.39
-25.28
-18.93
-11.99
-5.11
1.22
6.63
10.91
13.96
15.77
16.48
16.34
15.68
14.84
14.11
13.65
13.53
13.71
14.05
14.39
14.56
14.44
13.98
13.23
12.28
11.18
9.96
8.58
7.02
5.32
3.53
1.7
-0.16
-2.09
-4.2
-6.55
-9.21
-12.17
-15.35
-18.53
-21.3
-23.09
-23.31
-21.58
-17.92
-12.75
-6.8
-0.84
4.6
9.29
13.28
16.71
19.63
21.94
23.39
23.81
23.2
21.83
20.15
18.58
17.37
16.47
15.64
14.59
13.17
11.39
9.43
7.51
5.78
4.25
2.82
1.27
-0.59
-2.9
-5.66
-8.72
-11.85
-14.88
-17.76
-20.55
-23.35
-26.14
-28.72
-30.79
-32.03
-32.23
-31.34
-29.43
-26.57
-22.79
-18.14
-12.79
-7.1
-1.66
2.92
6.26
8.33
9.5
10.34
11.31
12.56
13.89
14.93
15.38
15.24
14.77
14.31
14.07
14.02
13.95
13.63
12.94
11.96
10.82
9.6
8.25
6.66
4.72
2.46
0.05
-2.25
-4.22
-5.83
-7.24
-8.8
-10.9
-13.82
-17.59
-21.91
-26.15
-29.56
-31.3
-30.81
-27.89
-22.79
-16.18
-8.93
-1.91
4.24
9.22
13.11
16.17
18.66
20.7
22.22
23.07
23.15
22.54
21.5
20.35
19.3
18.32
17.18
15.61
13.55
11.24
9.25
8.11
8.09
8.97
10.15
10.88
10.62
9.25
7.06
4.5
1.92
-0.56
-3.04
-5.65
-8.41
-11.21
-13.88
-16.31
-18.56
-20.7
-22.71
-24.26
-24.8
-23.71
-20.7
-16.01
-10.42
-4.97
-0.53
2.5
4.27
5.22
5.77
6.15
6.32
6.17
5.73
5.14
4.56
3.99
3.24
2.12
0.63
-0.88
-1.87
-1.91
-0.97
0.51
1.85
2.47
2.14
1.06
-0.41
-1.98
-3.58
-5.4
-7.7
-10.64
-14.2
-18.14
-22.01
-25.28
-27.41
-27.93
-26.59
-23.47
-18.96
-13.64
-8.14
-2.99
1.49
5.12
7.84
9.69
10.76
11.21
11.27
11.18
11.09
11.06
11.06
10.96
10.59
9.88
8.83
7.62
6.51
5.76
5.42
5.37
5.25
4.72
3.6
2.06
0.53
-0.56
-1.02
-1.06
-1.23
-2.15
-4.26
-7.59
-11.75
-16.06
-19.77
-22.2
-22.87
-21.61
-18.48
-13.81
-8.06
-1.77
4.54
10.4
15.48
19.57
22.63
24.78
26.36
27.86
29.75
32.35
35.61
39.04
41.87
43.16
42.07
38.07
31.02
21.37
10.15
-1.11
-10.75
-17.35
-20.27
-19.91
-17.56
-14.95
-13.65
-14.6
-17.9
-23.13
-29.55
-36.55
-43.63
-50.41
-56.43
-61.15
-63.85
-63.89
-60.85
-54.78
-46.19
-36.01
-25.31
-15.03
-5.79
2.08
8.48
13.36
16.82
19.16
20.95
22.97
25.79
29.55
33.69
37.15
38.89
38.28
35.42
30.95
25.73
20.41
15.32
10.56
6.25
2.67
0.2
-0.87
-0.62
0.59
2.29
4.19
6.36
9.17
12.96
17.69
22.85
27.64
31.39
34.08
36.56
40.47
47.64
59.4
75.95
96.13
117.73
138.07
154.85
166.73
173.61
176.46
176.79
176.14
175.5
175.07
174.28
172.02
167.02
158.2
144.93
127.26
105.96
82.54
59.1
38.06
21.58
11.11
6.74
7.09
9.63
11.39
9.91
3.89
-6.79
-21.58
-39.92
-61.72
-87.23
-116.43
-148.36
-180.92
-211.43
-237.59
-258.45
-274.71
-287.99
-299.76
-310.3
-318.58
-322.91
-321.99
-315.73
-305.28
-292.4
-278.61
-264.59
-250.09
-234.38
-216.76
-197.02
-175.57
-153.17
-130.74
-109.03
-88.43
-68.99
-50.57
-32.99
-16.09
0.28
16.56
33.7
53.12
76.23
103.54
133.9
164.3
190.5
208.34
215.18
210.82
197.53
179.25
160.36
144.53
134.05
129.74
131.26
137.62
147.4
158.93
170.25
179.14
183.34
181.03
171.39
155.01
133.8
110.51
87.86
67.69
50.59
36.18
23.63
12.38
2.41
-5.87
-12.07
-16.17
-18.62
-20.17
-21.53
-23.16
-25.24
-27.7
-30.23
-32.23
-32.84
-31.28
-27.22
-21.27
-15.04
-10.7
-10.17
-14.31
-22.48
-32.63
-42.01
-48.05
-49.13
-45
-36.65
-25.84
-14.67
-5
1.62
4.05
1.56
-6.19
-18.93
-35.77
-55.25
-75.73
-95.88
-114.96
-132.82
-149.51
-164.77
-177.85
-187.52
-192.57
-192.2
-186.25
-175.21
-159.86
-141.05
-119.47
-95.75
-70.66
-45.22
-20.74
1.48
20.45
35.86
48.13
58.12
66.71
74.31
80.74
85.52
88.33
89.56
90.28
91.89
95.39
100.73
106.63
110.83
110.79
104.45
90.68
69.48
41.84
9.5
-25.38
-60.47
-93.67
-123.49
-149.28
-171.17
-189.63
-204.67
-215.22
-218.92
-213.1
-196.27
-169.62
-137.6
-106.92
-84.26
-73.75
-75.3
-84.61
-94.71
-98.25
-89.65
-66.36
-29.16
18.35
70.77
122.23
167.65
203.83
229.82
246.72
256.59
261.36
262.16
259.18
252.17
241.04
226.16
208.16
187.57
164.49
138.76
110.4
80.07
49.37
20.51
-4.12
-22.71
-34.48
-39.82
-40.03
-36.87
-32.09
-27.12
-22.98
-20.16
-18.71
-18.35
-18.68
-19.34
-20.1
-20.95
-21.92
-23.01
-24.23
-25.65
-27.5
-30.13
-33.74
-38.12
-42.49
-45.65
-46.42
-44.12
-38.89
-31.69
-23.87
-16.71
-10.95
-6.66
-3.39
-0.42
2.87
6.8
11.28
15.88
19.97
22.96
24.44
24.31
22.71
20
16.66
13.16
9.92
7.25
5.36
4.27
3.88
4
4.39
4.79
4.98
4.78
4.09
2.92
1.31
-0.64
-2.86
-5.39
-8.24
-11.36
-14.51
-17.25
-19.03
-19.35
-17.94
-14.89
-10.62
-5.88
-1.51
1.72
3.29
3.13
1.55
-0.8
-3.13
-4.8
-5.37
-4.73
-3.03
-0.61
2.09
4.61
6.56
7.68
7.85
7.19
5.91
4.32
2.72
1.39
0.48
0.03
-0.1
-0.23
-0.71
-1.91
-3.98
-6.91
-10.6
-14.89
-19.65
-24.73
-29.84
-34.43
-37.75
-39.03
-37.74
-33.84
-27.84
-20.58
-13.03
-5.9
0.44
6.04
11.16
16.06
20.85
25.4
29.44
32.63
34.78
35.87
36.04
35.54
34.54
33.12
31.26
28.93
26.22
23.35
20.59
18.18
16.17
14.36
12.43
10.08
7.23
4.09
1.06
-1.42
-3.15
-4.28
-5.29
-6.79
-9.26
-12.76
-16.85
-20.66
-23.1
-23.22
-20.54
-15.15
-7.76
0.57
8.7
15.75
21.26
25.22
28.04
30.41
33.18
37.15
42.74
49.77
57.32
63.98
68.41
69.99
69.19
67.42
66.34
67.11
69.75
73.08
75.13
73.74
67.13
54.32
35.26
10.93
-16.84
-45.67
-73.17
-97.48
-117.57
-133.2
-144.61
-152.01
-155.32
-154.16
-148.13
-137.16
-121.82
-103.5
-84.18
-65.99
-50.58
-38.51
-28.99
-20.2
-10.05
2.91
18.9
36.94
55.36
72.5
87.15
98.56
106.26
109.95
109.48
105.19
98.06
89.67
81.88
76.25
73.66
74.1
76.86
80.75
84.46
86.86
87.15
85
80.59
74.45
67.28
59.68
51.97
44.06
35.67
26.43
16.22
5.26
-5.83
-16.16
-24.8
-30.95
-34.22
-34.66
-32.75
-29.33
-25.35
-21.63
-18.69
-16.76
-15.8
-15.67
-16.24
-17.41
-19.02
-20.82
-22.41
-23.25
-22.7
-20.25
-15.72
-9.55
-2.9
2.49
4.77
2.53
-4.7
-16.3
-30.9
-46.95
-63.16
-78.69
-93.01
-105.54
-115.53
-122.05
-124.19
-121.35
-113.46
-101.05
-85.39
-68.28
-51.83
-37.9
-27.55
-20.68
-16.03
-11.76
-6.23
1.27
10.23
19.29
26.86
31.83
33.98
33.94
32.82
31.67
31.1
31.19
31.6
31.9
31.81
31.25
30.3
28.98
27.14
24.53
20.96
16.54
11.81
7.54
4.51
3.09
3.11
3.8
4.14
3.13
0.17
-4.76
-11.18
-18.16
-24.66
-29.78
-33.09
-34.68
-35.13
-35.18
-35.41
-35.96
-36.51
-36.41
-34.9
-31.33
-25.26
-16.66
-6.12
5.15
15.47
23.26
27.68
29.04
28.76
28.77
30.6
34.75
40.56
46.57
51.18
53.18
51.96
47.51
40.24
30.89
20.32
9.46
-0.85
-9.94
-17.31
-22.49
-25.05
-24.59
-21.02
-14.73
-6.61
2.33
11.38
20.45
30.05
40.85
53.09
66.21
78.81
89.16
95.84
98.26
96.85
92.67
86.74
79.47
70.41
58.69
43.79
26.21
7.56
-9.99
-24.61
-35.53
-43.11
-48.34
-52.15
-55.01
-57.07
-58.58
-60.21
-62.87
-67.24
-73.16
-79.63
-85.15
-88.45
-88.94
-86.76
-82.49
-76.78
-70.15
-63.07
-56.13
-50.02
-45.52
-43.08
-42.7
-43.8
-45.43
-46.7
-47.12
-46.81
-46.36
-46.49
-47.56
-49.31
-50.87
-51.18
-49.55
-46.06
-41.71
-37.96
-36.04
-36.37
-38.35
-40.67
-42.05
-41.9
-40.59
-39.19
-38.95
-40.7
-44.64
-50.5
-57.82
-66.2
-75.31
-84.77
-94.07
-102.8
-110.74
-118.16
-125.66
-133.85
-142.7
-151.28
-157.69
-159.49
-154.4
-141.06
-119.43
-91.02
-58.55
-25.3
5.69
32.38
54.06
71.18
84.9
96.32
106.16
114.73
122.28
129.34
136.93
146.27
158.38
173.59
191.32
210.16
227.97
242.19
250.18
249.75
239.78
220.88
195.45
167.24
140.17
117
98.43
83.05
68.19
51.26
30.92
7.63
-16.56
-38.89
-56.97
-69.42
-76.08
-77.54
-74.68
-68.38
-59.65
-49.86
-40.67
-33.74
-29.94
-28.87
-28.75
-27.05
-21.51
-11.09
3.45
19.76
34.53
44.58
47.7
43.32
32.67
18.57
4.57
-6
-10.89
-9.57
-3.19
5.73
14.1
18.99
18.51
12.21
1.19
-12.25
-25.28
-35.27
-40.43
-40.01
-34.37
-24.68
-12.56
0.34
12.71
23.75
33.16
40.83
46.56
50.06
51
49.46
45.93
41.09
35.42
29.08
22.17
15.32
10.02
8.4
12.45
23.05
39.46
59.46
80.23
99.27
115.11
127.32
136.21
142.34
146.05
147.37
146.02
141.59
133.86
123.03
109.76
94.88
79.08
62.67
45.77
28.67
12.14
-2.72
-14.84
-23.88
-30.57
-36.62
-44.2
-55.11
-69.99
-88.12
-107.62
-126.16
-141.74
-153.38
-161.12
-165.69
-167.79
-167.5
-164.17
-156.69
-144.17
-126.54
-104.82
-81.01
-57.55
-36.81
-20.55
-9.76
-4.69
-5.07
-10.38
-19.99
-33.08
-48.5
-64.73
-80.05
-93.04
-102.9
-109.64
-113.79
-115.83
-115.76
-113.19
-107.71
-99.52
-89.68
-79.92
-71.96
-66.79
-64.23
-63.18
-62.09
-59.58
-54.8
-47.41
-37.44
-25.14
-10.98
4.29
19.59
33.75
45.83
55.47
62.85
68.57
73.22
77.1
80.18
82.31
83.47
83.91
84.11
84.56
85.55
87.02
88.65
89.99
90.64
90.26
88.63
85.6
81.16
75.47
68.86
61.69
54.27
46.65
38.66
29.97
20.39
10.07
-0.33
-9.76
-16.98
-20.93
-21.01
-17.32
-10.6
-2.11
6.67
14.4
20.1
23.39
24.45
23.92
22.57
21.09
19.87
19.03
18.48
18.18
18.14
18.46
19.21
20.36
21.76
23.23
24.6
25.79
26.74
27.34
27.37
26.5
24.45
21.09
16.57
11.25
5.56
-0.18
-5.85
-11.43
-16.83
-21.67
-25.22
-26.57
-25.02
-20.43
-13.34
-4.88
3.71
11.45
17.84
22.85
26.67
29.39
30.92
31.1
29.92
27.69
24.96
22.25
19.78
17.43
14.85
11.89
8.77
6.15
4.79
5.16
7.19
10.32
13.78
16.99
19.66
21.72
23.06
23.28
21.75
17.89
11.55
3.2
-6.12
-15.23
-23.28
-29.95
-35.27
-39.21
-41.25
-40.47
-36.04
-27.82
-16.72
-4.53
6.81
15.99
22.69
27.48
31.21
34.51
37.54
40.15
42.19
43.74
45.05
46.33
47.61
48.65
49.01
48.24
46.05
42.34
37.31
31.34
24.89
18.29
11.57
4.5
-3.29
-12.06
-21.62
-31.35
-40.25
-47.21
-51.36
-52.29
-50.16
-45.58
-39.47
-32.82
-26.48
-21.03
-16.72
-13.5
-11.11
-9.28
-7.76
-6.48
-5.46
-4.79
-4.51
-4.56
-4.74
-4.74
-4.28
-3.2
-1.57
0.38
2.23
3.59
4.12
3.64
2.22
0.14
-2.24
-4.49
-6.31
-7.61
-8.51
-9.36
-10.56
-12.42
-14.94
-17.71
-20.02
-21.02
-20
-16.64
-11.12
-4.14
3.27
10.03
15.23
18.38
19.47
18.92
17.4
15.57
13.9
12.56
11.5
10.56
9.66
8.81
8.12
7.63
7.32
7.04
6.62
5.97
5.03
3.8
2.27
0.44
-1.68
-4
-6.41
-8.77
-10.99
-13.07
-15.02
-16.82
-18.36
-19.41
-19.65
-18.78
-16.59
-13.07
-8.34
-2.75
3.26
9.19
14.55
19.01
22.37
24.57
25.72
25.97
25.54
24.61
23.3
21.62
19.49
16.75
13.26
8.86
3.38
-3.44
-11.83
-21.92
-33.46
-45.73
-57.58
-67.7
-74.99
-78.92
-79.55
-77.51
-73.68
-68.98
-64.17
-59.75
-55.9
-52.4
-48.65
-43.8
-37.13
-28.4
-18.11
-7.44
2.22
9.96
15.83
20.91
26.78
34.74
45.14
57.12
68.96
78.83
85.45
88.45
88.23
85.52
80.98
74.92
67.41
58.45
48.19
37.02
25.52
14.37
4.15
-4.76
-12.2
-18.25
-23.11
-27.01
-30.16
-32.76
-34.99
-37.02
-38.99
-40.85
-42.34
-42.97
-42.19
-39.65
-35.39
-29.88
-23.87
-18.12
-13.16
-9.14
-5.91
-3.14
-0.56
1.9
4.12
5.84
6.85
7.08
6.73
6.19
5.92
6.28
7.37
9.01
10.74
11.97
12.18
11.09
8.74
5.49
1.87
-1.59
-4.58
-7.01
-9.04
-10.91
-12.87
-15.06
-17.46
-19.91
-22.09
-23.5
-23.62
-22.02
-18.53
-13.39
-7.16
-0.64
5.37
10.26
13.66
15.51
15.99
15.51
14.52
13.46
12.56
11.8
11.01
9.95
8.55
6.91
5.29
4.01
3.23
2.92
2.93
3.02
2.98
2.65
1.98
0.95
-0.42
-2.07
-3.93
-5.89
-7.86
-9.8
-11.73
-13.7
-15.67
-17.44
-18.68
-18.99
-18.11
-16.05
-13.09
-9.65
-6.09
-2.55
1.05
4.79
8.56
11.99
14.5
15.62
15.21
13.61
11.49
9.63
8.57
8.45
9.01
9.75
10.16
9.91
8.9
7.3
5.39
3.48
1.83
0.52
-0.48
-1.36
-2.3
-3.46
-4.95
-6.8
-8.98
-11.48
-14.16
-16.83
-19.15
-20.74
-21.26
-20.6
-18.87
-16.33
-13.23
-9.71
-5.84
-1.68
2.54
6.45
9.53
11.36
11.76
10.8
8.8
6.15
3.2
0.14
-3
-6.41
-10.3
-14.8
-19.83
-24.99
-29.64
-33
-34.28
-32.96
-28.9
-22.37
-14.01
-4.61
5.01
13.99
21.44
26.4
28.01
25.88
20.48
13.3
6.64
2.85
3.51
8.86
17.75
28.22
38.29
46.57
52.38
55.51
55.94
53.57
48.39
40.62
30.97
20.53
10.53
1.94
-4.8
-9.88
-13.9
-17.54
-21.22
-24.93
-28.28
-30.73
-31.88
-31.65
-30.31
-28.38
-26.38
-24.63
-23.21
-22.02
-20.94
-19.97
-19.35
-19.41
-20.41
-22.33
-24.72
-26.79
-27.69
-26.8
-24.04
-19.85
-15
-10.2
-5.86
-2.05
1.38
4.53
7.35
9.58
10.99
11.48
11.2
10.46
9.58
8.82
8.26
7.83
7.37
6.7
5.7
4.37
2.81
1.24
-0.14
-1.16
-1.77
-2.05
-2.18
-2.32
-2.63
-3.18
-4.01
-5.14
-6.59
-8.35
-10.27
-12.07
-13.34
-13.64
-12.71
-10.55
-7.48
-4
-0.62
2.34
4.79
6.79
8.47
9.87
10.94
11.6
11.81
11.61
11.09
10.33
9.39
8.34
7.28
6.35
5.76
5.63
5.93
6.49
7.02
7.21
6.88
6.05
4.88
3.57
2.24
0.83
-0.81
-2.81
-5.16
-7.67
-10.09
-12.19
-13.93
-15.38
-16.64
-17.62
-18.04
-17.46
-15.62
-12.55
-8.67
-4.62
-1.02
1.74
3.63
4.82
5.56
6.05
6.36
6.52
6.54
6.49
6.46
6.48
6.5
6.41
6.1
5.57
4.94
4.44
4.25
4.43
4.92
5.5
5.95
6.07
5.78
5.05
3.96
2.64
1.24
-0.05
-1.13
-1.99
-2.76
-3.63
-4.75
-6.14
-7.59
-8.76
-9.26
-8.83
-7.4
-5.08
-2.11
1.19
4.56
7.74
10.55
12.88
14.64
15.81
16.38
16.4
16
15.28
14.38
13.39
12.31
11.11
9.77
8.3
6.81
5.53
4.69
4.47
4.84
5.58
6.29
6.54
6.09
4.92
3.25
1.39
-0.44
-2.21
-4.02
-6.01
-8.19
-10.48
-12.68
-14.69
-16.53
-18.25
-19.84
-21.07
-21.57
-20.95
-19.08
-16.1
-12.46
-8.7
-5.27
-2.37
-0.04
1.83
3.31
4.41
5.09
5.32
5.12
4.58
3.89
3.24
2.8
2.64
2.66
2.7
2.56
2.13
1.43
0.6
-0.21
-0.95
-1.64
-2.42
-3.38
-4.54
-5.8
-7.05
-8.17
-9.17
-10.12
-11.16
-12.4
-13.85
-15.47
-17.11
-18.63
-19.84
-20.61
-20.83
-20.4
-19.27
-17.4
-14.82
-11.61
-7.95
-4.1
-0.38
2.93
5.58
7.47
8.64
9.25
9.46
9.46
9.32
9.07
8.7
8.2
7.63
7.06
6.54
6.07
5.62
5.11
4.51
3.82
3.08
2.33
1.56
0.72
-0.27
-1.41
-2.72
-4.13
-5.57
-6.95
-8.23
-9.42
-10.57
-11.79
-13.21
-14.87
-16.67
-18.34
-19.41
-19.42
-18.01
-15.09
-10.91
-5.92
-0.68
4.32
8.73
12.35
15.08
16.92
17.9
18.15
17.87
17.33
16.82
16.51
16.42
16.36
16.05
15.19
13.7
11.71
9.6
7.8
6.58
5.93
5.59
5.15
4.26
2.75
0.68
-1.77
-4.37
-6.9
-9.24
-11.3
-13.12
-14.75
-16.28
-17.74
-19.09
-20.15
-20.68
-20.4
-19.06
-16.59
-13.05
-8.73
-4.03
0.57
4.63
7.87
10.19
11.67
12.49
12.87
12.99
13
13.02
13.11
13.32
13.57
13.71
13.58
13.05
12.07
10.69
9.05
7.34
5.75
4.44
3.47
2.76
2.06
1.1
-0.36
-2.38
-4.81
-7.37
-9.75
-11.82
-13.63
-15.34
-17.12
-18.97
-20.76
-22.18
-22.94
-22.76
-21.52
-19.24
-16.08
-12.26
-8.04
-3.69
0.54
4.46
7.85
10.55
12.49
13.67
14.23
14.37
14.34
14.3
14.35
14.45
14.51
14.38
13.96
13.18
12.05
10.64
9.01
7.26
5.46
3.68
2.02
0.53
-0.77
-1.94
-3.09
-4.31
-5.69
-7.23
-8.88
-10.61
-12.42
-14.38
-16.61
-19.15
-21.9
-24.62
-26.87
-28.12
-27.89
-25.94
-22.31
-17.37
-11.72
-6.02
-0.8
3.59
7.01
9.49
11.09
11.92
12.13
11.91
11.52
11.2
11.12
11.29
11.62
11.93
12.02
11.78
11.15
10.19
9.01
7.76
6.61
5.68
4.99
4.5
4.08
3.56
2.79
1.64
0.08
-1.88
-4.15
-6.6
-9.06
-11.37
-13.44
-15.19
-16.66
-17.89
-18.87
-19.46
-19.44
-18.47
-16.3
-12.89
-8.48
-3.57
1.22
5.41
8.73
11.15
12.78
13.72
13.98
13.58
12.61
11.33
10.14
9.42
9.36
9.9
10.76
11.57
12.04
12
11.45
10.48
9.2
7.73
6.08
4.18
1.93
-0.71
-3.63
-6.58
-9.19
-11.2
-12.59
-13.59
-14.61
-15.99
-17.83
-19.9
-21.73
-22.82
-22.84
-21.71
-19.6
-16.8
-13.58
-10.16
-6.69
-3.29
-0.09
2.76
5.16
7.1
8.62
9.78
10.63
11.19
11.45
11.38
11.02
10.4
9.61
8.73
7.85
7.05
6.4
5.9
5.53
5.21
4.79
4.14
3.16
1.85
0.23
-1.61
-3.56
-5.51
-7.31
-8.85
-10.1
-11.13
-12.19
-13.56
-15.44
-17.81
-20.32
-22.38
-23.35
-22.74
-20.41
-16.56
-11.65
-6.22
-0.79
4.29
8.79
12.62
15.78
18.33
20.37
22.01
23.35
24.44
25.29
25.85
26.09
25.97
25.51
24.77
23.89
22.98
22.13
21.35
20.59
19.78
18.85
17.71
16.28
14.46
12.21
9.56
6.68
3.81
1.19
-1.07
-2.98
-4.71
-6.45
-8.32
-10.33
-12.4
-14.43
-16.31
-17.91
-18.98
-19.23
-18.3
-16
-12.39
-7.88
-3.09
1.38
5.09
7.9
9.9
11.28
12.13
12.46
12.19
11.39
10.31
9.37
8.99
9.31
10.18
11.14
11.72
11.64
10.94
9.86
8.7
7.62
6.59
5.49
4.19
2.67
0.94
-0.94
-2.96
-5.16
-7.49
-9.9
-12.27
-14.5
-16.55
-18.41
-20.07
-21.46
-22.45
-22.88
-22.62
-21.59
-19.75
-17.15
-13.85
-10.03
-5.89
-1.71
2.27
5.81
8.75
11
12.51
13.28
13.32
12.71
11.57
10.15
8.77
7.74
7.23
7.19
7.36
7.41
7.08
6.32
5.3
4.28
3.44
2.75
2.02
1.03
-0.36
-2.03
-3.76
-5.31
-6.58
-7.72
-9
-10.73
-13.06
-15.82
-18.56
-20.64
-21.44
-20.55
-17.91
-13.88
-9.09
-4.24
0.08
3.6
6.33
8.53
10.48
12.39
14.18
15.64
16.47
16.49
15.7
14.29
12.51
10.6
8.77
7.18
6.01
5.39
5.33
5.65
6
5.95
5.19
3.6
1.35
-1.26
-3.93
-6.45
-8.72
-10.72
-12.49
-14.08
-15.59
-17.12
-18.68
-20.17
-21.26
-21.51
-20.42
-17.76
-13.58
-8.36
-2.79
2.38
6.6
9.63
11.55
12.61
13.13
13.36
13.47
13.59
13.8
14.14
14.55
14.85
14.77
14.09
12.7
10.73
8.49
6.36
4.69
3.61
3.06
2.81
2.53
1.94
0.85
-0.8
-2.96
-5.53
-8.38
-11.4
-14.54
-17.73
-20.88
-23.76
-25.99
-27.17
-26.94
-25.14
-21.92
-17.66
-12.85
-7.95
-3.28
0.99
4.76
7.93
10.32
11.77
12.18
11.7
10.64
9.46
8.54
8.03
7.83
7.68
7.29
6.54
5.48
4.27
2.99
1.66
0.17
-1.6
-3.73
-6.21
-8.89
-11.59
-14.04
-15.98
-17.17
-17.55
-17.25
-16.54
-15.8
-15.29
-15.12
-15.17
-15.18
-14.89
-14.08
-12.67
-10.65
-8.12
-5.19
-2.09
0.89
3.38
5.06
5.7
5.28
4.04
2.48
1.23
0.97
2.21
5.24
10.02
16.17
23.02
29.7
35.38
39.46
41.73
42.35
41.63
39.82
36.94
32.87
27.53
21.13
14.2
7.49
1.61
-3.13
-6.87
-9.99
-12.9
-15.8
-18.55
-20.78
-22.04
-21.95
-20.32
-17.19
-12.85
-7.81
-2.65
2.06
5.93
8.83
10.85
12.24
13.23
13.97
14.4
14.41
13.84
12.64
10.88
8.75
6.51
4.41
2.63
1.26
0.29
-0.39
-0.94
-1.59
-2.57
-4.1
-6.32
-9.25
-12.7
-16.31
-19.68
-22.55
-24.92
-27.04
-29.28
-31.91
-34.96
-38.17
-41.09
-43.27
-44.38
-44.26
-42.94
-40.59
-37.4
-33.65
-29.68
-25.87
-22.57
-19.98
-18.01
-16.35
-14.44
-11.79
-8.08
-3.32
2.24
8.2
14.15
19.78
24.81
28.93
31.81
33.2
33.01
31.43
28.84
25.66
22.22
18.63
14.84
10.83
6.65
2.48
-1.49
-5.19
-8.72
-12.25
-15.86
-19.35
-22.22
-23.8
-23.52
-21.11
-16.77
-11.09
-4.83
1.32
6.87
11.61
15.59
18.98
21.97
24.68
27.07
28.94
29.9
29.49
27.38
23.54
18.38
12.65
7.28
3.09
0.58
-0.18
0.61
2.54
5.19
8.13
11
13.62
16.01
18.42
21.18
24.42
27.88
30.79
32.19
31.28
27.88
22.54
16.38
10.74
6.7
4.87
5.34
7.73
11.46
15.85
20.26
24.14
27.1
28.85
29.18
28.04
25.56
22.03
17.92
13.7
9.75
6.24
3.17
0.42
-2.07
-4.26
-6.03
-7.26
-7.98
-8.33
-8.62
-9.1
-9.94
-11.14
-12.61
-14.21
-15.86
-17.5
-19.11
-20.69
-22.19
-23.59
-24.78
-25.62
-25.95
-25.55
-24.27
-22.06
-19.04
-15.49
-11.76
-8.14
-4.91
-2.19
-0.02
1.63
2.82
3.64
4.15
4.34
4.2
3.71
2.91
1.9
0.84
-0.09
-0.77
-1.12
-1.17
-0.97
-0.65
-0.41
-0.41
-0.82
-1.73
-3.12
-4.87
-6.88
-9.03
-11.26
-13.54
-15.81
-17.93
-19.71
-20.89
-21.22
-20.52
-18.72
-15.87
-12.2
-8.06
-3.87
0.04
3.43
6.26
8.59
10.49
12.03
13.15
13.79
13.87
13.38
12.39
11.02
9.42
7.78
6.31
5.15
4.4
4
3.76
3.45
2.87
1.91
0.56
-1.16
-3.19
-5.5
-8.02
-10.65
-13.27
-15.79
-18.22
-20.59
-22.92
-25.05
-26.64
-27.22
-26.4
-24.02
-20.32
-15.87
-11.38
-7.44
-4.36
-2.07
-0.26
1.44
3.24
5.2
7.2
9.14
10.96
12.68
14.24
15.51
16.36
16.69
16.6
16.25
15.71
14.74
12.77
9.13
3.39
-4.41
-13.72
-23.71
-33.64
-43.07
-51.82
-59.83
-67
-73.05
-77.63
-80.44
-81.28
-80.04
-76.69
-71.26
-63.9
-54.93
-44.8
-33.97
-22.78
-11.34
0.3
12.01
23.33
33.42
41.32
46.26
48.05
47.29
45.2
43.3
42.91
44.79
48.92
54.56
60.53
65.54
68.58
69.16
67.4
63.95
59.65
55.23
51.03
47.01
42.78
37.93
32.2
25.58
18.3
10.75
3.39
-3.25
-8.7
-12.48
-14.3
-14.12
-12.29
-9.4
-6.19
-3.26
-0.95
0.7
1.88
2.81
3.68
4.52
5.29
5.89
6.2
6.14
5.64
4.71
3.41
1.87
0.25
-1.31
-2.72
-3.91
-4.82
-5.38
-5.5
-5.1
-4.24
-3.14
-2.16
-1.73
-2.18
-3.65
-6
-8.86
-11.75
-14.14
-15.62
-15.98
-15.22
-13.59
-11.44
-9.19
-7.08
-5.18
-3.32
-1.31
0.89
3.03
4.63
5.23
4.72
3.47
2.21
1.74
2.47
4.3
6.63
8.64
9.59
9.05
6.84
3.07
-2.03
-7.98
-14.09
-19.49
-23.35
-25.07
-24.49
-21.92
-18.01
-13.58
-9.37
-5.87
-3.26
-1.35
0.33
2.29
4.88
8.13
11.68
14.98
17.55
19.22
20.17
20.74
21.25
21.74
22.01
21.73
20.69
18.88
16.54
14.07
11.85
10.13
8.98
8.28
7.83
7.34
6.6
5.44
3.85
1.94
-0.11
-2.12
-4.04
-5.95
-8.02
-10.4
-13.1
-15.99
-18.77
-21.05
-22.41
-22.46
-20.9
-17.59
-12.67
-6.64
-0.27
5.6
10.28
13.5
15.36
16.28
16.69
16.9
16.99
16.94
16.67
16.13
15.35
14.38
13.31
12.24
11.25
10.38
9.55
8.61
7.35
5.64
3.47
0.94
-1.78
-4.59
-7.5
-10.6
-14
-17.73
-21.7
-25.71
-29.44
-32.52
-34.53
-35.08
-33.91
-30.99
-26.59
-21.24
-15.57
-10.15
-5.35
-1.34
1.9
4.39
6.17
7.2
7.52
7.22
6.5
5.61
4.73
3.93
3.16
2.43
1.74
1.18
0.83
0.66
0.52
0.17
-0.62
-1.95
-3.78
-5.93
-8.14
-10.13
-11.64
-12.47
-12.55
-11.95
-10.89
-9.74
-8.84
-8.4
-8.41
-8.62
-8.58
-7.84
-6.09
-3.21
0.61
5.06
9.71
14.21
18.23
21.62
24.26
26.18
27.46
28.25
28.73
29
29.13
29.07
28.79
28.18
27.17
25.67
23.58
20.86
17.59
14.04
10.6
7.73
5.73
4.6
4.08
3.72
3.14
2.18
0.91
-0.44
-1.67
-2.73
-3.68
-4.63
-5.65
-6.77
-7.98
-9.34
-10.82
-12.26
-13.25
-13.1
-11.09
-6.8
-0.24
8.02
17.1
26.05
34.05
40.57
45.29
48.09
48.98
48.14
45.86
42.54
38.59
34.37
30.09
25.78
21.31
16.45
10.94
4.6
-2.66
-10.71
-19.26
-27.94
-36.38
-44.31
-51.64
-58.39
-64.59
-70.14
-74.7
-77.66
-78.39
-76.45
-71.78
-64.65
-55.53
-44.93
-33.35
-21.41
-9.91
0.26
8.38
14.26
18.37
21.53
24.61
27.96
31.45
34.58
36.9
38.28
38.89
39.01
38.78
38.19
37.03
35.15
32.4
28.72
24.16
18.86
13.18
7.64
2.8
-0.92
-3.37
-4.63
-4.91
-4.42
-3.37
-1.95
-0.51
0.51
0.67
-0.22
-2
-4.22
-6.33
-7.99
-9.24
-10.41
-11.91
-13.96
-16.43
-19
-21.29
-23.07
-24.27
-24.85
-24.71
-23.61
-21.29
-17.73
-13.2
-8.29
-3.69
0.06
2.75
4.45
5.46
6.04
6.34
6.39
6.19
5.74
5.06
4.2
3.16
1.98
0.69
-0.59
-1.68
-2.42
-2.72
-2.64
-2.38
-2.22
-2.45
-3.23
-4.59
-6.34
-8.19
-9.81
-10.95
-11.51
-11.61
-11.48
-11.42
-11.7
-12.44
-13.58
-14.84
-15.79
-15.93
-14.86
-12.39
-8.69
-4.2
0.44
4.59
7.82
9.98
11.14
11.51
11.32
10.76
9.95
9.01
8.06
7.15
6.31
5.46
4.49
3.31
1.94
0.56
-0.6
-1.3
-1.47
-1.27
-1.02
-1.14
-1.9
-3.4
-5.52
-8.04
-10.73
-13.46
-16.13
-18.61
-20.66
-21.95
-22.14
-21.06
-18.75
-15.4
-11.37
-6.95
-2.43
1.92
5.81
8.97
11.23
12.54
13.05
12.97
12.53
11.89
11.14
10.38
9.76
9.39
9.35
9.61
10
10.31
10.33
9.92
9.06
7.78
6.1
4.09
1.83
-0.6
-3.15
-5.78
-8.56
-11.55
-14.76
-18.05
-21.12
-23.51
-24.69
-24.21
-21.85
-17.72
-12.31
-6.38
-0.8
3.68
6.58
7.83
7.69
6.56
4.85
2.83
0.64
-1.6
-3.7
-5.44
-6.59
-7.07
-6.97
-6.55
-6.07
-5.69
-5.41
-5.08
-4.57
-3.84
-3.01
-2.32
-2.05
-2.46
-3.69
-5.73
-8.36
-11.18
-13.69
-15.38
-15.84
-14.9
-12.59
-9.11
-4.8
-0.05
4.65
8.84
12.11
14.28
15.4
15.73
15.61
15.32
14.98
14.59
14.08
13.44
12.74
12.09
11.5
10.88
10.05
8.84
7.18
5.18
3.01
0.89
-1.06
-2.76
-4.25
-5.59
-6.9
-8.28
-9.84
-11.59
-13.41
-15.09
-16.34
-16.91
-16.6
-15.34
-13.12
-10.05
-6.3
-2.17
1.97
5.71
8.74
11.01
12.64
13.95
15.18
16.51
17.95
19.37
20.55
21.2
20.99
19.61
16.91
12.99
8.3
3.51
-0.69
-3.77
-5.58
-6.35
-6.54
-6.75
-7.48
-9.05
-11.51
-14.61
-17.82
-20.45
-21.85
-21.53
-19.37
-15.62
-10.84
-5.7
-0.82
3.37
6.71
9.23
11.1
12.57
13.77
14.76
15.5
15.93
16.04
15.88
15.56
15.19
14.8
14.33
13.68
12.77
11.55
10.04
8.27
6.3
4.16
1.89
-0.48
-2.96
-5.57
-8.41
-11.49
-14.78
-18.06
-21.02
-23.29
-24.51
-24.46
-23.07
-20.48
-17.02
-13.14
-9.31
-5.86
-2.9
-0.31
2.21
4.9
7.88
10.99
13.9
16.21
17.65
18.12
17.74
16.73
15.39
13.94
12.58
11.4
10.44
9.69
9.05
8.41
7.59
6.41
4.79
2.76
0.47
-1.83
-3.94
-5.82
-7.56
-9.36
-11.33
-13.36
-15.05
-15.86
-15.3
-13.16
-9.6
-5.11
-0.26
4.43
8.7
12.46
15.74
18.56
20.9
22.61
23.61
23.89
23.59
22.89
21.96
20.91
19.75
18.48
17.12
15.82
14.72
13.95
13.47
13.1
12.53
11.48
9.83
7.67
5.26
2.91
0.85
-0.87
-2.38
-3.92
-5.71
-7.81
-10.13
-12.39
-14.25
-15.36
-15.41
-14.2
-11.69
-8.01
-3.45
1.52
6.36
10.57
13.79
15.89
16.88
16.96
16.38
15.41
14.31
13.28
12.42
11.74
11.15
10.52
9.75
8.8
7.71
6.53
5.33
4.05
2.62
0.96
-0.98
-3.12
-5.37
-7.59
-9.72
-11.81
-13.98
-16.44
-19.3
-22.56
-25.96
-29.04
-31.28
-32.24
-31.66
-29.61
-26.39
-22.48
-18.37
-14.48
-11.1
-8.36
-6.24
-4.66
-3.53
-2.78
-2.39
-2.36
-2.65
-3.13
-3.62
-3.91
-3.79
-3.17
-2.08
-0.72
0.6
1.49
1.64
0.94
-0.46
-2.2
-3.81
-4.91
-5.34
-5.21
-4.81
-4.45
-4.38
-4.64
-5.14
-5.65
-5.9
-5.56
-4.35
-2.15
0.95
4.57
8.12
10.98
12.71
13.18
12.52
11.1
9.27
7.32
5.44
3.74
2.34
1.4
1.05
1.42
2.6
4.59
7.32
10.64
14.28
17.79
20.63
22.26
22.3
20.61
17.36
12.89
7.64
2
-3.72
-9.24
-14.33
-18.79
-22.49
-25.43
-27.7
-29.36
-30.36
-30.39
-29.03
-25.91
-20.92
-14.31
-6.69
1.24
8.84
15.72
21.68
26.6
30.31
32.59
33.3
32.49
30.48
27.75
24.72
21.63
18.5
15.24
11.83
8.43
5.27
2.57
0.44
-1.17
-2.36
-3.16
-3.59
-3.67
-3.54
-3.5
-3.84
-4.74
-6.19
-7.98
-9.88
-11.69
-13.33
-14.7
-15.68
-16.03
-15.58
-14.28
-12.27
-9.93
-7.61
-5.59
-3.94
-2.56
-1.33
-0.13
1.05
2.18
3.25
4.28
5.33
6.47
7.73
9.03
10.25
11.17
11.67
11.71
11.34
10.67
9.76
8.61
7.17
5.4
3.35
1.2
-0.88
-2.73
-4.38
-5.95
-7.64
-9.62
-11.96
-14.54
-17.09
-19.2
-20.41
-20.34
-18.81
-15.9
-11.96
-7.5
-2.98
1.23
4.94
8.09
10.61
12.46
13.58
13.99
13.8
13.25
12.57
11.9
11.23
10.46
9.48
8.29
7.02
5.88
5.01
4.44
4
3.51
2.77
1.76
0.55
-0.73
-1.97
-3.12
-4.22
-5.28
-6.32
-7.39
-8.52
-9.81
-11.37
-13.18
-15.07
-16.68
-17.55
-17.31
-15.78
-13.07
-9.54
-5.72
-2.14
0.79
2.91
4.26
5.03
5.5
5.82
6.09
6.25
6.22
5.93
5.43
4.79
4.14
3.5
2.87
2.18
1.37
0.45
-0.52
-1.47
-2.36
-3.24
-4.17
-5.27
-6.59
-8.18
-10.04
-12.15
-14.5
-16.98
-19.43
-21.58
-23.12
-23.73
-23.16
-21.34
-18.44
-14.77
-10.78
-6.9
-3.39
-0.35
2.27
4.62
6.74
8.58
9.96
10.69
10.68
9.96
8.73
7.28
5.9
4.74
3.83
3.02
2.13
1.01
-0.4
-1.99
-3.57
-4.93
-5.96
-6.63
-7.02
-7.26
-7.54
-8.05
-8.96
-10.33
-12.06
-13.87
-15.29
-15.84
-15.17
-13.21
-10.15
-6.4
-2.51
1.1
4.1
6.4
8.03
9.15
9.92
10.49
10.98
11.48
12.05
12.67
13.24
13.58
13.49
12.77
11.3
9.09
6.28
3.11
-0.08
-2.94
-5.09
-6.25
-6.28
-5.31
-3.63
-1.73
-0.11
0.76
0.56
-0.89
-3.5
-6.99
-10.83
-14.31
-16.72
-17.48
-16.28
-13.2
-8.66
-3.29
2.21
7.24
11.38
14.41
16.22
16.75
15.97
13.87
10.61
6.49
2.02
-2.26
-5.82
-8.35
-9.75
-10.07
-9.51
-8.28
-6.55
-4.49
-2.22
0.18
2.7
5.34
8.09
10.88
13.5
15.69
17.14
17.6
16.93
15.08
12.1
8.1
3.27
-2.04
-7.28
-11.81
-14.99
-16.41
-16
-14.07
-11.14
-7.68
-4.02
-0.19
3.88
8.17
12.5
16.49
19.68
21.74
22.59
22.41
21.5
20.2
18.81
17.51
16.46
15.71
15.31
15.15
15.05
14.74
13.99
12.7
11
9.11
7.34
5.9
4.86
4.09
3.37
2.46
1.19
-0.48
-2.38
-4.19
-5.47
-5.87
-5.24
-3.67
-1.49
0.87
3.08
4.93
6.33
7.22
7.45
6.78
5.03
2.28
-1.1
-4.52
-7.43
-9.61
-11.16
-12.43
-13.66
-14.89
-15.88
-16.35
-16.19
-15.64
-15.18
-15.26
-16.11
-17.59
-19.29
-20.72
-21.42
-21.01
-19.23
-15.98
-11.42
-6.03
-0.7
3.6
6.1
6.56
5.47
3.83
2.8
3.19
5.15
8.16
11.24
13.32
13.49
11.25
6.45
-0.67
-9.59
-19.52
-29.57
-38.79
-46.44
-52.01
-55.25
-56.16
-54.87
-51.62
-46.64
-40.1
-32.06
-22.55
-11.74
-0.29
10.58
19.28
24.39
25.27
22.39
17.26
11.73
7.27
4.35
2.48
0.6
-2.19
-6.13
-10.73
-15.02
-18.03
-19.21
-18.51
-16.32
-13.2
-9.7
-6.23
-3.13
-0.72
0.66
0.75
-0.26
-1.58
-1.78
0.76
7.08
16.96
28.66
39.41
46.39
47.79
43.38
34.5
23.2
11.45
0.41
-9.61
-18.76
-27.03
-33.88
-38.37
-39.59
-37.34
-32.47
-26.66
-21.82
-19.23
-19.01
-20.16
-21.22
-20.95
-18.89
-15.18
-10.21
-4.07
3.44
12.48
22.78
33.41
43.07
50.56
55.29
57.45
57.74
57.02
55.9
54.63
53.25
51.72
50.05
48.34
46.67
45.08
43.48
41.72
39.61
36.99
33.76
29.95
25.67
21.14
16.64
12.48
8.91
6.11
4.05
2.51
1.08
-0.71
-3.23
-6.56
-10.45
-14.33
-17.47
-19.21
-19.17
-17.39
-14.21
-10.26
-6.18
-2.52
0.36
2.32
3.4
3.76
3.58
3.07
2.4
1.78
1.4
1.39
1.8
2.48
3.22
3.7
3.73
3.27
2.45
1.51
0.66
0.01
-0.51
-1.05
-1.74
-2.64
-3.72
-4.88
-6.05
-7.21
-8.4
-9.72
-11.16
-12.71
-14.2
-15.4
-16.02
-15.81
-14.63
-12.52
-9.64
-6.28
-2.73
0.73
3.86
6.42
8.18
8.97
8.76
7.7
6.08
4.27
2.6
1.29
0.38
-0.16
-0.43
-0.54
-0.6
-0.75
-1.09
-1.67
-2.47
-3.4
-4.3
-5.05
-5.57
-5.89
-6.17
-6.64
-7.57
-9.2
-11.54
-14.38
-17.26
-19.53
-20.66
-20.27
-18.31
-15.07
-11
-6.63
-2.48
1.09
3.82
5.59
6.44
6.49
5.96
5.16
4.43
4.03
4.05
4.42
4.89
5.19
5.11
4.62
3.81
2.87
1.9
0.87
-0.31
-1.72
-3.34
-5.05
-6.69
-8.17
-9.54
-10.95
-12.58
-14.49
-16.6
-18.63
-20.22
-20.94
-20.48
-18.7
-15.69
-11.83
-7.64
-3.67
-0.29
2.35
4.36
5.98
7.37
8.59
9.54
10.09
10.19
9.91
9.45
8.99
8.59
8.21
7.71
7
6.03
4.92
3.75
2.6
1.46
0.21
-1.22
-2.87
-4.65
-6.45
-8.17
-9.8
-11.45
-13.27
-15.34
-17.59
-19.71
-21.26
-21.78
-21
-18.91
-15.78
-12.05
-8.16
-4.41
-0.92
2.27
5.17
7.69
9.73
11.18
12.03
12.39
12.44
12.34
12.18
11.91
11.44
10.74
9.84
8.95
8.28
7.97
7.98
8.13
8.11
7.67
6.66
5.11
3.19
1.17
-0.74
-2.4
-3.86
-5.31
-7.04
-9.3
-12.2
-15.57
-18.93
-21.57
-22.77
-22.02
-19.2
-14.69
-9.2
-3.56
1.52
5.65
8.75
10.92
12.37
13.27
13.79
14.07
14.25
14.45
14.75
15.07
15.3
15.28
14.91
14.21
13.34
12.55
11.98
11.71
11.6
11.42
10.89
9.8
8.11
5.91
3.37
0.69
-1.94
-4.4
-6.63
-8.63
-10.49
-12.36
-14.35
-16.44
-18.43
-19.95
-20.62
-20.16
-18.52
-15.9
-12.62
-9.03
-5.37
-1.75
1.8
5.26
8.52
11.39
13.63
15.04
15.5
15.08
13.95
12.4
10.74
9.28
8.23
7.71
7.72
8.13
8.73
9.3
9.63
9.56
9.02
7.99
6.49
4.62
2.52
0.47
-1.29
-2.59
-3.47
-4.2
-5.2
-6.85
-9.3
-12.46
-15.96
-19.33
-22.09
-23.84
-24.26
-23.16
-20.57
-16.74
-12.22
-7.67
-3.66
-0.46
1.96
3.89
5.64
7.34
8.89
10.05
10.6
10.46
9.77
8.78
7.81
7.08
6.74
6.77
7.11
7.67
8.33
8.96
9.37
9.38
8.81
7.63
5.9
3.88
1.82
-0.03
-1.54
-2.66
-3.42
-3.87
-4.17
-4.49
-5.02
-5.86
-6.87
-7.68
-7.75
-6.57
-3.84
0.44
5.95
12.22
18.67
24.65
29.42
32.23
32.42
29.76
24.65
18.13
11.68
6.71
4.11
3.92
5.48
7.77
9.96
11.8
13.59
15.93
19.21
23.32
27.62
31.21
33.46
34.26
34.1
33.78
34.01
35.08
36.83
38.8
40.41
41.13
40.42
37.67
32.21
23.6
11.88
-2.08
-16.64
-29.76
-39.53
-44.83
-45.56
-42.66
-37.74
-32.61
-28.75
-27.15
-28.21
-31.83
-37.57
-44.77
-52.6
-60.11
-66.4
-70.73
-72.74
-72.45
-70.24
-66.62
-62.07
-56.91
-51.3
-45.35
-39.24
-33.23
-27.63
-22.7
-18.59
-15.28
-12.71
-10.78
-9.42
-8.66
-8.52
-9.02
-10.06
-11.43
-12.76
-13.56
-13.37
-11.81
-8.81
-4.59
0.32
5.25
9.65
13.17
15.81
17.69
19.01
19.83
20.13
19.89
19.2
18.29
17.45
16.97
16.93
17.26
17.73
18.12
18.26
18.06
17.5
16.56
15.2
13.39
11.14
8.57
5.88
3.3
1.05
-0.79
-2.25
-3.48
-4.63
-5.85
-7.22
-8.77
-10.56
-12.6
-14.79
-16.88
-18.52
-19.3
-19.02
-17.73
-15.74
-13.45
-11.19
-9.04
-6.94
-4.73
-2.34
0.14
2.57
4.75
6.6
8.09
9.24
10.04
10.52
10.65
10.44
9.96
9.31
8.62
7.97
7.44
7.03
6.68
6.28
5.72
4.95
3.99
2.93
1.92
1.02
0.27
-0.44
-1.29
-2.47
-4.14
-6.31
-8.78
-11.13
-12.85
-13.42
-12.56
-10.26
-6.8
-2.67
1.64
5.73
9.41
12.61
15.4
17.84
19.94
21.71
23.08
24.06
24.7
25.11
25.43
25.74
26
26.12
25.97
25.46
24.63
23.56
22.3
20.84
19.08
16.91
14.35
11.61
9
6.84
5.29
4.28
3.6
2.94
2.02
0.65
-1.25
-3.64
-6.32
-8.95
-11.05
-12.15
-11.91
-10.24
-7.32
-3.55
0.56
4.51
7.91
10.5
12.18
12.97
13
12.51
11.75
10.93
10.21
9.67
9.33
9.12
8.96
8.74
8.41
7.94
7.38
6.79
6.2
5.56
4.77
3.7
2.3
0.61
-1.25
-3.08
-4.72
-6.09
-7.24
-8.3
-9.49
-10.95
-12.68
-14.49
-16.01
-16.79
-16.44
-14.77
-11.87
-8.11
-4.1
-0.56
1.8
2.47
1.2
-1.89
-6.42
-11.74
-17.13
-21.94
-25.74
-28.36
-29.85
-30.42
-30.33
-29.73
-28.72
-27.4
-25.9
-24.5
-23.44
-22.89
-22.82
-23.06
-23.38
-23.59
-23.58
-23.21
-22.23
-20.2
-16.67
-11.4
-4.57
3.21
10.95
17.73
22.93
26.52
28.99
31.09
33.42
36.23
39.25
41.97
43.94
45.01
45.33
45.17
44.63
43.44
41.14
37.32
31.96
25.58
19.07
13.32
8.93
6.01
4.3
3.3
2.55
1.7
0.61
-0.76
-2.35
-4.06
-5.75
-7.34
-8.79
-10.13
-11.41
-12.68
-13.97
-15.32
-16.7
-18.1
-19.43
-20.46
-20.87
-20.27
-18.42
-15.32
-11.3
-6.93
-2.84
0.49
2.91
4.5
5.53
6.2
6.59
6.65
6.31
5.59
4.69
3.85
3.32
3.13
3.13
3.06
2.68
1.9
0.83
-0.35
-1.5
-2.58
-3.71
-5.04
-6.62
-8.43
-10.31
-12.16
-13.91
-15.58
-17.15
-18.49
-19.34
-19.33
-18.19
-15.87
-12.61
-8.86
-5.12
-1.77
1.03
3.35
5.36
7.21
8.91
10.35
11.34
11.72
11.49
10.81
9.93
9.1
8.48
8.05
7.65
7.06
6.11
4.78
3.23
1.69
0.38
-0.62
-1.41
-2.17
-3.13
-4.43
-6.16
-8.32
-10.82
-13.45
-15.83
-17.47
-17.89
-16.81
-14.26
-10.62
-6.46
-2.39
1.21
4.2
6.62
8.58
10.16
11.34
12.07
12.36
12.3
12.03
11.7
11.37
10.98
10.39
9.48
8.19
6.56
4.75
2.97
1.43
0.27
-0.5
-1.01
-1.51
-2.27
-3.49
-5.2
-7.33
-9.67
-12.07
-14.37
-16.41
-17.98
-18.75
-18.41
-16.77
-13.96
-10.36
-6.54
-3.02
-0.13
2.11
3.81
5.18
6.34
7.33
8.12
8.67
8.95
8.95
8.65
8.02
7.12
6.03
4.92
3.97
3.27
2.81
2.45
1.99
1.29
0.28
-0.98
-2.38
-3.77
-5.02
-6.07
-6.9
-7.57
-8.18
-8.83
-9.61
-10.47
-11.24
-11.6
-11.26
-10.03
-7.97
-5.35
-2.61
-0.18
1.7
3
3.86
4.46
4.88
5.08
4.92
4.28
3.08
1.33
-0.9
-3.47
-6.25
-9.06
-11.75
-14.18
-16.33
-18.23
-19.9
-21.26
-22.02
-21.77
-20.12
-16.94
-12.52
-7.45
-2.44
2.01
5.76
8.97
11.9
14.53
16.54
17.39
16.68
14.44
11.32
8.36
6.77
7.5
11.01
17.18
25.37
34.64
43.96
52.51
59.77
65.6
70.07
73.35
75.44
76.21
75.5
73.21
69.46
64.39
58.07
50.28
40.57
28.56
14.18
-2.07
-19.21
-36.02
-51.46
-64.87
-75.99
-84.78
-91.18
-95.08
-96.36
-95.15
-91.87
-87.23
-81.99
-76.76
-71.84
-67.26
-62.86
-58.47
-53.93
-49.11
-43.86
-38.06
-31.67
-24.81
-17.8
-11.06
-4.96
0.29
4.72
8.51
11.88
15.02
17.96
20.63
22.93
24.77
26.14
27.06
27.57
27.64
27.25
26.37
25.08
23.58
22.1
20.92
20.15
19.77
19.6
19.35
18.75
17.59
15.82
13.59
11.18
8.97
7.23
6.03
5.19
4.33
3.04
1.13
-1.35
-4.04
-6.42
-7.95
-8.24
-7.11
-4.59
-0.91
3.53
8.29
12.88
16.87
19.94
21.96
23.01
23.31
23.17
22.83
22.36
21.71
20.72
19.25
17.26
14.83
12.16
9.49
7.06
5.06
3.63
2.72
2.16
1.65
0.86
-0.4
-2.16
-4.25
-6.44
-8.53
-10.41
-12.08
-13.55
-14.84
-16
-17.13
-18.36
-19.75
-21.18
-22.27
-22.5
-21.46
-19.01
-15.42
-11.19
-6.94
-3.06
0.27
3.05
5.39
7.32
8.88
10.09
11.02
11.73
12.3
12.7
12.82
12.54
11.8
10.61
9.14
7.63
6.34
5.49
5.12
5.09
5.08
4.72
3.71
1.99
-0.28
-2.76
-5.08
-7.04
-8.68
-10.21
-11.95
-14.07
-16.6
-19.28
-21.68
-23.29
-23.64
-22.48
-19.78
-15.85
-11.17
-6.34
-1.85
1.98
5.07
7.5
9.36
10.73
11.61
12.04
12.11
12.01
11.92
11.92
11.93
11.69
10.96
9.67
7.98
6.25
4.91
4.19
4.06
4.23
4.31
3.99
3.15
1.86
0.26
-1.53
-3.51
-5.75
-8.29
-11.09
-14.03
-16.89
-19.51
-21.8
-23.74
-25.28
-26.3
-26.55
-25.77
-23.74
-20.44
-16.06
-10.86
-5.09
1.14
7.77
14.71
21.64
27.96
32.98
36.08
37.07
36.11
33.72
30.44
26.66
22.57
18.23
13.7
9.15
4.84
0.99
-2.34
-5.23
-7.86
-10.42
-12.99
-15.53
-17.93
-20.14
-22.16
-24.06
-26.01
-28.18
-30.75
-33.76
-37.05
-40.13
-42.21
-42.27
-39.35
-32.88
-22.87
-9.93
4.89
20.4
35.5
49.3
61.23
70.95
78.31
83.3
85.95
86.19
83.79
78.31
69.25
56.29
39.5
19.56
-2.2
-24.08
-44.29
-61.47
-74.88
-84.59
-91.21
-95.61
-98.5
-100.23
-100.76
-99.88
-97.43
-93.55
-88.65
-83.4
-78.61
-74.97
-72.93
-72.49
-73.14
-73.85
-73.32
-70.25
-63.66
-53.19
-39.18
-22.7
-5.2
11.76
26.9
39.47
49.29
56.71
62.25
66.46
69.67
71.97
73.29
73.46
72.41
70.17
66.95
63.1
59.05
55.24
52.06
49.8
48.6
48.27
48.23
47.54
45.21
40.6
33.75
25.48
17.12
10.01
4.99
2.15
0.92
0.5
0.23
-0.02
0.07
1.12
3.62
7.68
12.93
18.58
23.73
27.73
30.33
31.66
32.07
31.8
30.89
29.18
26.49
22.84
18.5
14.01
10
6.95
5.12
4.45
4.67
5.44
6.41
7.37
8.16
8.68
8.82
8.48
7.6
6.21
4.42
2.4
0.3
-1.82
-3.99
-6.3
-8.89
-11.87
-15.24
-18.83
-22.28
-25.09
-26.69
-26.6
-24.57
-20.64
-15.16
-8.77
-2.2
3.84
8.86
12.66
15.29
16.97
17.91
18.21
17.9
16.96
15.52
13.78
12.07
10.63
9.6
9
8.82
9.11
9.94
11.28
12.89
14.28
14.84
14.06
11.75
8.17
3.88
-0.45
-4.37
-7.68
-10.5
-13.04
-15.52
-18.04
-20.59
-23.07
-25.38
-27.43
-29.05
-30.02
-30.02
-28.8
-26.32
-22.82
-18.84
-14.98
-11.7
-9.14
-7.07
-5.13
-2.97
-0.46
2.27
4.97
7.4
9.51
11.38
13.14
14.89
16.58
18.09
19.28
20.06
20.46
20.56
20.46
20.21
19.82
19.27
18.51
17.52
16.23
14.61
12.62
10.25
7.57
4.7
1.8
-0.89
-3.13
-4.59
-4.93
-3.89
-1.43
2.17
6.35
10.42
13.71
15.75
16.3
15.36
13.12
9.88
6.07
2.13
-1.54
-4.71
-7.27
-9.27
-10.77
-11.84
-12.5
-12.78
-12.75
-12.52
-12.18
-11.77
-11.32
-10.88
-10.54
-10.48
-10.85
-11.67
-12.9
-14.34
-15.78
-17.09
-18.26
-19.43
-20.81
-22.61
-24.88
-27.44
-29.81
-31.32
-31.38
-29.65
-26.17
-21.41
-15.97
-10.47
-5.37
-0.97
2.54
5.05
6.54
7.15
7.16
6.92
6.72
6.66
6.7
6.69
6.5
6.07
5.43
4.67
3.81
2.92
2.04
1.25
0.58
0.04
-0.46
-1.08
-1.96
-3.12
-4.48
-5.85
-6.98
-7.72
-8.12
-8.42
-8.99
-10.12
-11.81
-13.72
-15.16
-15.44
-14.09
-11.12
-7
-2.42
2
5.82
8.93
11.29
12.93
13.81
13.93
13.41
12.48
11.47
10.61
10.02
9.66
9.41
9.15
8.78
8.31
7.78
7.2
6.61
6.02
5.39
4.71
3.88
2.85
1.59
0.11
-1.52
-3.23
-5.01
-6.92
-9.05
-11.41
-13.84
-15.96
-17.22
-17.1
-15.28
-11.82
-7.19
-2.07
2.85
7.04
10.28
12.53
13.89
14.44
14.25
13.41
12.1
10.58
9.11
7.91
7.08
6.61
6.36
6.18
5.86
5.24
4.23
2.86
1.27
-0.35
-1.82
-3.1
-4.26
-5.46
-6.89
-8.63
-10.71
-13.07
-15.61
-18.2
-20.61
-22.5
-23.42
-22.93
-20.79
-17.07
-12.18
-6.78
-1.59
2.84
6.22
8.57
10.08
11.02
11.58
11.85
11.84
11.61
11.23
10.86
10.62
10.5
10.37
9.98
9.14
7.79
6.04
4.16
2.4
0.93
-0.26
-1.34
-2.51
-3.92
-5.65
-7.65
-9.87
-12.24
-14.74
-17.28
-19.7
-21.66
-22.75
-22.57
-20.91
-17.85
-13.81
-9.34
-5.01
-1.19
2.01
4.61
6.68
8.24
9.27
9.71
9.55
8.93
8.04
7.17
6.57
6.38
6.58
7.01
7.38
7.45
7.04
6.11
4.71
2.97
1.03
-0.94
-2.76
-4.25
-5.28
-5.85
-6.09
-6.29
-6.79
-7.88
-9.72
-12.27
-15.17
-17.86
-19.67
-20.04
-18.68
-15.76
-11.77
-7.4
-3.27
0.21
2.9
4.84
6.16
6.95
7.26
7.1
6.47
5.41
4.02
2.47
0.94
-0.41
-1.54
-2.44
-3.11
-3.43
-3.11
-1.81
0.71
4.42
8.91
13.52
17.47
20.15
21.2
20.51
18.2
14.45
9.53
3.77
-2.32
-8.14
-13.01
-16.34
-17.8
-17.35
-15.27
-12
-8.06
-3.92
0.02
3.47
6.25
8.27
9.56
10.21
10.38
10.15
9.6
8.77
7.73
6.57
5.44
4.47
3.72
3.2
2.85
2.6
2.35
1.98
1.33
0.3
-1.15
-2.91
-4.77
-6.5
-7.95
-9.15
-10.26
-11.52
-13.13
-15.18
-17.61
-20.16
-22.44
-23.95
-24.21
-22.9
-19.99
-15.79
-10.81
-5.67
-0.84
3.43
7.13
10.36
13.24
15.76
17.79
19.17
19.78
19.67
19.03
18.08
17.03
15.97
14.92
13.86
12.85
12
11.42
11.12
10.94
10.63
9.96
8.81
7.26
5.46
3.51
1.45
-0.74
-3.06
-5.41
-7.7
-9.85
-11.98
-14.25
-16.78
-19.38
-21.58
-22.69
-22.16
-19.81
-15.96
-11.27
-6.46
-2.02
1.87
5.26
8.29
10.93
13.1
14.62
15.42
15.53
15.14
14.49
13.79
13.24
12.94
12.97
13.28
13.76
14.23
14.55
14.63
14.43
13.98
13.24
12.19
10.77
9.04
7.11
5.21
3.48
1.89
0.24
-1.77
-4.35
-7.53
-11.09
-14.7
-18.04
-20.85
-22.9
-23.93
-23.66
-21.85
-18.54
-14.06
-9.08
-4.4
-0.69
1.75
3
3.42
3.42
3.27
2.95
2.22
0.73
-1.7
-5.04
-8.94
-12.96
-16.67
-19.81
-22.29
-24.08
-25.17
-25.43
-24.69
-22.85
-19.97
-16.23
-11.96
-7.52
-3.26
0.48
3.42
5.32
6.06
5.63
4.13
1.7
-1.47
-5.14
-8.94
-12.34
-14.81
-15.88
-15.37
-13.43
-10.52
-7.18
-3.85
-0.82
1.82
4.04
5.78
7
7.73
8.07
8.29
8.64
9.31
10.33
11.6
12.9
14.02
14.78
15.12
15.12
14.95
14.83
14.88
15.08
15.29
15.26
14.8
13.85
12.45
10.74
8.86
6.95
5.05
3.18
1.32
-0.62
-2.69
-4.86
-6.94
-8.63
-9.49
-9.17
-7.49
-4.51
-0.51
4.07
8.78
13.15
16.82
19.52
21.14
21.75
21.55
20.8
19.71
18.41
16.95
15.34
13.57
11.76
10.07
8.72
7.89
7.66
7.93
8.49
9.04
9.33
9.17
8.53
7.46
6.09
4.54
2.84
1.02
-0.94
-3.02
-5.22
-7.52
-9.95
-12.53
-15.2
-17.79
-19.91
-21.1
-20.88
-19.02
-15.64
-11.21
-6.38
-1.78
2.19
5.37
7.84
9.71
11.05
11.85
12.05
11.63
10.64
9.22
7.55
5.81
4.14
2.65
1.42
0.48
-0.14
-0.46
-0.54
-0.48
-0.46
-0.67
-1.27
-2.31
-3.69
-5.2
-6.6
-7.74
-8.62
-9.41
-10.37
-11.71
-13.38
-15.06
-16.19
-16.17
-14.59
-11.4
-6.98
-1.95
3.04
7.47
11.1
13.89
15.91
17.25
18.01
18.28
18.16
17.79
17.24
16.53
15.62
14.46
13.01
11.29
9.38
7.36
5.34
3.34
1.39
-0.54
-2.43
-4.27
-6.04
-7.75
-9.49
-11.41
-13.72
-16.57
-19.95
-23.64
-27.1
-29.69
-30.79
-30.01
-27.36
-23.19
-18.06
-12.56
-7.17
-2.22
2.11
5.65
8.29
9.98
10.75
10.82
10.45
9.89
9.31
8.77
8.29
7.88
7.57
7.35
7.16
6.88
6.33
5.4
4.06
2.32
0.3
-1.92
-4.25
-6.59
-8.88
-11.1
-13.29
-15.49
-17.73
-19.92
-21.81
-23.01
-23.11
-21.83
-19.11
-15.26
-10.78
-6.26
-2.13
1.41
4.41
7.02
9.33
11.22
12.48
12.9
12.47
11.45
10.26
9.31
8.77
8.58
8.48
8.19
7.53
6.46
5.06
3.46
1.78
0.12
-1.52
-3.14
-4.8
-6.53
-8.38
-10.37
-12.56
-15
-17.69
-20.5
-23.06
-24.79
-25.06
-23.4
-19.72
-14.43
-8.34
-2.4
2.63
6.37
8.94
10.72
12.14
13.4
14.43
15
14.96
14.39
13.59
12.92
12.58
12.51
12.48
12.16
11.42
10.31
9.07
7.96
7.07
6.28
5.32
3.93
1.96
-0.45
-3.07
-5.62
-8.01
-10.3
-12.62
-14.98
-17.11
-18.5
-18.59
-17.08
-14.01
-9.85
-5.22
-0.69
3.4
6.93
9.86
12.11
13.54
13.93
13.18
11.45
9.12
6.75
4.86
3.79
3.52
3.77
4.12
4.19
3.81
3.04
2.1
1.19
0.35
-0.56
-1.79
-3.56
-5.96
-8.9
-12.19
-15.66
-19.19
-22.66
-25.89
-28.47
-29.9
-29.69
-27.6
-23.79
-18.79
-13.32
-8.02
-3.25
0.96
4.74
8.3
11.68
14.77
17.34
19.2
20.24
20.53
20.16
19.24
17.86
16.11
14.12
12.13
10.42
9.18
8.45
8.08
7.82
7.37
6.51
5.11
3.17
0.75
-2.06
-5.14
-8.38
-11.7
-14.93
-17.85
-20.09
-21.22
-20.84
-18.81
-15.24
-10.57
-5.34
-0.12
4.72
8.93
12.44
15.18
17.13
18.32
18.79
18.66
18.12
17.38
16.64
16.05
15.67
15.46
15.27
14.96
14.41
13.56
12.4
10.96
9.24
7.24
4.95
2.44
-0.17
-2.74
-5.15
-7.38
-9.52
-11.72
-14.16
-16.86
-19.66
-22.17
-23.92
-24.48
-23.59
-21.2
-17.48
-12.7
-7.17
-1.31
4.47
9.71
14.02
17.18
19.24
20.42
21.01
21.19
20.97
20.3
19.14
17.61
15.95
14.46
13.3
12.51
11.99
11.58
11.2
10.8
10.38
9.85
9.11
8.08
6.76
5.27
3.81
2.53
1.4
0.22
-1.35
-3.59
-6.58
-10.14
-13.82
-17.05
-19.28
-20.12
-19.39
-17.16
-13.68
-9.35
-4.61
0.11
4.43
8.07
10.85
12.68
13.6
13.76
13.42
12.87
12.37
12.08
12.05
12.15
12.24
12.15
11.79
11.17
10.38
9.59
8.92
8.44
8.07
7.59
6.75
5.35
3.33
0.83
-1.88
-4.5
-6.81
-8.76
-10.48
-12.21
-14.25
-16.77
-19.73
-22.8
-25.42
-26.97
-26.93
-25.1
-21.67
-17.11
-12.09
-7.2
-2.89
0.67
3.44
5.5
6.91
7.78
8.22
8.37
8.38
8.36
8.34
8.26
8.06
7.68
7.15
6.55
6
5.59
5.33
5.17
4.91
4.37
3.4
1.98
0.28
-1.51
-3.19
-4.77
-6.39
-8.22
-10.32
-12.57
-14.74
-16.66
-18.34
-20.02
-21.97
-24.26
-26.68
-28.73
-29.9
-29.84
-28.55
-26.41
-23.88
-21.37
-19.02
-16.73
-14.25
-11.46
-8.44
-5.58
-3.29
-1.8
-0.98
-0.31
0.93
3.39
7.37
12.66
18.64
24.48
29.47
33.38
36.6
40.02
44.77
51.68
60.94
71.84
82.9
92.23
98.01
98.97
94.71
85.72
73.12
58.4
43.11
28.61
15.92
5.6
-2.26
-7.94
-11.89
-14.41
-15.66
-15.7
-14.83
-13.84
-13.95
-16.38
-21.82
-30.04
-39.87
-49.76
-58.32
-64.82
-69.13
-71.47
-72.03
-70.89
-68.08
-63.83
-58.72
-53.55
-49.13
-45.97
-44.12
-43.2
-42.64
-41.86
-40.58
-38.87
-37.08
-35.65
-34.87
-34.74
-34.99
-35.19
-34.95
-34.04
-32.45
-30.31
-27.77
-24.87
-21.56
-17.73
-13.34
-8.46
-3.27
2.07
7.48
13.05
18.88
25.03
31.32
37.26
42.21
45.55
46.89
46.21
43.87
40.48
36.69
33.06
29.92
27.4
25.43
23.86
22.51
21.28
20.07
18.82
17.42
15.73
13.64
11.08
8.15
5.05
1.99
-0.89
-3.58
-6.21
-8.89
-11.55
-13.87
-15.32
-15.34
-13.6
-10.19
-5.69
-0.93
3.23
6.29
8.19
9.31
10.13
11.02
12.05
12.97
13.42
13.14
12.05
10.28
8.09
5.75
3.48
1.46
-0.16
-1.24
-1.72
-1.58
-0.95
-0.06
0.79
1.29
1.22
0.49
-0.86
-2.72
-4.95
-7.43
-10.09
-12.84
-15.5
-17.78
-19.32
-19.77
-18.93
-16.8
-13.58
-9.62
-5.32
-1.07
2.73
5.74
7.74
8.69
8.78
8.33
7.67
7.05
6.57
6.18
5.85
5.54
5.23
4.83
4.19
3.11
1.53
-0.37
-2.23
-3.65
-4.4
-4.59
-4.61
-4.98
-6.19
-8.41
-11.53
-15.15
-18.69
-21.51
-23.02
-22.77
-20.54
-16.43
-10.91
-4.7
1.37
6.61
10.55
13.09
14.37
14.67
14.38
13.84
13.31
12.93
12.69
12.43
11.92
10.98
9.55
7.77
5.9
4.22
2.93
2.12
1.75
1.75
1.91
1.96
1.47
-0.02
-2.88
-7.13
-12.39
-17.85
-22.54
-25.54
-26.35
-24.91
-21.68
-17.33
-12.59
-7.93
-3.6
0.4
4.16
7.71
11.01
13.94
16.35
18.17
19.42
20.18
20.57
20.66
20.42
19.8
18.7
17.08
14.97
12.49
9.81
7.11
4.53
2.13
-0.11
-2.29
-4.56
-7.12
-10.24
-14.19
-19.18
-25.15
-31.73
-38.2
-43.62
-47.1
-48.05
-46.33
-42.29
-36.61
-30.08
-23.38
-16.91
-10.86
-5.24
0
4.96
9.81
14.8
20.28
26.53
33.6
41.18
48.62
55.2
60.37
64
66.4
68.05
69.4
70.55
71.31
71.38
70.56
68.93
66.86
64.81
63.1
61.74
60.4
58.5
55.33
50.19
42.6
32.43
20.01
6.16
-7.92
-20.92
-31.81
-40.08
-45.86
-49.74
-52.45
-54.53
-56.08
-56.8
-56.24
-54.14
-50.51
-45.77
-40.51
-35.33
-30.67
-26.69
-23.35
-20.52
-18.05
-15.89
-14.13
-12.88
-12.22
-12.11
-12.34
-12.62
-12.75
-12.61
-12.22
-11.62
-10.75
-9.5
-7.79
-5.76
-3.84
-2.59
-2.48
-3.63
-5.8
-8.49
-11.25
-13.84
-16.25
-18.49
-20.42
-21.72
-21.97
-20.91
-18.62
-15.45
-11.87
-8.29
-4.88
-1.66
1.4
4.23
6.56
8.15
8.8
8.59
7.81
6.87
6.13
5.75
5.72
5.9
6.1
6.25
6.35
6.45
6.65
6.98
7.45
8.03
8.62
9.11
9.35
9.22
8.62
7.57
6.17
4.55
2.77
0.81
-1.45
-4.12
-7.16
-10.35
-13.27
-15.38
-16.22
-15.49
-13.19
-9.59
-5.16
-0.46
3.99
7.84
10.9
13.23
14.92
16.05
16.62
16.6
15.96
14.81
13.36
11.93
10.81
10.15
9.92
9.91
9.84
9.48
8.69
7.5
5.99
4.31
2.56
0.82
-0.87
-2.45
-3.88
-5.07
-5.98
-6.63
-7.13
-7.67
-8.46
-9.66
-11.29
-13.19
-15.05
-16.42
-16.91
-16.23
-14.34
-11.41
-7.79
-3.85
0.1
3.8
7.06
9.71
11.56
12.49
12.48
11.66
10.3
8.72
7.15
5.77
4.63
3.78
3.26
3.11
3.24
3.5
3.6
3.31
2.6
1.64
0.76
0.27
0.25
0.48
0.53
-0.03
-1.45
-3.72
-6.59
-9.66
-12.6
-15.14
-17.05
-18.14
-18.24
-17.22
-15.14
-12.26
-9
-5.88
-3.28
-1.39
-0.14
0.69
1.38
2.1
2.86
3.5
3.79
3.57
2.89
1.96
1.17
0.86
1.24
2.3
3.78
5.33
6.59
7.33
7.51
7.24
6.67
5.99
5.37
4.88
4.62
4.64
4.94
5.45
6.06
6.56
6.86
6.99
7.19
7.83
9.28
11.77
15.27
19.55
24.22
28.84
32.99
36.37
38.79
40.23
40.8
40.61
39.73
38.19
36.04
33.44
30.79
28.55
26.95
25.74
24.08
20.88
15.28
7.23
-2.42
-12.25
-20.9
-27.67
-32.74
-36.88
-40.93
-45.38
-50.15
-54.9
-59.25
-63.07
-66.41
-69.3
-71.53
-72.62
-71.95
-69.02
-63.75
-56.58
-48.38
-40.21
-32.98
-27.18
-22.76
-19.25
-16.09
-12.85
-9.55
-6.54
-4.43
-3.67
-4.42
-6.39
-9.04
-11.75
-13.99
-15.33
-15.38
-13.74
-10.02
-4.17
3.44
11.94
20.23
27.31
32.62
36.04
37.78
38.07
37.08
34.93
31.85
28.29
24.89
22.28
20.98
21.34
23.53
27.49
32.88
38.89
44.29
47.68
47.86
44.31
37.26
27.72
17.05
6.69
-2.21
-8.96
-13.4
-15.97
-17.55
-19.27
-22.1
-26.5
-32.2
-38.27
-43.44
-46.73
-47.86
-47.4
-46.62
-46.81
-48.66
-51.75
-54.67
-55.52
-52.85
-46.34
-36.95
-26.47
-16.66
-8.48
-1.84
4.04
9.97
16.19
22.36
27.87
32.44
36.35
40.43
45.64
52.61
61.33
71.13
81.03
90.24
98.62
106.95
116.69
129.33
145.45
163.95
181.92
195.26
199.99
193.78
177.02
152.95
126.73
103.79
87.99
80.37
78.86
79.23
76.67
67.61
50.81
27.69
1.67
-23.13
-43.35
-57.34
-65.46
-69.53
-71.87
-74.33
-77.49
-80.6
-82.13
-80.67
-75.4
-66.25
-53.81
-39.01
-22.85
-6.35
9.34
22.84
32.53
36.82
34.33
24.15
6.14
-18.66
-47.79
-77.6
-104.09
-124.34
-137.19
-143.21
-143.99
-141.02
-134.93
-125.52
-112.57
-96.84
-81.12
-68.62
-61.38
-59.43
-61.24
-64.74
-68.3
-71.19
-73.48
-77.07
-82.94
-90.25
-96.92
-101.38
-103.61
-104.91
-106.99
-111.08
-119.75
-133.41
-149.52
-163.85
-173.32
-177.53
-178.29
-178.15
-179.01
-184.11
-193.74
-204.15
-209.53
-205.41
-190.66
-166.94
-137.29
-85.55
-9.72
74.93
145.33
188.33
207.59
217.4
232.82
261.89
301.16
339.18
363.12
365.76
348.26
317.79
282.94
249.97
220.86
194.32
166.98
136.9
106.13
79.72
62.06
54.14
53.45
55.8
57.57
56.05
51.25
46.14
44.59
48.71
57.63
68.26
77.15
82.13
82.57
79.69
76.32
75.51
78.9
86
94.49
101.19
103
97.51
83.5
61.33
32.79
0.37
-33.32
-66.01
-95.98
-122.16
-143.93
-161.13
-173.74
-181.85
-185.67
-185.6
-182.25
-176.29
-168.36
-158.82
-147.78
-135.26
-121.44
-106.87
-92.43
-79.05
-67.28
-57.11
-48
-39.15
-29.89
-19.81
-8.88
2.81
15.09
27.83
40.84
53.83
66.31
77.61
86.88
93.21
95.75
93.86
87.3
76.28
61.44
43.77
24.44
4.81
-13.7
-29.82
-42.78
-52.61
-60.21
-66.9
-73.81
-81.26
-88.61
-94.67
-98.5
-99.9
-99.44
-97.81
-95.18
-90.9
-83.92
-73.68
-60.81
-47.16
-35.01
-26.16
-21.17
-19.5
-20.07
-21.89
-24.41
-27.35
-30.46
-33.26
-35.19
-35.91
-35.43
-34.15
-32.6
-31.27
-30.45
-30.18
-30.18
-30.01
-29.18
-27.47
-25.16
-22.86
-21.22
-20.41
-19.86
-18.53
-15.49
-10.58
-4.61
0.97
4.84
6.37
5.9
4.41
3.02
2.54
3.24
4.99
7.38
9.99
12.45
14.43
15.59
15.63
14.31
11.58
7.79
3.65
0.25
-1.3
-0.14
3.95
10.41
17.94
24.92
29.93
32.3
32.23
30.69
28.95
28.09
28.56
30.24
32.62
35.15
37.46
39.5
41.29
42.81
43.93
44.33
43.69
41.78
38.51
34.06
28.76
23.08
17.49
12.3
7.58
3.21
-0.95
-4.96
-8.61
-11.54
-13.43
-14.13
-13.82
-12.94
-11.94
-11.13
-10.52
-9.86
-8.84
-7.29
-5.27
-3.06
-1.06
0.55
1.92
3.6
6.36
10.9
17.54
25.96
35.35
44.53
52.33
57.85
60.63
60.69
58.41
54.45
49.64
44.82
40.74
37.84
36.09
34.92
33.35
30.18
24.52
16.18
5.78
-5.33
-15.56
-23.62
-28.86
-31.34
-31.58
-30.27
-28.13
-25.79
-23.92
-23.24
-24.39
-27.76
-33.25
-40.15
-47.27
-53.15
-56.5
-56.61
-53.6
-48.39
-42.36
-36.8
-32.36
-28.87
-25.48
-21.27
-15.77
-9.25
-2.69
2.74
6.18
7.44
7.13
6.31
5.99
6.79
8.71
11.38
14.36
17.46
20.65
23.92
26.96
29.15
29.81
28.65
25.95
22.5
19.12
16.21
13.52
10.42
6.37
1.33
-4.21
-9.37
-13.28
-15.3
-15.12
-12.65
-8.03
-1.54
6.28
14.74
23.14
30.94
37.88
43.98
49.33
54.04
58.18
61.9
65.37
68.77
72.07
74.91
76.61
76.44
73.91
69
62.21
54.39
46.42
39
32.66
27.8
24.79
23.93
25.3
28.67
33.4
38.56
43.08
46.01
46.67
44.86
40.81
35.05
28.23
20.81
13.02
4.9
-3.45
-11.86
-19.98
-27.47
-34.16
-40.14
-45.65
-50.93
-56.05
-60.89
-65.33
-69.31
-72.88
-76.03
-78.6
-80.16
-80.31
-78.78
-75.74
-71.8
-67.78
-64.44
-62.29
-61.43
-61.6
-62.36
-63.21
-63.73
-63.65
-62.81
-61.11
-58.53
-55.1
-50.82
-45.79
-40.14
-34.18
-28.26
-22.69
-17.6
-12.91
-8.31
-3.45
1.89
7.71
13.8
19.85
25.57
30.78
35.42
39.5
43.01
45.89
48.07
49.43
49.94
49.67
48.81
47.66
46.53
45.71
45.34
45.37
45.62
45.8
45.63
44.9
43.48
41.3
38.27
34.26
29.08
22.56
14.65
5.47
-4.67
-15.36
-26.19
-36.78
-46.73
-55.59
-62.88
-68.22
-71.47
-72.85
-72.85
-72.07
-70.97
-69.57
-67.55
-64.29
-59.2
-51.95
-42.62
-31.71
-20.04
-8.6
1.55
9.51
14.59
16.5
15.45
12.21
7.98
4.21
2.21
2.86
6.41
12.4
19.91
27.72
34.58
39.45
41.56
40.6
36.68
30.37
22.6
14.48
7.13
1.51
-1.74
-2.26
-0.01
4.86
11.99
20.9
30.92
41.33
51.4
60.44
67.91
73.35
76.52
77.31
75.88
72.61
68.07
62.92
57.74
52.87
48.41
44.18
40
35.76
31.58
27.76
24.64
22.43
21.09
20.33
19.76
19.05
18.07
16.9
15.75
14.83
14.21
13.79
13.34
12.56
11.22
9.25
6.75
4.05
1.68
0.22
0.25
2.12
5.85
11.12
17.35
23.81
29.78
34.65
37.89
39.14
38.23
35.29
30.77
25.39
19.95
15.13
11.36
8.8
7.34
6.7
6.45
5.99
4.68
2.01
-2.21
-7.64
-13.53
-18.92
-23.03
-25.58
-26.79
-27.27
-27.74
-28.76
-30.54
-32.96
-35.68
-38.19
-39.95
-40.52
-39.66
-37.36
-33.91
-29.79
-25.56
-21.63
-18.17
-15.05
-11.95
-8.59
-4.87
-0.92
2.97
6.46
9.37
11.69
13.55
15.06
16.31
17.29
18.01
18.55
19.02
19.56
20.21
20.88
21.39
21.55
21.29
20.62
19.7
18.7
17.74
16.84
15.93
14.87
13.49
11.71
9.57
7.31
5.31
4.05
3.93
5.12
7.48
10.57
13.72
16.23
17.58
17.52
16.1
13.56
10.18
6.19
1.76
-2.9
-7.48
-11.57
-14.76
-16.77
-17.58
-17.41
-16.64
-15.68
-14.92
-14.72
-15.34
-16.95
-19.51
-22.71
-26.02
-28.87
-30.82
-31.75
-31.93
-31.86
-32.08
-32.94
-34.53
-36.64
-38.83
-40.55
-41.2
-40.25
-37.32
-32.35
-25.64
-17.86
-9.88
-2.53
3.64
8.39
11.73
13.83
14.9
15.15
14.88
14.42
14.1
14.16
14.56
15.1
15.52
15.64
15.47
15.16
14.83
14.45
13.79
12.6
10.71
8.22
5.41
2.64
0.17
-1.94
-3.78
-5.51
-7.19
-8.79
-10.14
-11.02
-11.15
-10.29
-8.36
-5.41
-1.75
2.2
5.97
9.25
11.92
14.04
15.71
16.93
17.65
17.81
17.47
16.86
16.25
15.87
15.71
15.63
15.47
15.11
14.59
14.02
13.45
12.85
12.12
11.14
9.9
8.44
6.9
5.38
3.93
2.51
1.03
-0.66
-2.75
-5.39
-8.61
-12.24
-15.9
-19.1
-21.42
-22.62
-22.72
-21.92
-20.46
-18.57
-16.37
-14.01
-11.65
-9.44
-7.46
-5.68
-4
-2.34
-0.77
0.42
0.88
0.29
-1.4
-3.97
-6.94
-9.72
-11.82
-12.88
-12.84
-11.83
-10.2
-8.35
-6.72
-5.65
-5.24
-5.42
-5.96
-6.6
-7.16
-7.6
-8.01
-8.51
-9.16
-9.89
-10.52
-10.81
-10.53
-9.55
-7.81
-5.4
-2.44
0.82
4.09
7.03
9.3
10.67
11.08
10.65
9.68
8.54
7.56
6.84
6.35
5.85
5.15
4.16
2.97
1.82
0.93
0.45
0.37
0.56
0.87
1.14
1.25
1.11
0.64
-0.21
-1.46
-3.03
-4.81
-6.68
-8.52
-10.3
-12.02
-13.66
-15.1
-16.15
-16.49
-15.84
-14.05
-11.2
-7.59
-3.73
-0.12
2.79
4.75
5.66
5.6
4.71
3.25
1.53
-0.09
-1.31
-1.91
-1.91
-1.44
-0.77
-0.12
0.37
0.66
0.79
0.79
0.66
0.4
-0.04
-0.65
-1.41
-2.27
-3.27
-4.49
-6.03
-7.96
-10.22
-12.57
-14.64
-16.03
-16.39
-15.59
-13.73
-11.08
-7.99
-4.82
-1.86
0.71
2.78
4.37
5.54
6.41
7.11
7.65
7.99
7.99
7.52
6.54
5.15
3.56
2.02
0.74
-0.18
-0.74
-1.06
-1.33
-1.74
-2.44
-3.51
-4.94
-6.67
-8.59
-10.59
-12.63
-14.73
-16.96
-19.38
-21.93
-24.36
-26.27
-27.15
-26.63
-24.62
-21.44
-17.69
-14.05
-11.02
-8.78
-7.13
-5.66
-3.96
-1.72
1.28
5.12
9.89
15.55
21.95
28.74
35.46
41.67
47.07
51.57
55.14
57.79
59.4
59.83
59.04
57.25
54.89
52.43
50.13
47.85
45.12
41.36
36.23
29.88
22.97
16.52
11.53
8.76
8.38
10.03
12.81
15.64
17.49
17.75
16.29
13.48
9.92
6.2
2.74
-0.23
-2.59
-4.2
-4.92
-4.69
-3.68
-2.4
-1.66
-2.34
-5.12
-10.14
-16.8
-23.88
-29.84
-33.37
-33.79
-31.34
-27.03
-22.22
-18.22
-15.88
-15.59
-17.36
-20.96
-26.06
-32.18
-38.69
-44.78
-49.69
-52.76
-53.64
-52.28
-48.96
-44.25
-38.92
-33.81
-29.61
-26.72
-25.1
-24.35
-23.96
-23.55
-23.01
-22.49
-22.19
-22.18
-22.36
-22.43
-22.14
-21.32
-19.98
-18.16
-15.91
-13.26
-10.24
-7.02
-3.82
-0.97
1.26
2.74
3.46
3.56
3.21
2.57
1.78
0.95
0.15
-0.62
-1.38
-2.2
-3.11
-4.07
-4.86
-5.2
-4.79
-3.48
-1.33
1.4
4.32
7.03
9.27
10.86
11.81
12.12
11.88
11.18
10.2
9.13
8.18
7.45
6.93
6.49
5.92
5.13
4.08
2.93
1.82
0.89
0.16
-0.46
-1.13
-1.97
-3.04
-4.32
-5.74
-7.23
-8.76
-10.38
-12.1
-13.9
-15.64
-17.09
-18.04
-18.31
-17.81
-16.48
-14.3
-11.28
-7.55
-3.39
0.8
4.59
7.62
9.72
10.9
11.28
11.02
10.26
9.13
7.86
6.69
5.85
5.46
5.48
5.77
6.16
6.49
6.72
6.85
6.89
6.83
6.66
6.36
5.91
5.32
4.54
3.55
2.28
0.69
-1.26
-3.53
-6.04
-8.64
-11.08
-13.08
-14.36
-14.73
-14.11
-12.57
-10.28
-7.5
-4.49
-1.5
1.27
3.69
5.68
7.24
8.35
9.04
9.28
9.07
8.45
7.54
6.58
5.78
5.3
5.14
5.18
5.18
4.96
4.46
3.74
2.93
2.17
1.46
0.73
-0.14
-1.21
-2.44
-3.76
-5.08
-6.35
-7.6
-8.92
-10.34
-11.9
-13.53
-15.1
-16.37
-17.09
-16.95
-15.79
-13.61
-10.62
-7.17
-3.6
-0.15
3.07
6.05
8.76
11.09
12.86
13.94
14.3
14.05
13.42
12.64
11.9
11.27
10.82
10.55
10.44
10.43
10.44
10.38
10.17
9.78
9.18
8.35
7.28
5.99
4.57
3.21
2.1
1.32
0.82
0.37
-0.29
-1.39
-2.98
-5.01
-7.3
-9.64
-11.75
-13.3
-13.96
-13.46
-11.73
-8.97
-5.6
-2.11
1.09
3.81
6.04
7.88
9.38
10.56
11.35
11.74
11.72
11.39
10.87
10.25
9.62
9.01
8.46
8.06
7.9
8.07
8.59
9.35
10.19
10.89
11.27
11.18
10.56
9.4
7.72
5.53
2.9
-0.05
-3.15
-6.15
-8.82
-10.99
-12.61
-13.72
-14.43
-14.8
-14.82
-14.39
-13.42
-11.9
-9.95
-7.8
-5.73
-3.88
-2.3
-0.9
0.46
1.88
3.38
4.88
6.3
7.53
8.53
9.3
9.82
10.05
9.91
9.27
8.07
6.39
4.46
2.61
1.17
0.34
0.09
0.18
0.29
0.11
-0.5
-1.49
-2.67
-3.83
-4.86
-5.74
-6.55
-7.34
-8.11
-8.78
-9.32
-9.76
-10.21
-10.75
-11.33
-11.66
-11.29
-9.81
-7.03
-3.16
1.28
5.62
9.31
12.1
14.01
15.26
16.07
16.51
16.56
16.17
15.42
14.51
13.73
13.29
13.22
13.4
13.56
13.5
13.1
12.46
11.76
11.2
10.89
10.79
10.75
10.55
9.97
8.91
7.37
5.48
3.47
1.56
-0.15
-1.64
-2.99
-4.32
-5.74
-7.28
-8.91
-10.47
-11.72
-12.38
-12.15
-10.84
-8.44
-5.16
-1.41
2.35
5.69
8.38
10.33
11.62
12.39
12.73
12.71
12.33
11.58
10.51
9.24
7.92
6.72
5.72
4.93
4.32
3.88
3.64
3.65
3.94
4.4
4.81
4.92
4.52
3.55
2.12
0.41
-1.33
-2.93
-4.34
-5.59
-6.82
-8.21
-9.89
-11.87
-13.98
-15.96
-17.44
-18.13
-17.82
-16.44
-14.01
-10.72
-6.84
-2.8
0.9
3.84
5.73
6.55
6.51
5.97
5.25
4.54
3.86
3.13
2.22
1.09
-0.2
-1.55
-2.82
-3.9
-4.74
-5.33
-5.69
-5.86
-5.92
-5.96
-6.13
-6.53
-7.2
-8.1
-9.1
-10.16
-11.33
-12.73
-14.46
-16.47
-18.46
-19.95
-20.55
-20
-18.32
-15.75
-12.53
-8.87
-4.89
-0.74
3.32
6.93
9.72
11.44
12.05
11.72
10.76
9.46
8.1
6.87
5.9
5.24
4.9
4.79
4.78
4.73
4.51
4.03
3.32
2.49
1.7
1.11
0.77
0.62
0.45
0.03
-0.88
-2.39
-4.48
-6.96
-9.56
-11.89
-13.55
-14.21
-13.71
-12.06
-9.53
-6.53
-3.52
-0.86
1.24
2.75
3.81
4.62
5.35
6.08
6.75
7.21
7.29
6.9
6.05
4.89
3.59
2.32
1.16
0.08
-1.01
-2.18
-3.52
-5
-6.56
-8.09
-9.46
-10.57
-11.38
-11.93
-12.41
-13.05
-14.05
-15.51
-17.26
-18.91
-19.91
-19.74
-18.11
-15.05
-10.91
-6.24
-1.59
2.58
6.06
8.8
10.92
12.57
13.88
14.92
15.65
16.06
16.14
15.96
15.61
15.18
14.72
14.23
13.67
13.02
12.29
11.5
10.68
9.78
8.74
7.47
5.9
4.06
2.06
0.08
-1.76
-3.44
-5.07
-6.85
-8.87
-11.04
-13.05
-14.47
-14.93
-14.23
-12.35
-9.44
-5.72
-1.5
2.89
7.02
10.49
13
14.48
15.02
14.88
14.32
13.59
12.83
12.16
11.64
11.26
10.93
10.51
9.87
8.91
7.66
6.18
4.56
2.93
1.44
0.25
-0.53
-0.95
-1.19
-1.57
-2.4
-3.86
-5.89
-8.28
-10.77
-13.09
-14.99
-16.24
-16.56
-15.66
-13.4
-9.88
-5.47
-0.78
3.58
7.09
9.53
10.94
11.59
11.79
11.79
11.67
11.35
10.76
9.83
8.65
7.39
6.25
5.34
4.68
4.2
3.81
3.44
3.04
2.52
1.78
0.75
-0.62
-2.25
-3.97
-5.65
-7.17
-8.51
-9.72
-10.91
-12.19
-13.61
-15.18
-16.71
-17.87
-18.21
-17.37
-15.21
-11.93
-8.02
-4.05
-0.48
2.54
5.05
7.2
9.07
10.56
11.5
11.72
11.25
10.28
9.13
8.07
7.21
6.52
5.87
5.18
4.45
3.74
3.09
2.46
1.67
0.56
-0.91
-2.62
-4.3
-5.69
-6.65
-7.25
-7.74
-8.42
-9.53
-11.15
-13.23
-15.47
-17.47
-18.73
-18.81
-17.48
-14.79
-11.06
-6.81
-2.55
1.34
4.62
7.26
9.33
10.94
12.19
13.18
13.94
14.46
14.65
14.37
13.52
12.01
9.88
7.25
4.41
1.67
-0.67
-2.43
-3.65
-4.52
-5.35
-6.42
-7.85
-9.55
-11.26
-12.68
-13.6
-13.99
-14.04
-14.03
-14.28
-14.98
-16.13
-17.45
-18.51
-18.78
-17.86
-15.54
-11.92
-7.28
-2.11
3.1
7.83
11.68
14.39
15.92
16.48
16.48
16.36
16.43
16.74
17.1
17.22
16.86
15.99
14.78
13.46
12.21
11.07
9.97
8.82
7.61
6.38
5.22
4.09
2.85
1.29
-0.79
-3.41
-6.43
-9.52
-12.4
-14.84
-16.79
-18.28
-19.31
-19.84
-19.67
-18.63
-16.6
-13.62
-9.94
-5.9
-1.89
1.77
4.88
7.38
9.28
10.59
11.34
11.51
11.13
10.3
9.21
8.12
7.25
6.67
6.32
6.02
5.57
4.88
4.03
3.24
2.74
2.61
2.76
2.9
2.7
1.96
0.62
-1.2
-3.28
-5.45
-7.62
-9.8
-11.99
-14.14
-16.1
-17.6
-18.38
-18.23
-17.03
-14.78
-11.59
-7.65
-3.25
1.24
5.44
9
11.7
13.48
14.41
14.6
14.17
13.21
11.84
10.22
8.55
7.03
5.76
4.72
3.76
2.69
1.39
-0.19
-1.96
-3.8
-5.5
-6.92
-7.92
-8.48
-8.73
-8.85
-9.13
-9.79
-10.96
-12.54
-14.28
-15.71
-16.33
-15.69
-13.53
-9.93
-5.2
0.09
5.36
10.15
14.14
17.22
19.4
20.73
21.29
21.15
20.36
19
17.1
14.78
12.16
9.45
6.92
4.8
3.2
2.06
1.18
0.31
-0.68
-1.78
-2.84
-3.75
-4.55
-5.43
-6.69
-8.53
-10.98
-13.83
-16.71
-19.23
-21.02
-21.75
-21.17
-19.12
-15.62
-10.94
-5.59
-0.22
4.56
8.33
10.98
12.68
13.74
14.45
15.01
15.45
15.68
15.59
15.12
14.31
13.28
12.13
10.9
9.57
8.07
6.4
4.7
3.17
2.02
1.33
0.94
0.47
-0.57
-2.56
-5.58
-9.38
-13.47
-17.28
-20.32
-22.24
-22.83
-21.96
-19.59
-15.83
-10.99
-5.58
-0.15
4.81
9.04
12.49
15.2
17.24
18.61
19.28
19.28
18.75
17.84
16.78
15.76
14.95
14.46
14.38
14.7
15.29
15.93
16.36
16.35
15.79
14.71
13.19
11.37
9.26
6.78
3.78
0.12
-4.19
-8.94
-13.72
-18.03
-21.45
-23.73
-24.83
-24.76
-23.58
-21.35
-18.18
-14.37
-10.38
-6.77
-3.97
-2.18
-1.36
-1.34
-2.04
-3.49
-5.85
-9.2
-13.39
-17.97
-22.35
-25.99
-28.62
-30.26
-31.16
-31.55
-31.5
-30.82
-29.23
-26.52
-22.75
-18.24
-13.43
-8.71
-4.25
-0.01
4.15
8.3
12.37
16.22
19.79
23.29
27.12
31.82
37.69
44.6
51.89
58.54
63.46
65.88
65.59
62.97
58.7
53.47
47.66
41.25
34.05
25.88
16.85
7.38
-1.88
-10.28
-17.34
-22.82
-26.79
-29.45
-31.11
-32.11
-32.74
-33.28
-33.97
-34.95
-36.21
-37.45
-38.18
-37.77
-35.83
-32.33
-27.78
-23.03
-18.91
-15.9
-14.02
-12.88
-12.06
-11.36
-10.91
-11.02
-11.83
-13.06
-14.04
-13.94
-12.22
-8.93
-4.83
-1.11
1.12
1.2
-0.84
-4.4
-8.67
-12.95
-16.86
-20.23
-22.85
-24.41
-24.54
-22.99
-19.91
-15.76
-11.18
-6.68
-2.56
1
3.75
5.15
4.56
1.45
-4.18
-11.64
-19.69
-26.96
-32.35
-35.32
-35.87
-34.27
-30.87
-25.89
-19.6
-12.36
-4.83
2.23
8.13
12.57
15.74
18.17
20.41
22.65
24.71
26.21
26.89
26.88
26.57
26.34
26.3
26.24
25.86
25.06
24.04
23.17
22.62
22.23
21.57
20.25
18.31
16.24
14.72
14.22
14.7
15.63
16.27
16.11
15.04
13.34
11.49
9.92
8.94
8.69
9.23
10.55
12.59
15.17
17.99
20.67
22.75
23.91
23.91
22.79
20.82
18.49
16.39
14.99
14.61
15.23
16.62
18.28
19.71
20.48
20.4
19.55
18.21
16.75
15.41
14.25
13.16
11.94
10.5
8.85
7.09
5.16
2.78
-0.5
-5.06
-10.85
-17.23
-23.12
-27.44
-29.48
-29.28
-27.48
-24.95
-22.42
-20.15
-18.05
-15.93
-13.8
-11.94
-10.8
-10.72
-11.69
-13.35
-15.13
-16.49
-17.13
-17.06
-16.51
-15.8
-15.18
-14.78
-14.62
-14.64
-14.83
-15.26
-16.02
-17.24
-18.93
-20.97
-23.06
-24.78
-25.67
-25.44
-23.98
-21.41
-17.97
-13.88
-9.22
-3.95
1.91
8.23
14.65
20.67
25.83
29.8
32.47
33.88
34.13
33.34
31.65
29.29
26.59
23.9
21.49
19.38
17.42
15.34
12.96
10.25
7.36
4.53
1.95
-0.33
-2.34
-4.22
-6.1
-8.1
-10.31
-12.72
-15.24
-17.59
-19.35
-20.08
-19.43
-17.3
-13.87
-9.52
-4.72
0.07
4.51
8.37
11.47
13.7
15.06
15.65
15.69
15.41
14.98
14.47
13.83
12.99
11.94
10.77
9.6
8.52
7.54
6.56
5.51
4.36
3.17
2.04
0.99
-0.07
-1.31
-2.92
-5.04
-7.64
-10.56
-13.44
-15.84
-17.29
-17.44
-16.17
-13.59
-10.05
-5.96
-1.74
2.31
6.01
9.24
11.94
14.06
15.58
16.47
16.75
16.42
15.55
14.25
12.72
11.2
9.87
8.8
7.95
7.17
6.33
5.35
4.21
2.98
1.72
0.45
-0.87
-2.3
-3.92
-5.75
-7.76
-9.88
-12.07
-14.28
-16.46
-18.5
-20.09
-20.86
-20.38
-18.44
-15.11
-10.77
-5.97
-1.27
2.95
6.44
9.09
10.88
11.83
12.05
11.72
11.08
10.3
9.49
8.64
7.73
6.76
5.79
4.92
4.26
3.84
3.64
3.59
3.61
3.54
3.28
2.7
1.77
0.5
-0.99
-2.62
-4.29
-6.02
-7.86
-9.91
-12.24
-14.83
-17.5
-19.91
-21.6
-22.13
-21.18
-18.71
-14.96
-10.4
-5.56
-0.99
2.91
5.89
7.89
9.02
9.51
9.62
9.59
9.51
9.4
9.19
8.84
8.38
7.89
7.48
7.23
7.16
7.23
7.32
7.27
6.89
6.04
4.61
2.65
0.28
-2.27
-4.78
-6.99
-8.7
-9.74
-10.1
-9.97
-9.73
-9.91
-10.92
-12.87
-15.48
-18.1
-19.97
-20.49
-19.39
-16.81
-13.18
-9.03
-4.87
-1.06
2.16
4.72
6.66
8
8.84
9.22
9.23
8.96
8.52
8.07
7.67
7.33
6.95
6.44
5.75
4.93
4.12
3.49
3.19
3.23
3.5
3.8
3.85
3.46
2.53
1.14
-0.54
-2.27
-3.88
-5.27
-6.46
-7.52
-8.59
-9.76
-11.15
-12.8
-14.65
-16.52
-18.03
-18.76
-18.31
-16.51
-13.47
-9.52
-5.14
-0.82
3.06
6.27
8.67
10.25
11.07
11.23
10.85
10.06
9.03
7.94
6.97
6.24
5.77
5.49
5.21
4.79
4.21
3.58
3.03
2.65
2.34
1.85
0.9
-0.58
-2.49
-4.53
-6.39
-7.87
-8.99
-9.91
-10.87
-12.09
-13.7
-15.69
-17.93
-20.13
-21.88
-22.72
-22.26
-20.35
-17.09
-12.87
-8.18
-3.51
0.81
4.62
7.85
10.45
12.39
13.61
14.14
14.14
13.88
13.59
13.42
13.28
12.96
12.29
11.28
10.18
9.32
8.98
9.15
9.56
9.82
9.63
8.9
7.73
6.32
4.78
3.13
1.31
-0.72
-2.92
-5.19
-7.46
-9.7
-11.96
-14.28
-16.59
-18.65
-20.05
-20.39
-19.41
-17.1
-13.74
-9.72
-5.47
-1.27
2.75
6.52
9.92
12.73
14.72
15.77
16
15.71
15.25
14.83
14.5
14.13
13.61
12.89
12.05
11.18
10.35
9.53
8.67
7.69
6.6
5.43
4.23
2.99
1.68
0.26
-1.25
-2.81
-4.36
-5.87
-7.41
-9.1
-11.05
-13.35
-15.93
-18.66
-21.22
-23.26
-24.41
-24.36
-22.91
-20.06
-15.93
-10.88
-5.37
0.06
4.86
8.64
11.16
12.45
12.71
12.23
11.34
10.33
9.44
8.84
8.66
8.85
9.27
9.62
9.6
9.06
8.03
6.76
5.56
4.68
4.17
3.87
3.55
2.99
2.15
1.07
-0.13
-1.38
-2.68
-4.11
-5.75
-7.67
-9.88
-12.32
-14.87
-17.28
-19.19
-20.16
-19.81
-17.96
-14.66
-10.23
-5.11
0.26
5.5
10.26
14.18
16.93
18.3
18.33
17.35
15.88
14.46
13.41
12.78
12.39
11.96
11.32
10.46
9.46
8.44
7.49
6.59
5.72
4.85
3.95
3.02
2.02
0.88
-0.5
-2.15
-4.02
-5.97
-7.77
-9.29
-10.55
-11.71
-13.04
-14.73
-16.74
-18.82
-20.54
-21.39
-20.99
-19.15
-15.95
-11.66
-6.68
-1.49
3.52
8.01
11.8
14.81
17
18.36
18.89
18.62
17.67
16.26
14.66
13.11
11.72
10.45
9.2
7.81
6.28
4.72
3.32
2.28
1.66
1.37
1.23
1.02
0.59
-0.09
-0.99
-2.08
-3.39
-4.98
-6.95
-9.34
-12.07
-14.93
-17.63
-19.8
-21.07
-21.12
-19.74
-16.91
-12.84
-7.97
-2.91
1.75
5.6
8.45
10.33
11.36
11.7
11.47
10.82
9.94
9.07
8.42
8.07
7.96
7.92
7.82
7.59
7.21
6.71
6.09
5.24
4.05
2.49
0.61
-1.42
-3.44
-5.39
-7.29
-9.25
-11.34
-13.55
-15.8
-17.91
-19.75
-21.21
-22.17
-22.48
-21.9
-20.18
-17.12
-12.8
-7.57
-2.03
3.21
7.68
11.17
13.72
15.46
16.51
16.94
16.79
16.2
15.36
14.49
13.72
13.08
12.51
11.99
11.52
11.19
11.04
10.98
10.83
10.34
9.37
7.89
6
3.84
1.54
-0.8
-3.12
-5.32
-7.39
-9.41
-11.54
-13.98
-16.79
-19.78
-22.48
-24.24
-24.48
-22.86
-19.42
-14.59
-9.01
-3.36
1.81
6.15
9.56
12.05
13.71
14.62
14.84
14.45
13.61
12.54
11.48
10.64
10.12
9.89
9.82
9.74
9.56
9.3
9.05
8.93
8.89
8.73
8.11
6.77
4.61
1.84
-1.16
-3.94
-6.28
-8.15
-9.78
-11.48
-13.48
-15.83
-18.32
-20.55
-22.04
-22.33
-21.12
-18.39
-14.39
-9.61
-4.63
-0.03
3.77
6.58
8.43
9.57
10.26
10.75
11.17
11.51
11.72
11.7
11.46
11
10.4
9.66
8.8
7.85
6.89
6.03
5.31
4.72
4.1
3.27
2.06
0.47
-1.39
-3.29
-5.03
-6.55
-7.93
-9.39
-11.13
-13.26
-15.69
-18.06
-19.93
-20.81
-20.37
-18.45
-15.16
-10.78
-5.7
-0.43
4.54
8.7
11.7
13.41
13.95
13.67
13
12.29
11.7
11.26
10.86
10.4
9.86
9.23
8.57
7.92
7.31
6.74
6.17
5.48
4.54
3.21
1.44
-0.7
-3.03
-5.33
-7.45
-9.34
-11.06
-12.77
-14.58
-16.57
-18.69
-20.76
-22.47
-23.45
-23.3
-21.7
-18.55
-14
-8.47
-2.57
3.06
7.89
11.62
14.19
15.73
16.47
16.69
16.59
16.3
15.9
15.42
14.85
14.15
13.27
12.17
10.89
9.52
8.23
7.16
6.33
5.64
4.9
3.84
2.29
0.21
-2.32
-5.12
-7.97
-10.67
-13.1
-15.26
-17.23
-19.14
-21.04
-22.8
-24.08
-24.41
-23.35
-20.64
-16.38
-10.94
-4.95
0.92
6.08
10.16
13
14.65
15.33
15.34
15.01
14.63
14.34
14.21
14.15
14.04
13.71
13.08
12.13
10.97
9.74
8.6
7.7
7.05
6.57
6.06
5.23
3.8
1.63
-1.18
-4.32
-7.34
-9.86
-11.68
-12.92
-13.9
-15
-16.37
-17.9
-19.2
-19.79
-19.28
-17.45
-14.33
-10.12
-5.18
0.06
5.12
9.52
12.87
15
15.94
15.95
15.39
14.59
13.79
13.07
12.45
11.93
11.51
11.16
10.85
10.53
10.15
9.69
9.15
8.57
7.98
7.35
6.62
5.69
4.48
2.96
1.15
-0.87
-3.01
-5.21
-7.41
-9.67
-12.04
-14.56
-17.18
-19.65
-21.58
-22.48
-21.96
-19.89
-16.45
-12.08
-7.33
-2.72
1.47
5.12
8.2
10.67
12.41
13.31
13.31
12.56
11.32
9.9
8.58
7.49
6.69
6.19
5.98
6.01
6.16
6.25
6.11
5.66
4.97
4.19
3.5
2.95
2.43
1.73
0.64
-0.97
-3.1
-5.71
-8.7
-11.94
-15.23
-18.28
-20.7
-22.06
-22.06
-20.62
-17.96
-14.5
-10.73
-7.04
-3.62
-0.51
2.3
4.79
6.82
8.24
8.97
9.02
8.6
7.94
7.24
6.62
6.06
5.53
4.95
4.23
3.32
2.16
0.75
-0.83
-2.45
-3.92
-5.07
-5.84
-6.29
-6.64
-7.17
-8.22
-10
-12.55
-15.65
-18.81
-21.34
-22.55
-21.94
-19.35
-15.05
-9.66
-3.95
1.34
5.75
9.13
11.68
13.73
15.62
17.45
19.06
20.09
20.16
19.14
17.17
14.72
12.31
10.35
8.98
8.17
7.79
7.68
7.72
7.76
7.58
6.93
5.64
3.66
1.19
-1.47
-4
-6.2
-8.09
-9.84
-11.68
-13.74
-15.93
-17.89
-19.08
-18.95
-17.17
-13.73
-9.01
-3.62
1.79
6.67
10.71
13.84
16.08
17.58
18.39
18.62
18.33
17.66
16.81
16.04
15.6
15.62
16.04
16.65
17.18
17.39
17.26
16.88
16.51
16.39
16.78
17.88
19.8
22.41
25.16
27
26.6
22.8
15.13
4.09
-8.94
-22.1
-33.55
-41.92
-46.36
-46.52
-42.44
-34.47
-23.36
-10.16
3.82
17.27
29.01
38.15
44.05
46.33
44.96
40.23
32.82
23.64
13.62
3.52
-6.11
-14.86
-22.37
-28.26
-32.24
-34.31
-34.85
-34.57
-34.33
-34.84
-36.49
-39.19
-42.46
-45.6
-47.84
-48.6
-47.58
-44.87
-40.92
-36.37
-31.91
-28.04
-24.98
-22.62
-20.63
-18.48
-15.63
-11.71
-6.6
-0.61
5.54
10.88
14.45
15.65
14.41
11.28
7.25
3.42
0.71
-0.33
0.32
2.34
5.07
7.76
9.66
10.15
8.83
5.68
1.08
-4.22
-9.24
-12.94
-14.56
-13.72
-10.59
-5.87
-0.63
3.94
6.82
7.46
5.91
2.82
-0.84
-4.04
-6.02
-6.4
-5.13
-2.4
1.5
6.24
11.39
16.44
20.83
24.05
25.85
26.28
25.77
24.9
24.17
23.8
23.72
23.62
23.23
22.45
21.37
20.23
19.21
18.38
17.7
17.06
16.39
15.61
14.68
13.49
11.94
9.96
7.55
4.83
1.93
-1.01
-3.93
-6.81
-9.69
-12.55
-15.37
-18.06
-20.47
-22.42
-23.61
-23.73
-22.58
-20.14
-16.62
-12.46
-8.15
-4.1
-0.54
2.43
4.84
6.67
7.9
8.46
8.35
7.68
6.6
5.3
3.88
2.42
0.93
-0.52
-1.82
-2.84
-3.49
-3.81
-3.9
-3.93
-4.06
-4.37
-4.92
-5.73
-6.77
-8.06
-9.57
-11.27
-13.16
-15.18
-17.27
-19.26
-20.87
-21.73
-21.5
-19.95
-17.07
-13.07
-8.31
-3.19
1.94
6.81
11.15
14.69
17.13
18.29
18.16
17.01
15.28
13.47
11.93
10.74
9.81
8.93
7.94
6.78
5.48
4
2.27
0.18
-2.27
-4.89
-7.29
-9.03
-9.82
-9.64
-8.72
-7.5
-6.47
-6.02
-6.38
-7.57
-9.4
-11.54
-13.58
-15.1
-15.8
-15.58
-14.51
-12.82
-10.76
-8.55
-6.32
-4.13
-2.02
-0.1
1.51
2.73
3.61
4.35
5.27
6.63
8.6
11.1
13.87
16.63
19.05
20.87
21.9
21.98
21.13
19.62
17.92
16.61
16.11
16.45
17.23
17.66
16.9
14.38
10.07
4.52
-1.32
-6.38
-9.89
-11.54
-11.59
-10.62
-9.31
-8.15
-7.35
-6.87
-6.6
-6.45
-6.4
-6.44
-6.49
-6.41
-6
-5.19
-4.07
-2.94
-2.12
-1.86
-2.2
-2.94
-3.75
-4.32
-4.49
-4.34
-4.11
-4.06
-4.4
-5.21
-6.47
-8.1
-10
-12.05
-14.18
-16.35
-18.55
-20.77
-22.86
-24.56
-25.42
-24.97
-22.82
-18.85
-13.26
-6.53
0.74
7.89
14.37
19.78
23.89
26.71
28.37
29.14
29.31
29.11
28.68
28.03
27.11
25.87
24.29
22.36
20.13
17.68
15.12
12.62
10.35
8.44
6.94
5.78
4.82
3.91
2.89
1.64
0.06
-1.92
-4.35
-7.23
-10.49
-13.99
-17.48
-20.64
-23.04
-24.25
-23.9
-21.82
-18.11
-13.14
-7.46
-1.55
4.2
9.59
14.47
18.69
22.02
24.22
25.16
24.85
23.51
21.45
19.03
16.59
14.43
12.76
11.68
11.16
11
10.9
10.56
9.75
8.4
6.61
4.55
2.42
0.37
-1.55
-3.34
-5.06
-6.8
-8.66
-10.75
-13.12
-15.74
-18.44
-20.85
-22.46
-22.73
-21.28
-18.05
-13.39
-7.95
-2.54
2.16
5.73
8.09
9.4
9.9
9.84
9.39
8.69
7.84
6.99
6.3
5.87
5.71
5.73
5.78
5.72
5.51
5.15
4.71
4.21
3.63
2.86
1.81
0.43
-1.21
-2.9
-4.45
-5.72
-6.75
-7.76
-9.09
-11.02
-13.65
-16.73
-19.7
-21.85
-22.53
-21.38
-18.44
-14.14
-9.08
-3.92
0.84
4.85
8
10.31
11.87
12.83
13.3
13.37
13.11
12.54
11.68
10.51
9.01
7.23
5.27
3.3
1.5
0.03
-1.14
-2.11
-3.09
-4.22
-5.51
-6.83
-7.99
-8.89
-9.58
-10.28
-11.27
-12.77
-14.8
-17.12
-19.27
-20.7
-20.9
-19.55
-16.61
-12.32
-7.16
-1.67
3.6
8.24
12
14.79
16.63
17.62
17.87
17.57
16.9
16.04
15.14
14.3
13.51
12.75
11.92
10.94
9.77
8.39
6.83
5.18
3.52
1.91
0.41
-1.05
-2.55
-4.22
-6.15
-8.45
-11.15
-14.24
-17.61
-20.99
-23.98
-26.13
-26.99
-26.32
-24.1
-20.55
-16.05
-11
-5.76
-0.62
4.2
8.51
12.14
14.96
16.9
17.99
18.29
17.94
17.09
15.88
14.46
12.94
11.44
10.08
8.96
8.12
7.5
6.92
6.17
5.1
3.64
1.88
0
-1.81
-3.48
-5.06
-6.64
-8.35
-10.21
-12.24
-14.41
-16.66
-18.86
-20.72
-21.83
