1675342016.00
64.000000
-0.00
-0.00
-0.00
-0.00
-0.00
-0.00
-0.00
-0.00
-0.00
-0.00
0.00
0.01
0.01
-0.00
-0.03
-0.05
-0.05
0.00
0.13
0.36
0.66
1.01
1.37
1.72
2.06
2.40
2.79
3.24
3.80
4.42
5.06
5.66
6.20
6.68
7.15
7.68
8.31
9.14
10.09
11.04
11.88
12.56
13.14
13.76
14.65
15.96
17.91
20.32
22.90
25.38
27.58
29.57
31.68
34.32
37.81
42.54
48.15
54.10
59.83
64.97
69.58
74.14
79.34
85.71
93.76
103.00
112.62
121.73
129.77
136.75
143.30
150.75
157.77
166.64
177.95
191.79
206.97
220.57
228.25
225.36
208.53
176.87
132.76
80.05
23.07
-34.94
-92.44
-149.16
-205.23
-260.37
-313.74
-363.87
-409.83
-450.91
-486.50
-515.74
-537.23
-549.22
-549.96
-538.37
-514.21
-478.67
-433.88
-382.45
-327.02
-269.84
-212.63
-156.66
-102.95
-52.37
-5.90
35.58
71.43
101.35
125.50
144.38
158.69
169.15
176.37
180.75
182.57
182.07
179.51
175.23
169.65
163.18
156.15
148.81
141.30
133.69
126.02
118.33
110.69
103.16
95.80
88.68
81.83
75.25
68.95
62.95
57.25
51.86
46.78
42.03
37.59
33.45
29.61
26.07
22.81
19.83
17.11
14.67
12.48
10.54
8.83
7.35
6.07
4.97
4.05
3.27
2.62
2.09
1.65
1.30
1.01
0.79
0.61
0.48
0.37
0.28
0.22
0.17
0.14
0.11
0.09
0.08
0.08
0.08
0.08
0.09
0.11
0.13
0.16
0.19
0.22
0.26
0.30
0.34
0.38
0.43
0.47
0.52
0.57
0.62
0.68
0.74
0.81
0.88
0.97
1.06
1.15
1.26
1.39
1.52
1.67
1.83
2.01
2.21
2.44
2.68
2.96
3.26
3.59
3.95
4.35
4.78
5.25
5.75
6.30
6.88
7.52
8.19
8.91
9.68
10.49
11.35
12.26
13.20
14.21
15.29
16.42
17.62
18.87
20.14
21.40
22.59
23.62
24.40
24.79
24.66
23.89
22.38
20.12
17.16
13.61
9.61
5.36
1.06
-3.13
-7.04
-10.55
-13.57
-16.02
-17.89
-19.19
-19.99
-20.44
-20.70
-20.92
-21.19
-21.55
-21.90
-22.10
-21.98
-21.46
-20.57
-19.45
-18.31
-17.29
-16.45
-15.69
-14.79
-13.58
-12.01
-10.30
-8.84
-8.05
-8.21
-9.29
-10.95
-12.65
-13.92
-14.59
-15.00
-15.69
-17.35
-20.37
-24.66
-29.61
-34.38
-38.29
-41.11
-43.20
-45.21
-47.87
-51.81
-57.61
-65.61
-75.77
-87.16
-97.71
-104.44
-104.30
-95.64
-79.17
-57.96
-36.27
-17.90
-4.98
2.44
4.62
2.32
-3.92
-13.74
-26.56
-40.92
-54.66
-65.70
-73.11
-77.75
-81.40
-85.51
-89.73
-91.42
-86.44
-71.25
-44.74
-9.18
30.49
68.50
99.98
122.26
135.14
140.54
141.65
141.94
144.02
148.61
153.93
155.93
150.02
133.59
108.10
79.62
57.12
49.43
62.01
95.01
142.95
196.27
243.92
276.30
287.66
277.35
249.47
211.12
169.78
130.92
96.77
66.71
38.77
11.49
-15.04
-39.26
-59.06
-72.74
-79.68
-80.11
-74.68
-63.99
-48.43
-28.56
-5.69
17.73
38.26
52.27
57.34
53.23
42.17
27.92
14.16
2.95
-6.09
-15.27
-27.56
-44.92
-67.17
-91.90
-115.30
-133.61
-144.57
-148.20
-146.64
-143.19
-141.03
-142.09
-146.57
-153.14
-159.71
-164.31
-165.79
-163.77
-158.21
-148.69
-134.00
-112.52
-83.14
-46.42
-5.01
37.03
75.63
108.36
135.07
157.57
178.30
199.09
220.60
242.49
263.90
283.72
300.49
312.48
318.13
317.09
311.11
304.00
300.51
304.33
316.41
334.33
353.31
368.03
374.40
370.58
356.78
334.48
305.50
271.60
234.41
195.65
157.08
120.41
86.85
56.90
30.26
6.19
-16.13
-37.25
-57.39
-76.54
-94.73
-112.11
-128.98
-145.58
-162.00
-178.10
-193.58
-208.20
-221.89
-234.95
-248.08
-262.30
-278.76
-298.14
-319.89
-341.64
-359.27
-368.11
-364.90
-349.73
-326.52
-301.59
-280.85
-267.05
-258.72
-251.39
-240.15
-221.93
-196.16
-163.88
-126.30
-84.12
-38.12
9.55
54.83
92.74
119.57
134.72
141.06
143.19
144.91
147.53
149.95
150.47
148.48
145.15
142.32
140.69
138.72
133.11
120.65
100.20
73.52
44.51
17.28
-5.52
-23.37
-37.18
-48.19
-57.13
-63.82
-67.53
-67.49
-63.52
-56.30
-47.53
-39.60
-34.81
-34.55
-38.77
-46.08
-54.51
-62.43
-69.15
-74.79
-79.79
-84.17
-87.44
-88.92
-88.36
-86.22
-83.62
-81.86
-81.88
-84.10
-88.44
-94.48
-101.62
-109.08
-115.96
-121.19
-123.86
-123.29
-119.17
-111.64
-101.26
-89.22
-77.31
-67.98
-63.74
-66.51
-76.65
-92.61
-111.27
-129.07
-143.31
-153.03
-159.21
-163.96
-169.64
-178.20
-190.88
-208.26
-229.91
-253.99
-276.90
-293.65
-299.09
-289.59
-264.35
-225.49
-176.93
-122.78
-66.41
-10.40
42.56
89.24
126.19
150.98
163.60
166.70
164.59
161.33
159.25
158.45
157.65
155.54
151.78
147.17
142.80
139.30
136.32
132.93
128.15
121.64
113.73
105.34
97.58
91.43
87.55
85.99
86.01
85.95
83.60
77.14
65.97
51.23
35.37
21.17
10.42
3.39
-0.89
-3.52
-4.67
-3.30
2.29
13.36
29.78
49.73
70.25
88.02
100.13
104.50
100.05
86.83
66.20
40.80
14.27
-9.60
-27.92
-39.72
-46.29
-50.59
-55.99
-64.83
-77.53
-92.61
-107.60
-120.18
-129.15
-134.44
-136.55
-135.73
-131.47
-122.83
-109.28
-91.50
-71.73
-53.04
-38.11
-28.03
-21.79
-16.87
-10.60
-1.48
10.10
22.12
32.16
38.57
41.26
41.60
41.55
42.63
45.28
48.79
51.81
53.22
52.54
50.10
46.69
43.03
39.42
35.66
31.30
26.12
20.42
15.03
11.06
9.38
10.31
13.52
18.23
23.58
28.96
34.11
39.04
43.73
48.05
51.65
54.01
54.75
53.73
51.17
47.65
43.78
40.04
36.57
33.12
29.23
24.62
19.32
13.69
8.27
3.48
-0.59
-4.02
-6.98
-9.45
-11.15
-11.74
-10.99
-8.99
-6.21
-3.28
-0.82
0.83
1.61
1.71
1.44
1.09
0.87
0.86
1.12
1.70
2.73
4.32
6.49
9.08
11.72
13.84
14.85
14.29
12.03
8.27
3.55
-1.47
-6.16
-10.02
-12.68
-13.92
-13.54
-11.46
-7.66
-2.30
4.28
11.34
18.30
25.25
32.19
38.99
45.53
51.60
56.86
60.98
63.40
63.94
63.22
61.87
60.33
59.13
58.73
59.47
61.39
63.50
65.00
66.51
68.41
70.98
74.90
80.61
87.74
94.65
97.02
92.03
82.54
72.38
64.95
63.42
68.66
78.46
88.47
90.29
79.33
61.45
40.99
18.25
-7.34
-37.54
-74.21
-118.18
-174.92
-245.72
-319.37
-390.47
-460.31
-528.58
-592.46
-646.58
-684.59
-709.87
-725.25
-721.33
-698.09
-664.11
-625.47
-584.78
-542.48
-447.91
-288.50
-155.07
-81.00
-52.46
-61.32
-92.71
-127.67
-148.94
-146.54
-128.52
-106.52
-78.11
-44.67
-10.47
24.76
62.28
101.30
138.31
162.58
168.17
164.99
160.68
157.86
158.62
163.15
169.45
174.60
172.19
159.49
143.75
130.48
121.46
117.73
118.88
123.09
127.92
129.37
125.55
119.79
114.86
111.86
111.59
114.08
118.58
123.99
128.65
131.80
134.70
138.52
143.86
151.14
160.46
171.78
184.97
199.90
216.18
232.88
248.49
261.21
269.63
273.28
272.79
269.52
264.73
258.96
251.81
242.42
230.23
215.59
199.69
184.25
170.64
159.46
150.54
143.29
137.16
131.81
126.94
122.02
116.22
108.58
98.57
86.51
73.65
61.68
51.93
44.84
39.79
35.67
31.53
27.12
22.77
18.97
15.78
12.55
8.29
2.15
-6.04
-15.72
-25.93
-35.79
-45.05
-53.86
-62.62
-71.65
-81.16
-91.29
-102.18
-113.83
-125.79
-137.06
-146.16
-151.53
-152.02
-147.15
-137.03
-122.05
-102.58
-78.89
-51.32
-20.57
12.13
44.95
75.66
101.94
121.71
133.43
136.61
131.91
121.13
106.72
91.35
77.53
67.36
62.37
63.31
70.01
81.38
95.65
110.82
125.16
137.40
146.83
153.10
156.13
156.10
153.40
148.66
142.54
135.50
127.74
119.18
109.72
99.41
88.52
77.40
66.35
55.52
44.97
34.78
25.17
16.55
9.44
4.24
0.99
-0.81
-2.01
-3.59
-6.21
-9.99
-14.56
-19.28
-23.63
-27.41
-30.61
-33.35
-35.63
-37.29
-37.99
-37.35
-35.00
-30.77
-24.93
-18.28
-12.27
-8.73
-9.22
-14.42
-23.65
-34.89
-45.48
-53.15
-56.76
-56.75
-54.82
-53.20
-53.68
-56.96
-62.47
-68.74
-74.23
-78.10
-80.54
-82.80
-87.03
-95.85
-111.64
-135.40
-165.47
-196.66
-220.93
-229.91
-218.48
-187.61
-144.81
-101.35
-67.47
-48.30
-42.29
-43.37
-44.99
-43.60
-39.54
-35.26
-32.33
-29.55
-23.44
-10.58
9.85
34.87
58.83
75.98
83.14
80.79
72.54
63.03
55.71
51.51
48.87
44.78
36.39
22.20
2.65
-19.92
-42.00
-59.73
-70.04
-71.57
-65.04
-53.12
-39.35
-26.86
-17.30
-10.51
-5.16
0.21
6.23
12.41
17.58
20.74
21.73
21.11
19.49
16.90
12.66
6.00
-3.04
-13.16
-22.22
-28.43
-31.30
-31.96
-32.46
-34.41
-37.96
-41.59
-43.01
-40.56
-34.11
-25.24
-16.50
-10.24
-7.71
-8.72
-11.85
-15.24
-17.37
-17.70
-16.97
-16.80
-18.99
-24.69
-33.80
-44.94
-55.85
-63.89
-66.47
-61.37
-47.14
-23.77
6.70
39.64
68.54
86.57
88.84
74.25
45.97
10.06
-26.83
-59.74
-86.31
-106.15
-119.33
-125.24
-122.55
-110.24
-88.88
-60.98
-30.23
0.08
28.30
54.54
79.64
103.75
125.47
142.27
151.81
153.36
148.31
139.59
130.29
122.39
116.36
111.69
107.93
105.47
105.57
109.66
118.32
130.55
143.95
155.38
162.11
162.57
156.49
144.58
127.96
107.84
85.35
61.63
37.77
14.66
-7.20
-27.62
-46.51
-63.56
-78.19
-89.67
-97.33
-100.66
-99.05
-91.83
-78.41
-59.03
-35.39
-10.73
10.92
26.24
33.82
34.58
31.05
26.02
21.30
17.45
14.28
11.66
10.08
10.48
13.59
19.30
26.62
34.09
40.49
45.43
49.32
52.91
56.68
60.46
63.42
64.37
62.24
56.46
47.20
35.23
21.79
8.25
-4.03
-13.82
-20.21
-22.72
-21.46
-17.23
-11.29
-5.04
0.32
4.18
6.50
7.72
8.44
9.13
10.05
11.24
12.58
13.81
14.47
13.95
11.76
7.82
2.63
-2.96
-8.14
-12.68
-17.08
-22.30
-29.20
-38.06
-48.50
-59.91
-71.86
-84.41
-97.91
-112.66
-128.40
-144.39
-159.51
-172.52
-182.13
-186.89
-185.36
-176.58
-160.84
-140.08
-117.64
-97.18
-81.20
-70.07
-61.92
-53.69
-42.61
-27.44
-8.83
11.15
30.02
45.79
57.39
64.57
67.51
66.39
61.27
52.21
39.56
24.17
7.37
-9.52
-25.58
-40.62
-55.05
-69.44
-83.74
-96.91
-106.92
-111.30
-107.94
-96.06
-76.54
-51.91
-25.60
-0.92
19.81
35.66
46.87
54.26
58.52
60.01
58.79
55.10
49.64
43.53
37.91
33.42
30.01
27.05
23.81
19.80
14.94
9.30
2.87
-4.64
-13.73
-24.81
-37.89
-52.48
-67.61
-82.24
-95.47
-106.91
-116.70
-125.42
-134.02
-143.64
-155.54
-170.82
-189.94
-212.20
-235.52
-256.61
-271.80
-278.11
-274.24
-260.89
-240.31
-215.43
-188.83
-162.24
-136.58
-112.42
-90.29
-70.72
-53.96
-39.67
-26.92
-14.49
-1.43
12.63
27.41
42.23
56.40
69.39
80.87
90.57
98.30
103.98
107.74
109.95
111.01
111.12
110.13
107.57
102.99
96.30
87.93
78.77
69.83
61.85
55.00
48.83
42.38
34.42
23.73
9.40
-8.81
-30.02
-52.03
-71.35
-83.86
-85.95
-75.66
-53.52
-22.41
13.33
49.33
82.28
110.49
133.57
151.66
164.88
173.05
176.03
174.14
168.36
160.13
151.07
142.37
134.67
128.01
122.14
116.90
112.32
108.52
105.46
102.67
99.22
94.04
86.43
76.39
64.84
53.19
42.75
34.17
27.12
20.62
13.48
4.99
-4.92
-15.68
-26.51
-36.79
-46.33
-55.38
-64.58
-74.76
-86.71
-100.83
-116.71
-132.86
-146.69
-154.98
-154.79
-144.45
-124.19
-96.20
-63.88
-30.86
-0.07
26.63
48.38
65.01
76.77
84.35
88.91
91.92
94.88
98.79
103.86
109.53
114.75
118.63
120.82
121.71
122.34
123.93
127.47
133.16
140.14
146.58
150.30
149.63
144.26
135.50
125.77
117.58
112.54
110.89
111.58
113.01
113.61
112.30
108.56
102.24
93.60
83.27
72.26
61.85
53.27
47.31
44.01
42.70
42.25
41.65
40.55
39.42
39.30
41.22
45.61
51.96
59.10
65.78
71.33
75.77
79.50
82.54
84.05
82.36
75.85
63.91
47.49
28.89
10.80
-4.69
-16.76
-25.70
-32.32
-37.25
-40.68
-42.47
-42.56
-41.16
-38.76
-35.96
-33.26
-31.00
-29.44
-28.81
-29.29
-30.92
-33.54
-36.87
-40.56
-44.28
-47.68
-50.41
-52.18
-52.97
-53.03
-52.90
-53.05
-53.69
-54.61
-55.38
-55.67
-55.48
-55.07
-54.67
-54.22
-53.28
-51.29
-47.98
-43.65
-39.06
-35.13
-32.36
-30.66
-29.39
-27.77
-25.38
-22.46
-19.77
-18.25
-18.54
-20.58
-23.65
-26.72
-28.77
-29.29
-28.31
-26.23
-23.58
-20.77
-18.02
-15.44
-13.13
-11.30
-10.15
-9.82
-10.27
-11.28
-12.50
-13.53
-14.11
-14.08
-13.45
-12.29
-10.69
-8.68
-6.30
-3.67
-1.02
1.29
2.83
3.31
2.66
1.00
-1.35
-4.13
-7.11
-10.15
-13.15
-15.94
-18.20
-19.52
-19.41
-17.52
-13.74
-8.37
-2.09
4.21
9.81
14.26
17.68
20.43
22.90
25.16
26.98
27.98
27.92
27.00
25.82
25.09
25.20
25.93
26.48
25.89
23.63
19.89
15.41
10.79
5.99
0.17
-7.69
-18.00
-30.02
-42.16
-53.14
-62.95
-73.39
-87.47
-108.17
-137.36
-175.66
-223.21
-280.18
-346.24
-419.10
-493.07
-559.17
-607.31
-629.94
-625.14
-597.42
-555.67
-509.37
-465.10
-425.00
-387.73
-350.75
-312.58
-273.55
-235.16
-198.75
-164.52
-131.39
-97.73
-62.17
-24.24
15.28
54.80
92.59
127.46
159.27
188.83
217.62
247.04
278.01
310.93
346.13
384.21
425.62
469.53
512.86
550.18
575.45
585.00
579.70
565.13
548.84
536.49
528.93
522.08
509.50
486.00
449.96
403.20
349.05
290.38
229.07
167.02
107.34
54.38
12.17
-17.57
-36.49
-48.61
-58.13
-67.44
-76.63
-84.65
-91.07
-97.14
-105.38
-118.22
-136.25
-157.74
-179.13
-196.33
-205.88
-205.58
-194.72
-173.77
-144.27
-108.80
-70.88
-34.62
-4.21
16.76
25.81
22.07
6.45
-18.43
-48.69
-79.76
-107.13
-126.92
-136.50
-135.01
-123.68
-105.74
-85.81
-68.55
-57.22
-52.67
-53.29
-55.90
-57.23
-55.27
-49.70
-41.67
-32.98
-25.24
-19.53
-16.38
-15.91
-17.95
-22.10
-27.48
-32.82
-36.53
-36.93
-32.71
-23.39
-9.57
7.16
24.70
41.21
55.66
68.14
79.47
90.45
101.22
111.03
118.59
122.72
123.00
119.94
114.71
108.69
103.00
98.36
95.02
92.89
91.62
90.74
89.83
88.60
87.04
85.32
83.69
82.40
81.59
81.25
81.17
80.80
79.38
76.10
70.55
63.09
55.01
48.07
43.89
43.08
44.97
47.84
49.72
49.10
45.52
39.50
32.04
24.19
16.55
9.34
2.54
-3.79
-9.49
-14.32
-18.26
-21.54
-24.70
-28.24
-32.46
-37.20
-41.95
-46.00
-48.75
-50.05
-50.20
-49.86
-49.70
-50.15
-51.21
-52.49
-53.46
-53.68
-52.99
-51.57
-49.79
-48.01
-46.43
-45.07
-43.74
-42.20
-40.26
-37.87
-35.13
-32.29
-29.64
-27.52
-26.23
-26.00
-26.89
-28.81
-31.47
-34.46
-37.39
-39.94
-42.02
-43.70
-45.19
-46.69
-48.28
-49.91
-51.40
-52.54
-53.21
-53.38
-53.14
-52.62
-51.94
-51.18
-50.34
-49.44
-48.48
-47.48
-46.52
-45.69
-45.11
-44.77
-44.45
-43.69
-41.90
-38.59
-33.68
-27.63
-21.38
-16.01
-12.38
-10.78
-10.89
-11.95
-13.09
-13.69
-13.54
-12.81
-11.95
-11.45
-11.69
-12.87
-15.00
-18.04
-21.83
-26.19
-30.75
-35.01
-38.40
-40.49
-41.24
-40.98
-40.35
-39.98
-40.22
-41.04
-42.06
-42.75
-42.71
-41.73
-39.84
-37.26
-34.26
-31.19
-28.33
-25.94
-24.07
-22.65
-21.51
-20.46
-19.43
-18.46
-17.71
-17.32
-17.34
-17.75
-18.51
-19.64
-21.31
-23.85
-27.58
-32.77
-39.48
-47.51
-56.32
-65.15
-73.11
-79.41
-83.54
-85.43
-85.46
-84.10
-81.52
-77.16
-69.61
-56.90
-37.03
-8.86
27.32
69.34
113.28
153.97
185.88
204.39
207.05
194.37
169.75
138.29
104.81
72.10
40.20
7.17
-28.96
-68.24
-107.97
-143.40
-169.52
-182.93
-183.02
-171.61
-151.69
-126.12
-97.17
-67.03
-38.60
-15.72
-2.13
0.24
-7.16
-19.57
-30.64
-35.25
-32.02
-23.80
-16.19
-14.43
-20.58
-32.27
-44.03
-49.76
-45.52
-30.86
-8.29
18.36
45.93
73.19
100.80
130.25
162.50
197.04
231.71
263.34
288.74
305.51
312.42
309.19
295.96
272.84
239.97
198.04
149.08
96.99
47.15
5.22
-24.53
-40.60
-44.51
-39.92
-30.98
-20.72
-10.26
0.95
14.16
29.98
47.61
64.76
78.29
85.16
83.28
71.95
51.80
24.24
-8.98
-46.21
-85.71
-125.62
-163.59
-196.89
-222.66
-238.59
-243.71
-238.95
-227.25
-212.96
-200.77
-194.52
-196.57
-207.47
-226.04
-249.45
-273.40
-292.58
-301.85
-297.67
-279.54
-250.34
-215.44
-180.65
-150.08
-125.03
-104.11
-84.58
-63.75
-40.04
-13.29
15.47
44.50
71.98
96.65
118.30
137.82
156.80
176.59
197.50
218.42
237.22
251.58
259.90
261.76
257.80
249.42
238.34
226.41
215.26
206.09
199.16
193.62
187.63
178.91
165.50
146.57
122.76
96.18
70.00
47.57
31.58
23.14
21.39
23.77
26.74
26.98
22.37
12.47
-1.71
-18.27
-34.94
-49.47
-59.94
-65.07
-64.66
-59.91
-53.32
-47.90
-46.07
-48.76
-55.20
-63.46
-71.47
-77.83
-82.27
-85.29
-87.68
-89.95
-92.14
-93.90
-94.78
-94.56
-93.30
-91.45
-89.68
-88.83
-89.73
-93.19
-99.97
-110.74
-126.11
-146.22
-170.45
-197.27
-224.44
-249.63
-271.22
-288.66
-302.30
-312.50
-318.74
-319.25
-311.57
-293.81
-265.82
-229.72
-189.23
-148.13
-108.82
-71.51
-34.46
4.94
48.86
97.82
150.27
202.51
249.49
285.94
307.80
313.57
304.82
285.98
262.91
241.21
224.69
214.81
210.93
211.46
215.04
221.42
231.37
245.97
265.64
289.40
314.64
337.66
354.70
362.89
360.88
349.02
328.92
302.92
273.43
242.43
211.23
180.40
149.75
118.38
85.11
48.87
9.46
-32.01
-72.91
-109.43
-137.51
-154.13
-158.39
-152.14
-139.70
-126.69
-118.39
-118.00
-125.86
-139.59
-155.35
-169.41
-179.25
-183.86
-183.22
-177.47
-166.55
-150.46
-129.95
-106.96
-84.33
-64.93
-50.76
-42.32
-38.82
-38.70
-40.24
-41.90
-42.35
-40.43
-35.16
-26.14
-13.86
0.19
13.71
24.20
29.73
29.60
24.66
17.10
9.87
5.57
5.69
9.89
16.39
22.66
26.54
27.13
24.92
21.47
18.44
16.86
16.78
17.57
18.43
18.96
19.19
19.42
19.94
20.76
21.76
22.80
23.89
25.05
26.05
26.23
24.58
20.14
12.43
1.74
-10.94
-24.23
-36.80
-47.61
-56.03
-61.87
-65.26
-66.64
-66.66
-66.00
-65.34
-65.17
-65.79
-67.37
-70.01
-73.77
-78.56
-83.97
-89.18
-93.13
-94.69
-93.21
-88.67
-81.83
-73.87
-65.96
-58.82
-52.48
-46.51
-40.27
-33.37
-25.82
-17.89
-9.92
-2.05
5.65
13.08
19.80
25.07
27.96
27.77
24.39
18.48
11.39
4.70
-0.33
-3.05
-3.61
-2.77
-1.51
-0.78
-1.21
-3.08
-6.33
-10.65
-15.55
-20.38
-24.50
-27.40
-28.83
-28.84
-27.81
-26.29
-24.95
-24.31
-24.40
-24.58
-23.43
-19.00
-9.70
5.00
24.10
45.17
65.13
81.39
92.59
98.89
101.45
101.74
100.79
99.06
96.61
93.47
90.00
86.80
84.50
83.47
83.68
84.75
86.21
87.51
88.20
87.91
86.40
83.61
79.72
75.14
70.39
65.95
62.02
58.57
55.31
51.76
47.36
41.64
34.29
25.28
15.00
4.20
-6.17
-15.18
-22.21
-27.13
-30.38
-32.85
-35.57
-39.45
-44.85
-51.40
-58.13
-63.81
-67.46
-68.70
-67.78
-65.36
-62.12
-58.56
-54.94
-51.50
-48.57
-46.48
-45.38
-44.95
-44.39
-42.77
-39.41
-34.32
-28.23
-22.32
-17.62
-14.66
-13.15
-12.22
-10.86
-8.39
-4.76
-0.56
3.35
6.23
7.84
8.55
9.13
10.33
12.61
15.87
19.62
23.21
26.14
28.24
29.65
30.58
31.14
31.21
30.57
28.97
26.37
22.87
18.64
13.71
8.02
1.60
-5.08
-11.03
-14.84
-15.16
-11.43
-4.24
4.69
13.06
18.87
21.08
19.85
16.22
11.55
7.00
3.25
0.69
-0.60
-0.63
0.40
2.09
3.87
5.11
5.49
4.94
3.84
2.60
1.59
0.94
0.67
0.68
0.92
1.31
1.83
2.40
2.97
3.49
3.97
4.36
4.47
4.07
2.97
1.13
-1.24
-3.83
-6.35
-8.58
-10.52
-12.22
-13.74
-15.19
-16.72
-18.45
-20.30
-21.86
-22.32
-20.76
-16.54
-9.72
-1.31
7.17
14.13
18.62
20.50
20.32
18.87
16.75
14.22
11.36
8.37
5.70
4.00
3.72
4.87
6.87
8.81
9.83
9.52
7.97
5.59
2.86
0.01
-2.90
-5.86
-8.72
-11.25
-13.18
-14.47
-15.41
-16.44
-17.92
-19.91
-22.06
-23.77
-24.47
-23.88
-22.13
-19.68
-17.17
-15.30
-14.54
-15.06
-16.55
-18.20
-18.93
-17.62
-13.70
-7.30
0.58
8.38
14.60
18.22
19.04
17.57
14.66
11.05
7.18
3.18
-0.89
-4.85
-8.38
-11.16
-13.11
-14.59
-16.31
-19.22
-24.24
-32.29
-44.36
-61.41
-84.13
-112.34
-144.60
-178.19
-209.81
-236.54
-256.84
-270.70
-279.21
-283.74
-285.14
-283.53
-278.64
-270.37
-259.23
-246.27
-232.70
-219.43
-206.86
-194.79
-182.65
-169.66
-155.07
-138.42
-119.74
-99.63
-79.31
-60.48
-44.84
-33.59
-26.89
-23.66
-21.96
-19.65
-15.25
-8.47
-0.17
8.25
15.78
22.08
27.63
33.12
38.76
44.11
48.49
51.61
53.67
55.01
55.19
52.77
45.82
33.23
15.82
-3.45
-20.57
-32.10
-36.56
-34.69
-28.49
-19.98
-10.41
-0.33
9.73
18.76
25.27
28.13
27.17
23.62
19.54
17.07
17.91
22.61
30.84
41.57
53.55
65.48
76.27
85.13
91.54
95.47
97.34
98.00
98.52
99.87
102.59
106.57
111.15
115.37
118.42
120.00
120.51
120.99
122.96
127.99
137.26
150.94
167.57
183.87
195.21
196.97
186.12
162.65
129.73
92.57
56.46
24.70
-2.32
-26.69
-51.43
-78.62
-108.18
-137.78
-163.75
-182.33
-190.93
-188.68
-176.31
-155.52
-127.99
-94.85
-56.50
-12.96
35.59
88.20
142.82
196.21
244.50
284.06
312.87
331.54
343.70
354.94
370.62
393.41
421.65
449.59
469.56
474.85
462.29
433.30
393.45
350.89
313.94
288.67
276.82
274.93
275.15
267.86
245.23
204.22
147.40
81.30
13.29
-51.28
-109.95
-161.81
-205.43
-237.61
-254.28
-252.87
-234.48
-204.41
-170.53
-140.53
-119.38
-108.21
-104.81
-105.33
-105.96
-104.07
-98.62
-90.19
-80.44
-71.51
-65.15
-61.92
-60.97
-60.39
-58.12
-53.08
-45.64
-37.23
-29.37
-22.69
-16.53
-9.48
-0.21
11.75
25.73
40.33
54.03
65.85
75.37
82.65
87.71
90.32
89.89
85.82
77.87
66.52
52.92
38.71
25.49
14.34
5.56
-1.37
-7.36
-13.15
-18.95
-24.32
-28.50
-30.90
-31.49
-30.87
-30.06
-30.12
-31.69
-34.92
-39.45
-44.75
-50.36
-56.01
-61.62
-67.12
-72.30
-76.76
-80.13
-82.13
-82.74
-82.27
-81.18
-79.92
-78.69
-77.34
-75.41
-72.34
-67.78
-61.75
-54.75
-47.50
-40.72
-34.82
-29.84
-25.60
-21.88
-18.68
-16.22
-14.80
-14.54
-15.29
-16.71
-18.46
-20.43
-22.74
-25.55
-28.79
-31.97
-34.30
-34.99
-33.60
-30.28
-25.54
-20.10
-14.39
-8.49
-2.12
5.21
13.93
24.28
36.18
49.19
62.50
75.13
86.20
95.15
101.85
106.39
108.96
109.54
108.11
104.77
99.94
94.32
88.60
83.05
77.47
71.24
63.82
55.08
45.41
35.54
26.25
17.92
10.44
3.25
-4.57
-13.88
-25.25
-38.53
-52.87
-66.77
-78.68
-87.46
-92.69
-94.63
-93.78
-90.56
-85.12
-77.58
-68.36
-58.31
-48.53
-39.92
-32.80
-26.80
-21.29
-15.72
-10.03
-4.52
0.48
4.91
9.00
13.03
17.02
20.71
23.77
26.09
28.00
30.08
32.76
35.92
38.78
40.28
39.64
36.74
32.23
27.07
22.09
17.57
13.28
8.71
3.51
-2.28
-8.31
-14.14
-19.46
-24.13
-28.07
-31.12
-32.95
-33.19
-31.70
-28.69
-24.71
-20.45
-16.46
-12.92
-9.67
-6.33
-2.59
1.60
5.96
10.03
13.39
15.86
17.53
18.68
19.55
20.21
20.52
20.26
19.32
17.80
15.98
14.13
12.30
10.36
8.01
5.05
1.55
-2.22
-5.94
-9.46
-12.91
-16.54
-20.49
-24.66
-28.67
-32.16
-34.97
-37.22
-39.23
-41.20
-42.96
-44.00
-43.65
-41.41
-37.21
-31.36
-24.45
-17.00
-9.37
-1.73
5.85
13.29
20.45
27.10
32.96
37.78
41.38
43.76
45.10
45.72
45.98
46.11
46.16
45.96
45.25
43.84
41.67
38.87
35.66
32.28
28.84
25.31
21.58
17.48
12.88
7.81
2.43
-2.98
-8.12
-12.86
-17.34
-21.89
-26.89
-32.63
-39.06
-45.85
-52.48
-58.38
-63.11
-66.46
-68.34
-68.82
-68.14
-66.56
-64.47
-62.12
-59.51
-56.27
-51.76
-45.31
-36.62
-25.97
-14.28
-2.82
7.28
15.35
21.40
25.90
29.47
32.55
35.28
37.58
39.35
40.52
41.14
41.23
40.76
39.65
37.89
35.64
33.22
30.98
29.12
27.49
25.63
22.93
18.97
13.83
8.16
2.96
-0.88
-3.10
-4.24
-5.45
-7.97
-12.47
-18.77
-25.97
-32.92
-38.76
-43.14
-46.03
-47.46
-47.31
-45.26
-41.18
-35.27
-28.12
-20.48
-13.01
-6.01
0.41
6.28
11.53
15.98
19.48
22.11
24.14
25.99
27.96
30.10
32.14
33.66
34.34
34.15
33.39
32.53
31.95
31.74
31.67
31.35
30.44
28.81
26.58
23.97
21.14
18.11
14.79
11.20
7.44
3.76
0.35
-2.82
-6.02
-9.69
-14.24
-19.83
-26.24
-32.99
-39.40
-44.94
-49.28
-52.44
-54.63
-56.13
-57.07
-57.34
-56.48
-54.09
-50.11
-44.88
-38.96
-32.82
-26.73
-20.87
-15.39
-10.37
-6.04
-2.76
-0.89
-0.56
-1.64
-3.84
-6.88
-10.61
-14.45
-18.08
-21.66
-25.80
-31.12
-37.82
-45.44
-52.94
-59.16
-61.84
-60.06
-55.09
-50.10
-48.32
-51.44
-58.89
-68.39
-77.06
-79.80
-73.94
-60.55
-43.40
-25.87
-8.52
11.03
36.36
70.32
118.69
183.62
261.85
345.25
423.76
487.85
529.41
542.70
526.27
490.97
451.81
422.09
408.86
412.47
428.07
447.88
463.84
431.35
328.65
165.90
-20.11
-191.97
-330.37
-433.48
-507.33
-558.66
-592.43
-606.02
-597.63
-571.87
-538.16
-505.87
-480.77
-464.07
-453.82
-446.76
-434.91
-412.52
-378.36
-338.85
-300.21
-266.32
-238.06
-214.46
-193.83
-171.62
-144.72
-113.07
-79.31
-46.28
-15.69
12.36
38.68
64.00
89.84
116.32
141.72
163.23
178.79
187.75
190.89
189.68
185.60
180.40
175.59
172.41
171.81
174.61
180.83
189.34
197.79
202.98
201.60
190.95
169.52
137.47
97.12
52.67
9.60
-26.50
-51.49
-63.76
-64.54
-57.14
-45.64
-33.51
-23.01
-15.15
-10.22
-8.23
-9.10
-12.57
-18.07
-24.77
-31.68
-37.94
-43.00
-46.71
-49.39
-51.74
-54.66
-58.80
-64.09
-69.74
-74.77
-78.97
-83.36
-89.87
-99.80
-112.07
-122.37
-124.08
-110.95
-80.16
-34.20
19.60
71.64
113.40
139.90
149.95
145.02
127.97
102.08
70.95
38.24
7.50
-18.31
-36.96
-47.27
-49.23
-43.97
-33.72
-21.43
-10.19
-2.22
1.96
3.88
6.06
10.59
18.04
27.39
37.02
45.68
53.22
60.40
68.99
80.32
94.77
111.79
130.85
152.21
176.87
205.78
238.66
274.70
310.79
341.78
362.25
368.88
361.97
344.88
322.41
299.02
280.11
268.52
263.28
259.76
251.56
232.82
199.58
151.35
91.69
31.46
-16.61
-42.62
-42.94
-20.71
15.71
54.62
84.83
79.49
26.00
-68.12
-178.44
-279.32
-356.31
-406.68
-434.26
-443.12
-437.44
-416.82
-381.29
-334.37
-282.95
-233.98
-191.21
-155.22
-122.89
-92.42
-63.53
-38.13
-20.46
-14.95
-23.16
-37.70
-55.21
-72.27
-85.74
-91.77
-89.18
-78.33
-61.48
-41.26
-19.41
2.47
23.80
43.57
61.17
75.97
87.61
95.91
100.72
101.70
97.46
87.36
72.08
54.65
39.76
32.14
34.18
44.54
58.39
68.95
70.26
58.78
33.88
-3.09
-49.34
-101.17
-153.79
-201.08
-236.04
-252.78
-248.53
-225.02
-188.39
-146.24
-104.62
-66.49
-32.14
-0.78
26.61
47.04
56.97
53.67
37.80
13.76
-12.13
-34.19
-48.99
-57.92
-65.79
-74.08
-83.77
-92.93
-95.74
-84.67
-59.75
-21.77
23.60
67.84
103.41
125.84
134.12
131.32
121.20
108.14
96.47
87.58
80.39
73.60
66.81
61.13
57.94
56.36
53.39
45.76
31.04
9.63
-14.89
-37.57
-54.12
-63.03
-62.99
-56.85
-48.91
-43.15
-41.00
-40.45
-36.95
-25.07
-0.55
38.05
88.08
143.64
196.41
237.72
260.76
262.32
243.52
209.31
166.75
122.79
83.14
51.56
30.06
19.07
17.57
23.15
32.21
40.84
45.69
45.21
39.86
31.67
23.06
15.87
10.89
7.87
6.14
5.06
4.40
4.31
5.06
6.74
9.13
11.84
14.48
17.04
19.86
23.66
29.15
36.59
45.46
54.44
61.65
65.30
64.17
58.04
47.44
33.07
15.29
-6.26
-32.44
-64.06
-101.42
-144.17
-191.63
-242.87
-296.50
-349.95
-399.04
-438.29
-462.34
-467.82
-454.95
-427.56
-391.79
-353.80
-317.85
-285.57
-256.54
-229.66
-204.25
-180.38
-158.51
-138.92
-121.55
-106.28
-93.54
-84.45
-80.54
-82.92
-91.27
-103.41
-115.63
-123.84
-124.90
-117.73
-103.58
-85.41
-66.56
-49.53
-35.27
-23.28
-12.61
-2.86
5.18
9.91
9.88
4.85
-4.01
-14.85
-26.32
-38.41
-52.14
-68.37
-86.40
-103.61
-116.24
-121.19
-117.63
-107.52
-94.79
-83.57
-76.66
-74.72
-76.39
-79.25
-80.61
-78.04
-69.53
-53.57
-29.42
2.42
39.66
78.15
112.67
138.68
154.47
162.41
168.54
180.29
203.38
239.38
285.13
334.38
380.38
418.27
445.79
462.61
468.92
464.73
450.22
426.68
397.16
365.99
337.29
313.31
293.65
275.83
256.83
234.66
209.22
182.00
154.99
129.67
106.51
85.28
65.73
48.02
32.75
20.54
11.53
5.26
0.87
-2.51
-5.31
-7.51
-8.90
-9.33
-8.95
-8.12
-7.22
-6.47
-5.88
-5.35
-4.94
-4.90
-5.66
-7.51
-10.41
-13.86
-17.08
-19.28
-19.97
-19.05
-16.82
-13.69
-10.15
-6.55
-3.24
-0.42
1.84
3.71
5.56
7.62
9.65
10.68
9.17
3.47
-7.37
-23.11
-42.31
-62.88
-82.89
-101.29
-118.20
-134.56
-151.54
-170.05
-190.38
-212.29
-234.97
-257.06
-276.50
-290.84
-297.71
-295.73
-285.13
-267.92
-247.31
-226.63
-208.26
-193.11
-180.69
-169.71
-158.54
-145.65
-129.65
-109.58
-85.32
-58.13
-30.70
-6.66
10.63
19.38
20.10
15.46
9.18
4.58
3.61
6.51
12.35
19.69
27.18
33.68
38.24
39.92
37.99
32.17
22.91
11.57
0.12
-9.23
-14.51
-14.46
-8.70
2.24
17.15
34.45
52.58
70.23
86.48
100.75
112.72
122.26
129.44
134.48
137.67
139.22
139.20
137.60
134.60
130.71
126.82
123.87
122.42
122.37
122.93
122.98
121.64
118.51
113.75
107.83
101.17
94.03
86.47
78.63
70.80
63.42
56.84
51.20
46.26
41.56
36.70
31.55
26.30
21.39
17.22
13.94
11.41
9.30
7.40
5.76
4.75
4.81
6.22
8.83
12.04
15.04
17.04
17.53
16.46
14.18
11.31
8.51
6.30
4.88
4.08
3.48
2.68
1.59
0.58
0.29
1.28
3.71
7.02
10.18
12.09
12.07
10.23
7.48
5.44
6.28
12.25
24.98
44.66
69.32
94.91
116.38
129.30
131.54
123.99
110.04
94.11
79.90
69.27
62.06
56.86
51.95
46.09
38.65
29.50
18.69
6.30
-7.40
-21.84
-35.91
-48.05
-56.64
-60.56
-59.63
-54.86
-48.11
-41.54
-36.94
-35.40
-37.18
-41.81
-48.19
-54.64
-59.12
-59.66
-54.95
-44.97
-30.96
-15.13
0.16
13.00
22.20
27.01
26.80
20.83
8.58
-9.64
-32.41
-57.11
-80.64
-100.16
-113.94
-121.59
-124.07
-123.21
-121.05
-119.45
-119.60
-122.00
-126.59
-132.98
-140.52
-148.24
-154.83
-158.60
-157.88
-151.39
-138.66
-119.97
-96.01
-67.46
-34.63
2.28
42.56
84.13
123.27
155.13
175.23
181.05
173.11
154.86
131.35
107.45
86.31
68.97
54.90
43.03
32.72
23.94
17.05
12.29
9.57
8.49
8.56
9.40
10.53
11.39
11.35
9.90
6.77
2.16
-3.38
-8.93
-13.40
-15.62
-14.48
-9.24
0.14
12.76
26.75
39.67
49.09
53.48
52.63
47.88
41.53
36.00
32.91
32.52
33.85
35.30
35.59
34.31
31.97
29.44
27.29
25.48
23.63
21.63
20.22
20.97
25.61
35.19
49.41
66.65
84.56
100.84
113.64
121.68
124.23
121.17
113.39
103.10
93.73
89.29
93.46
108.72
135.54
171.84
213.22
253.72
287.26
309.18
317.34
312.12
295.57
270.48
240.05
207.94
178.50
156.03
143.34
140.05
142.17
143.43
138.05
123.35
100.59
73.59
46.11
19.77
-6.17
-33.40
-62.41
-91.28
-115.98
-132.47
-138.86
-136.73
-130.69
-126.59
-129.03
-139.62
-156.77
-176.80
-195.78
-210.99
-221.40
-227.28
-229.49
-229.00
-226.99
-225.03
-224.93
-228.19
-235.10
-244.47
-254.09
-261.83
-266.69
-269.09
-270.23
-270.80
-270.22
-266.65
-258.13
-244.02
-225.89
-207.25
-192.26
-184.02
-183.50
-189.44
-199.17
-209.95
-219.93
-228.39
-235.41
-241.03
-244.61
-244.68
-239.38
-227.39
-208.67
-184.69
-157.97
-131.21
-106.31
-83.97
-63.91
-45.55
-28.67
-13.65
-1.28
7.84
13.76
17.39
20.05
22.92
26.57
30.75
34.69
37.61
39.21
39.79
40.04
40.65
41.96
44.02
46.66
49.85
53.75
58.55
64.18
70.11
75.34
78.85
79.97
78.76
75.92
72.47
69.17
66.21
63.16
59.25
53.83
46.71
38.24
29.14
20.22
12.16
5.34
-0.11
-4.38
-7.86
-11.13
-14.82
-19.40
-24.88
-30.54
-34.88
-35.93
-31.80
-21.53
-5.57
14.21
35.03
54.16
69.78
81.28
89.07
93.95
96.47
96.76
94.75
90.65
85.18
79.52
74.78
71.60
69.77
68.44
66.53
63.24
58.34
52.18
45.44
38.72
32.36
26.28
20.29
14.21
8.09
2.28
-2.76
-6.56
-8.96
-10.18
-10.79
-11.52
-13.04
-15.72
-19.56
-24.15
-28.74
-32.35
-33.87
-32.34
-27.23
-18.68
-7.69
4.12
14.92
23.23
28.34
30.41
30.18
28.57
26.27
23.66
20.90
18.11
15.54
13.49
12.21
11.73
11.87
12.26
12.60
12.68
12.47
12.02
11.35
10.43
9.17
7.58
5.78
4.03
2.62
1.69
1.13
0.57
-0.48
-2.34
-5.04
-8.23
-11.35
-13.84
-15.44
-16.27
-16.83
-17.75
-19.60
-22.69
-26.81
-31.24
-34.73
-35.74
-32.86
-25.36
-13.56
1.04
16.22
29.67
39.75
45.81
48.17
47.67
45.19
41.42
36.88
32.18
28.12
25.56
25.12
26.85
30.06
33.61
36.35
37.60
37.43
36.66
36.45
37.83
41.21
46.23
51.84
56.84
60.35
62.24
63.17
64.27
66.61
70.73
76.45
82.97
89.27
94.46
98.04
100.09
101.39
103.53
108.80
119.46
136.72
159.61
184.60
206.31
219.21
219.55
206.50
182.02
149.53
112.42
73.05
32.75
-7.68
-47.36
-85.31
-120.77
-153.56
-184.19
-213.35
-241.32
-267.39
-289.75
-305.58
-311.65
-305.08
-284.42
-250.76
-208.38
-164.37
-127.14
-103.87
-98.10
-108.38
-128.79
-151.17
-168.19
-175.93
-174.86
-168.86
-162.82
-160.18
-161.46
-164.21
-164.17
-156.93
-139.58
-111.88
-76.63
-39.28
-7.14
12.24
13.14
-6.23
-42.11
-85.37
-123.61
-145.02
-142.66
-117.27
-77.22
-35.23
-3.30
11.98
11.47
2.21
-6.56
-7.56
2.13
21.44
47.38
77.18
108.93
140.84
169.96
191.68
200.97
194.55
172.71
139.55
101.51
65.06
34.71
12.08
-3.77
-15.57
-26.93
-41.65
-63.04
-93.17
-132.06
-177.15
-223.58
-265.22
-296.15
-312.07
-311.14
-294.16
-263.93
-224.30
-179.14
-131.49
-83.00
-33.94
16.17
67.50
118.91
167.63
209.88
242.16
262.71
272.29
273.81
271.23
268.11
266.59
267.29
269.69
272.67
274.73
273.89
267.82
254.48
233.09
204.91
173.18
142.16
115.56
95.51
82.11
74.02
69.26
65.89
62.22
56.75
48.04
34.94
16.89
-5.69
-31.54
-58.86
-86.03
-111.99
-136.40
-159.58
-182.29
-205.45
-229.69
-254.87
-279.37
-300.01
-312.59
-313.22
-299.82
-273.10
-236.34
-194.09
-150.36
-107.24
-64.67
-21.29
24.06
71.15
117.98
161.24
197.24
223.00
236.97
239.21
231.17
215.15
193.56
168.56
141.96
115.51
90.99
69.78
52.24
37.21
22.34
5.28
-14.87
-36.83
-57.60
-74.08
-84.74
-90.38
-93.49
-96.76
-101.72
-108.35
-115.85
-123.71
-132.33
-142.59
-154.86
-167.98
-179.38
-185.85
-184.98
-176.29
-161.38
-143.20
-124.80
-108.19
-93.98
-81.56
-69.85
-57.98
-45.49
-32.16
-17.77
-2.08
14.88
32.30
48.50
61.29
68.75
69.86
64.65
53.87
38.53
19.79
-0.66
-20.31
-35.87
-44.17
-43.29
-33.39
-16.77
3.12
22.79
39.61
51.77
57.94
56.82
47.48
29.88
5.54
-22.54
-50.53
-74.90
-93.25
-104.77
-109.95
-110.12
-106.75
-101.02
-93.61
-84.65
-73.91
-60.99
-45.59
-27.64
-7.26
15.31
40.07
67.39
98.10
133.38
174.72
223.65
281.19
346.80
417.46
487.25
548.21
592.34
614.09
612.16
589.64
552.51
507.25
458.71
409.32
359.54
309.05
257.76
206.13
155.05
105.49
58.52
15.42
-22.27
-53.01
-75.72
-89.90
-95.63
-93.14
-82.44
-63.34
-35.96
-1.31
38.30
79.36
117.81
149.97
173.33
186.93
191.32
188.14
179.55
167.93
155.43
143.81
134.22
127.26
123.24
122.26
124.15
128.08
132.16
133.45
128.60
115.07
92.29
62.12
28.22
-5.52
-36.81
-65.69
-94.05
-123.87
-155.53
-186.99
-214.37
-233.32
-240.26
-232.99
-210.52
-172.98
-121.98
-61.22
3.05
62.78
109.96
139.05
148.71
141.93
124.54
102.90
81.87
63.94
49.70
38.95
31.56
27.71
27.29
29.18
30.98
29.52
21.96
7.05
-14.46
-40.11
-67.05
-93.35
-118.86
-145.13
-174.62
-209.69
-251.70
-300.24
-352.66
-404.20
-448.76
-480.41
-495.26
-492.73
-475.69
-449.08
-417.85
-385.16
-351.57
-315.75
-275.75
-230.11
-178.07
-119.31
-53.90
17.08
90.48
160.46
219.20
259.05
275.17
267.57
241.22
204.29
165.34
130.73
103.35
82.97
67.51
54.29
40.96
25.75
7.59
-13.68
-36.83
-59.55
-79.39
-94.87
-106.80
-118.84
-136.82
-166.91
-213.31
-276.23
-351.60
-431.96
-508.32
-572.16
-616.98
-639.31
-639.01
-618.94
-583.62
-538.65
-489.58
-440.92
-395.57
-354.65
-318.04
-285.02
-254.73
-225.03
-194.30
-162.06
-129.10
-96.92
-66.80
-39.43
-14.80
7.65
31.58
59.81
93.06
129.49
166.15
200.73
232.10
260.13
285.34
312.79
346.15
385.95
429.04
471.00
508.59
540.47
566.65
587.68
609.78
636.99
669.46
702.58
730.30
748.36
755.21
751.29
702.52
591.94
426.62
236.93
55.94
-96.59
-215.36
-303.41
-366.58
-410.89
-434.39
-438.67
-427.01
-405.95
-382.36
-360.38
-340.77
-321.98
-301.52
-272.33
-233.94
-188.05
-139.92
-95.32
-57.74
-27.68
-3.70
16.20
36.22
58.47
83.17
108.01
130.31
149.00
165.01
180.66
198.94
224.08
258.77
303.25
353.32
400.85
435.85
449.48
437.29
401.23
349.76
294.25
245.14
208.08
183.11
166.30
152.41
137.22
118.47
95.51
68.58
38.56
6.97
-23.81
-50.80
-71.44
-84.59
-91.16
-93.41
-93.31
-90.90
-83.86
-68.41
-41.11
-0.75
50.88
109.20
168.20
221.87
265.32
295.48
311.22
313.37
304.40
287.90
267.66
246.76
226.97
208.67
191.23
173.69
155.24
135.57
114.86
93.70
72.91
53.28
35.31
19.09
4.32
-9.49
-22.81
-35.94
-48.92
-61.73
-74.43
-87.24
-100.56
-114.69
-129.74
-145.48
-161.50
-177.38
-192.91
-208.23
-223.73
-239.92
-257.42
-276.95
-299.15
-324.12
-350.82
-376.66
-397.96
-410.97
-413.38
-405.21
-388.76
-367.43
-344.18
-320.52
-296.54
-271.91
-246.99
-223.28
-202.90
-187.57
-177.70
-172.03
-168.15
-163.29
-155.21
-142.69
-125.60
-104.45
-80.16
-53.90
-27.03
-1.34
21.06
37.90
46.98
47.00
38.06
21.62
0.02
-24.16
-48.91
-72.83
-95.24
-116.67
-137.75
-158.81
-179.66
-199.75
-218.09
-234.08
-247.25
-257.51
-266.79
-276.73
-287.90
-299.59
-310.54
-319.47
-326.49
-331.85
-335.06
-336.74
-335.68
-329.15
-314.38
-290.41
-258.22
-221.75
-184.88
-150.07
-121.22
-100.21
-86.88
-79.62
-76.64
-75.93
-77.67
-81.86
-69.92
-33.95
22.20
85.14
141.18
177.30
198.79
211.74
220.87
229.94
237.92
243.60
247.14
250.05
253.94
260.47
268.62
277.19
285.45
290.88
292.35
290.64
288.25
288.03
292.61
301.60
312.93
323.50
328.50
324.68
311.61
291.76
269.11
247.79
229.54
214.37
201.17
187.82
173.04
156.78
140.00
123.84
109.14
95.70
82.99
70.58
57.93
44.82
31.04
16.27
0.01
-17.95
-37.22
-56.21
-72.39
-83.14
-86.89
-83.79
-75.58
-64.66
-53.00
-41.42
-29.78
-17.72
-5.38
6.40
16.55
24.46
30.41
35.33
40.22
45.53
50.92
55.72
59.49
62.43
65.30
68.99
74.04
80.43
87.74
95.43
103.09
110.37
116.85
121.96
125.02
125.65
124.04
120.97
117.48
114.20
110.90
106.45
99.28
88.31
73.54
56.29
38.74
23.10
10.86
2.39
-2.83
-5.69
-6.96
-7.13
-6.50
-5.54
-5.06
-6.11
-9.65
-16.17
-25.47
-36.60
-48.11
-58.44
-66.31
-70.97
-72.38
-71.08
-67.96
-63.98
-59.84
-55.90
-52.22
-48.72
-45.39
-42.38
-39.93
-38.29
-37.51
-37.45
-37.72
-37.92
-37.73
-37.10
-36.17
-35.13
-34.11
-33.00
-31.50
-29.29
-26.22
-22.43
-18.32
-14.35
-10.85
-7.89
-5.27
-2.70
0.08
3.14
6.35
9.46
12.13
14.08
15.12
15.28
14.80
14.16
13.91
14.45
15.87
17.84
19.73
20.84
20.68
19.13
16.47
13.20
9.79
6.49
3.26
-0.13
-3.89
-7.98
-12.07
-15.58
-17.96
-18.85
-18.29
-16.65
-14.47
-12.22
-10.14
-8.21
-6.38
-4.61
-3.06
-1.94
-1.45
-1.60
-2.23
-3.11
-4.00
-4.78
-5.43
-6.00
-6.59
-7.25
-8.07
-9.12
-10.42
-11.94
-13.59
-15.19
-16.66
-17.99
-19.25
-20.60
-22.14
-23.95
-26.09
-28.60
-31.52
-34.78
-38.08
-40.86
-42.38
-41.99
-39.38
-34.77
-28.81
-22.37
-16.20
-10.70
-5.88
-1.57
2.42
6.14
9.47
12.26
14.44
16.00
17.00
17.50
17.55
17.18
16.49
15.60
14.69
13.92
13.37
13.07
12.92
12.72
12.22
11.15
9.37
6.89
3.96
0.89
-2.05
-4.77
-7.41
-10.28
-13.72
-17.95
-22.93
-28.35
-33.71
-38.43
-42.01
-44.13
-44.75
-44.03
-42.31
-40.00
-37.46
-35.02
-32.93
-31.32
-30.26
-29.74
-29.70
-30.15
-31.14
-32.74
-34.91
-37.43
-39.95
-42.04
-43.38
-43.90
-43.75
-43.24
-42.66
-42.19
-41.88
-41.87
-42.39
-43.93
-47.04
-52.20
-59.47
-68.46
-78.32
-88.14
-97.24
-105.52
-113.49
-122.14
-132.73
-146.34
-163.44
-183.35
-203.99
-221.97
-233.30
-234.61
-224.26
-202.90
-173.17
-138.71
-102.82
-67.75
-34.55
-3.39
26.17
55.06
84.61
116.00
149.66
184.77
219.44
251.49
279.30
302.13
319.59
330.85
334.33
328.42
312.84
289.72
263.42
238.86
219.20
204.22
190.29
172.15
145.34
108.21
62.52
12.76
-35.50
-77.47
-110.33
-133.83
-149.94
-162.03
-173.85
-188.30
-206.55
-227.64
-248.60
-265.27
-273.58
-270.66
-255.74
-230.03
-196.07
-156.73
-114.54
-71.49
-29.25
10.56
46.45
77.34
103.00
124.12
141.97
157.79
172.30
185.62
197.53
207.94
217.06
225.19
232.32
237.84
240.66
239.73
234.58
225.60
213.91
200.75
186.96
172.71
157.55
140.85
122.20
101.68
79.94
58.10
37.47
19.24
4.08
-8.03
-17.91
-26.89
-36.49
-47.92
-61.68
-77.13
-92.18
-103.51
-107.22
-100.08
-80.78
-50.82
-14.36
22.92
55.47
79.27
92.45
95.02
88.11
73.35
52.70
28.43
3.03
-21.42
-44.09
-65.92
-89.29
-116.91
-150.33
-188.85
-229.34
-267.18
-297.83
-318.28
-327.77
-327.50
-319.74
-306.78
-290.10
-270.25
-247.02
-220.05
-189.41
-155.89
-121.10
-87.06
-55.67
-28.21
-5.17
13.65
28.57
39.70
46.69
49.00
46.17
38.27
26.06
11.04
-4.65
-18.39
-27.38
-29.11
-22.07
-6.21
16.78
43.91
71.71
97.16
118.34
134.56
145.99
153.20
156.72
157.03
154.62
150.26
144.97
139.90
135.96
133.59
132.57
132.17
131.50
129.88
127.05
123.17
118.58
113.50
107.83
101.24
93.33
84.00
73.59
62.89
52.87
44.26
37.26
31.36
25.65
19.20
11.50
2.68
-6.56
-15.32
-22.87
-28.95
-33.84
-38.27
-43.25
-49.78
-58.49
-69.26
-80.83
-90.86
-96.34
-94.56
-84.05
-65.33
-40.79
-13.96
11.60
33.29
49.89
61.27
67.93
70.41
69.19
64.84
58.23
50.62
43.38
37.69
34.12
32.59
32.51
33.06
33.55
33.54
32.85
31.43
29.25
26.24
22.34
17.60
12.25
6.74
1.60
-2.74
-6.12
-8.74
-11.10
-13.75
-17.03
-20.99
-25.34
-29.73
-33.88
-37.81
-41.81
-46.43
-52.37
-60.17
-69.86
-80.53
-90.13
-95.73
-94.34
-83.90
-64.23
-37.25
-6.47
24.13
51.27
73.05
89.02
99.70
106.06
109.15
109.98
109.59
108.95
108.90
109.86
111.82
114.40
117.20
120.00
122.95
126.32
130.21
134.35
137.94
139.94
139.44
136.00
129.92
122.16
113.96
106.37
99.68
93.10
84.78
72.30
53.50
27.36
-5.41
-42.47
-80.64
-117.04
-150.11
-179.99
-208.11
-236.16
-264.94
-293.43
-318.79
-337.09
-344.61
-339.30
-321.52
-294.04
-261.10
-227.08
-195.17
-166.81
-141.74
-118.84
-96.94
-75.36
-54.00
-33.01
-12.49
7.81
28.33
49.50
71.53
94.36
117.87
142.08
167.20
193.32
219.91
245.36
267.06
282.02
287.96
284.28
272.42
255.43
236.73
218.94
202.94
187.85
171.65
152.18
128.05
99.11
66.33
31.38
-4.12
-39.03
-72.93
-105.96
-138.49
-170.66
-202.08
-231.69
-257.78
-278.24
-290.91
-293.97
-286.44
-268.44
-241.26
-207.19
-169.07
-129.80
-91.94
-57.39
-27.33
-2.23
18.05
34.11
46.89
57.49
66.95
76.12
85.38
94.62
103.20
110.23
114.89
116.84
116.38
114.29
111.48
108.51
105.33
101.31
95.70
88.17
79.23
70.23
62.75
57.84
55.32
53.67
50.39
42.89
29.33
9.22
-16.36
-44.86
-72.73
-95.91
-110.69
-114.50
-106.72
-88.95
-64.78
-38.90
-15.95
0.57
8.82
8.70
1.48
-10.71
-25.42
-40.33
-53.68
-64.47
-72.56
-78.53
-83.48
-88.64
-95.04
-103.15
-112.63
-122.37
-130.78
-136.35
-138.24
-136.72
-133.06
-129.05
-126.22
-125.21
-125.59
-126.28
-126.24
-125.03
-123.17
-121.99
-123.23
-128.42
-138.42
-153.14
-171.37
-190.74
-207.81
-218.47
-218.61
-205.09
-176.59
-133.88
-79.39
-16.35
52.13
123.39
194.97
264.02
326.96
379.68
418.60
441.77
449.82
445.72
433.95
418.96
404.15
391.39
381.16
373.08
366.08
358.56
348.23
332.46
308.86
276.04
234.09
184.45
129.40
71.34
12.58
-44.55
-97.53
-143.72
-181.14
-209.38
-230.12
-246.68
-262.80
-281.26
-303.07
-327.52
-352.90
-377.16
-397.99
-412.70
-417.96
-410.27
-386.91
-346.92
-291.40
-222.94
-144.70
-59.83
28.13
114.36
192.16
253.57
291.41
301.86
286.23
250.91
205.35
159.12
119.25
88.85
67.47
52.42
40.48
29.21
17.36
4.72
-8.36
-21.51
-34.45
-46.92
-58.31
-67.70
-74.06
-76.92
-76.78
-75.15
-73.97
-74.73
-77.72
-81.95
-85.78
-87.92
-88.16
-87.59
-87.96
-90.80
-96.63
-104.77
-113.70
-121.87
-128.27
-132.76
-135.76
-137.78
-138.98
-139.00
-137.27
-133.41
-127.77
-121.45
-115.95
-112.44
-111.03
-110.53
-108.60
-102.60
-90.55
-71.89
-47.98
-21.85
2.27
19.78
26.94
21.83
5.26
-19.34
-46.69
-71.39
-89.65
-100.63
-106.43
-110.72
-116.56
-124.53
-132.31
-135.47
-129.45
-111.32
-81.29
-42.98
-2.68
32.23
55.19
62.35
53.78
33.56
8.90
-12.74
-26.12
-29.47
-23.94
-11.91
4.72
25.07
48.87
76.36
106.52
137.04
165.52
190.80
213.62
235.77
258.45
281.08
302.68
320.97
333.12
336.98
332.12
320.03
303.49
285.45
268.40
256.17
251.22
253.80
261.71
271.31
278.99
282.20
279.88
259.75
216.61
153.65
81.53
11.78
-48.70
-98.23
-137.81
-169.16
-193.63
-209.92
-217.16
-215.86
-208.19
-197.09
-185.09
-173.72
-163.49
-154.61
-144.36
-130.72
-113.23
-93.08
-72.33
-53.00
-36.73
-24.90
-18.51
-16.60
-17.58
-19.34
-19.74
-16.99
-10.02
1.27
15.98
31.53
46.19
58.21
66.08
68.42
64.16
52.78
34.50
10.25
-18.33
-48.50
-77.52
-102.76
-121.72
-132.11
-132.15
-121.06
-99.67
-70.40
-36.26
-0.89
32.42
61.50
85.61
105.23
121.47
135.30
147.20
157.44
165.05
168.41
166.04
157.38
143.19
125.22
105.45
82.37
56.73
30.33
5.46
-16.01
-33.17
-46.07
-55.51
-63.21
-70.18
-75.90
-79.74
-81.45
-81.45
-80.89
-81.50
-84.20
-90.00
-98.56
-108.18
-117.16
-124.51
-130.24
-135.11
-140.05
-145.40
-150.42
-151.93
-145.21
-125.88
-91.48
-42.12
19.57
88.90
158.56
217.57
255.35
265.92
250.72
217.77
178.06
141.49
113.78
97.60
89.11
84.41
80.92
77.52
74.05
70.53
66.53
60.27
49.22
32.24
10.46
-13.66
-37.60
-59.71
-79.51
-97.35
-114.77
-132.88
-151.78
-170.05
-185.77
-197.43
-204.30
-206.23
-197.45
-174.89
-139.09
-94.69
-48.31
-6.13
27.63
51.17
64.71
69.95
68.76
62.65
53.17
42.26
31.76
22.97
16.33
11.51
7.51
2.18
-5.93
-17.05
-30.15
-43.58
-55.76
-65.60
-72.50
-76.23
-77.24
-75.80
-71.01
-61.09
-44.25
-19.23
14.04
54.29
98.97
142.64
177.61
197.56
200.24
188.25
167.08
141.87
115.65
89.59
65.60
43.23
23.66
9.11
1.48
1.51
8.03
18.47
29.93
39.77
45.98
48.10
46.42
41.36
33.71
23.88
12.10
-1.12
-15.36
-30.60
-46.90
-64.86
-85.37
-108.56
-131.32
-149.45
-158.68
-156.97
-145.40
-126.90
-104.96
-85.47
-68.66
-54.09
-41.97
-32.90
-27.66
-26.88
-29.61
-34.98
-41.97
-49.18
-56.16
-63.27
-71.21
-80.78
-92.41
-105.85
-120.18
-133.78
-144.06
-148.64
-145.63
-133.85
-113.33
-85.47
-52.82
-18.67
13.92
43.00
67.59
87.71
104.02
117.30
128.11
136.83
143.78
149.49
154.79
160.31
166.18
171.98
176.81
179.68
179.95
177.59
173.09
167.19
160.35
152.56
143.37
132.18
118.57
102.47
84.03
63.46
40.82
16.11
-10.36
-37.44
-62.97
-84.11
-98.21
-103.84
-101.48
-93.45
-83.14
-73.90
-68.16
-66.91
-69.70
-74.82
-79.55
-80.58
-74.72
-59.90
-36.04
-5.35
28.37
61.15
90.33
115.35
137.48
158.77
180.82
204.00
227.34
249.03
267.14
280.37
288.39
291.82
291.71
288.84
282.98
272.72
256.20
232.32
201.93
167.91
134.26
104.21
78.75
56.28
33.60
7.57
-23.62
-59.99
-99.99
-141.12
-180.31
-214.25
-239.70
-254.23
-256.94
-248.84
-232.50
-211.12
-187.45
-163.32
-139.80
-117.73
-98.03
-81.56
-68.60
-58.42
-49.41
-39.77
-28.44
-15.65
-2.88
7.78
14.66
17.42
17.23
16.30
16.69
19.24
23.02
25.67
24.52
17.81
5.49
-10.82
-28.62
-45.56
-60.15
-71.84
-80.73
-87.02
-90.78
-91.95
-90.68
-87.46
-83.13
-78.55
-74.31
-70.55
-66.92
-62.78
-57.52
-50.73
-42.33
-32.54
-21.76
-10.34
1.41
13.26
24.92
35.91
45.58
53.37
58.90
62.05
62.86
61.27
57.16
50.52
41.82
32.29
23.65
17.39
14.05
12.94
12.57
11.57
9.58
7.30
5.86
5.72
6.01
4.77
-0.10
-9.68
-23.25
-38.53
-52.46
-62.05
-65.08
-60.53
-49.05
-33.46
-19.00
-12.73
-21.65
-50.16
-97.86
-158.69
-222.13
-276.18
-310.78
-320.30
-304.60
-268.32
-219.22
-166.28
-117.76
-79.45
-53.33
-37.25
-25.82
-12.88
5.93
31.27
60.04
87.08
107.74
119.69
123.39
121.05
115.27
108.18
101.45
96.76
96.04
100.73
110.84
124.20
136.81
144.16
143.19
133.60
118.06
101.12
87.52
80.50
80.94
87.45
97.27
107.48
115.94
121.75
125.06
126.64
127.17
127.02
126.13
124.32
121.64
118.57
116.01
114.85
115.58
117.92
120.90
123.17
123.59
121.59
117.39
111.80
105.92
100.77
97.08
95.10
94.50
94.20
92.50
87.27
76.50
58.93
34.58
4.79
-28.17
-61.77
-93.96
-123.43
-149.63
-172.42
-191.85
-208.04
-221.28
-232.18
-241.55
-250.06
-257.98
-265.01
-270.47
-273.77
-274.68
-273.44
-270.56
-266.42
-261.11
-254.45
-246.16
-236.11
-224.45
-211.52
-197.81
-183.93
-170.51
-158.22
-147.74
-139.50
-133.66
-129.98
-127.97
-127.05
-126.77
-126.86
-127.18
-127.59
-127.76
-127.15
-125.18
-121.30
-115.10
-106.30
-94.54
-79.32
-60.15
-36.98
-10.80
16.22
41.11
61.08
74.58
81.70
83.85
82.81
79.97
76.20
72.39
70.14
71.75
79.42
93.97
114.06
136.56
157.89
175.60
189.13
199.25
206.75
211.34
211.58
206.00
194.36
178.51
161.81
147.88
138.99
135.44
135.82
137.95
139.89
140.38
138.81
134.90
128.59
120.15
110.38
100.62
92.36
86.60
83.37
81.63
79.69
76.05
70.09
62.41
54.51
48.26
45.08
45.53
49.23
55.16
62.20
69.57
77.09
85.16
94.47
105.69
119.13
134.70
151.88
169.99
188.21
205.57
220.79
232.15
237.76
236.05
226.50
210.00
188.87
166.23
145.28
128.49
117.19
111.40
109.86
110.30
109.87
105.81
96.20
80.60
60.12
36.97
13.59
-8.15
-27.35
-43.92
-58.13
-70.13
-79.81
-86.97
-91.70
-94.49
-96.27
-98.04
-100.48
-103.75
-107.43
-110.83
-113.38
-115.02
-116.28
-118.25
-122.06
-128.54
-137.98
-150.27
-165.04
-181.85
-200.04
-218.53
-235.80
-250.13
-260.12
-265.07
-265.20
-261.24
-254.08
-244.49
-233.35
-221.99
-212.37
-206.73
-206.78
-212.99
-224.13
-237.52
-249.84
-258.25
-261.37
-259.90
-256.53
-255.11
-259.02
-269.68
-285.49
-302.12
-314.11
-316.94
-308.90
-291.58
-268.94
-245.63
-225.19
-209.24
-197.56
-188.56
-179.77
-168.31
-151.45
-127.38
-95.97
-59.10
-20.24
16.74
48.68
73.82
91.60
101.99
104.70
98.98
84.11
60.07
28.04
-9.86
-51.21
-93.65
-134.94
-172.55
-203.55
-224.83
-234.17
-231.12
-217.48
-196.95
-173.91
-152.00
-133.09
-117.12
-102.67
-87.95
-71.70
-53.49
-33.58
-12.56
8.98
30.70
52.66
75.35
99.58
126.48
157.05
191.58
229.09
267.17
302.30
330.88
350.37
360.13
361.49
356.97
349.14
339.53
328.31
314.54
297.04
275.12
248.96
219.46
187.76
154.82
121.36
87.99
55.59
25.44
-0.94
-22.20
-37.44
-46.43
-49.35
-46.55
-38.50
-25.91
-10.00
7.38
24.04
37.96
47.91
53.74
56.33
57.27
58.35
61.15
66.78
75.72
87.64
101.46
115.29
126.72
133.32
133.22
125.83
112.21
95.20
79.01
68.21
66.45
75.07
92.41
114.10
134.78
150.12
158.53
161.21
160.74
158.91
155.32
147.61
133.14
111.03
83.23
53.75
26.58
3.69
-15.82
-34.72
-55.83
-80.35
-107.13
-133.17
-154.78
-168.97
-174.37
-171.71
-163.74
-154.48
-148.19
-147.97
-154.74
-166.68
-179.80
-189.27
-191.10
-183.48
-167.00
-143.94
-117.03
-88.35
-59.06
-30.07
-2.79
20.59
37.72
47.70
52.34
56.43
66.52
88.66
126.31
179.02
242.56
310.03
373.72
426.97
465.44
487.61
494.47
488.52
472.56
448.82
418.70
383.10
343.23
301.03
259.08
219.92
185.10
154.58
126.85
99.58
70.55
38.42
3.12
-34.30
-72.34
-109.69
-145.89
-181.61
-218.37
-258.18
-303.04
-354.26
-411.65
-472.84
-532.95
-585.25
-622.66
-639.72
-633.96
-606.54
-561.20
-502.83
-435.90
-363.64
-287.71
-208.61
-126.39
-42.02
41.32
117.40
177.59
213.31
219.58
197.79
156.17
107.24
63.14
31.65
14.50
8.50
8.68
11.01
13.39
14.82
14.16
9.73
0.58
-11.99
-23.78
-29.02
-22.98
-4.72
22.09
50.65
74.13
88.53
93.93
93.44
90.94
88.97
87.86
86.28
82.60
75.95
66.62
55.64
44.08
32.66
21.68
11.27
1.65
-6.72
-13.31
-17.87
-20.70
-22.66
-24.75
-27.54
-30.61
-32.58
-31.61
-26.39
-16.81
-4.17
9.26
21.12
29.76
34.57
35.81
34.19
30.40
24.95
18.22
10.54
2.30
-6.16
-14.64
-22.98
-31.08
-38.75
-45.77
-52.28
-58.71
-65.77
-74.28
-84.83
-97.46
-111.37
-125.09
-136.84
-145.31
-149.74
-149.96
-146.01
-137.91
-125.41
-107.96
-84.91
-55.82
-20.93
19.44
65.04
115.38
169.19
223.91
275.93
321.34
356.87
379.72
389.40
387.54
376.73
358.82
334.18
302.21
262.72
216.45
163.19
104.27
42.21
-20.52
-82.74
-144.34
-204.72
-261.00
-308.89
-347.39
-375.74
-393.10
-398.78
-393.26
-378.55
-358.03
-335.79
-318.13
-316.39
-338.08
-382.52
-440.50
-498.75
-545.46
-574.23
-584.45
-550.49
-465.42
-343.16
-211.38
-93.62
0.11
69.90
115.42
144.98
164.09
172.31
170.89
164.47
159.99
161.44
169.61
182.68
198.85
216.05
230.02
239.25
245.75
253.75
266.95
286.73
311.75
339.22
364.37
380.29
382.30
369.69
345.60
314.89
282.23
250.76
222.26
196.75
172.69
149.15
126.31
105.12
86.23
69.62
54.56
40.35
26.30
11.73
-3.30
-17.99
-31.06
-41.29
-48.01
-51.37
-52.27
-52.04
-51.79
-51.98
-52.32
-52.02
-50.33
-46.86
-41.77
-35.57
-28.76
-21.64
-14.29
-6.76
0.66
7.38
12.74
16.35
18.34
19.24
19.59
19.53
18.62
16.05
11.24
4.34
-3.69
-11.44
-17.72
-22.00
-24.62
-26.30
-27.64
-28.79
-29.47
-29.35
-28.53
-27.71
-28.00
-30.52
-35.82
-43.64
-52.99
-62.44
-70.65
-76.57
-79.53
-79.14
-75.23
-67.77
-57.09
-43.97
-29.59
-15.24
-1.92
9.97
20.68
30.83
41.09
51.87
63.19
74.84
86.34
97.16
106.71
114.57
120.89
126.70
134.18
146.05
164.67
190.89
223.45
259.44
295.47
328.93
358.59
384.12
405.02
419.73
425.76
420.85
404.41
378.38
346.74
313.92
283.03
254.75
227.63
199.30
168.02
133.69
97.70
62.31
29.47
0.08
-26.31
-51.27
-77.18
-106.88
-142.81
-185.85
-233.88
-281.11
-318.82
-337.57
-330.18
-294.12
-232.37
-152.56
-64.89
20.09
93.25
147.97
180.80
191.67
183.92
163.46
137.46
112.71
94.34
85.25
86.25
96.34
112.70
131.23
147.20
156.50
156.94
149.01
135.22
118.92
102.73
87.45
72.39
56.19
37.98
17.93
-2.92
-23.27
-42.22
-59.55
-75.59
-90.72
-105.03
-118.17
-129.54
-138.78
-146.33
-153.71
-163.40
-178.29
-201.00
-233.13
-274.68
-323.55
-375.35
-423.71
-461.51
-482.86
-485.09
-469.85
-442.62
-410.62
-379.98
-353.75
-331.39
-309.97
-286.30
-258.61
-227.12
-193.49
-159.64
-126.78
-95.15
-64.32
-33.73
-3.16
27.05
56.17
83.42
108.22
130.30
149.56
165.86
178.94
188.43
193.99
195.38
192.49
185.37
174.43
160.54
145.12
129.93
116.86
107.67
103.96
107.06
117.75
135.59
158.26
181.37
199.25
206.61
200.27
180.31
149.71
113.01
74.28
35.83
-2.36
-42.06
-85.71
-135.09
-190.10
-248.05
-303.65
-350.02
-380.38
-390.09
-378.14
-347.53
-304.30
-255.90
-209.38
-170.12
-141.34
-124.13
-117.97
-121.46
-133.21
-152.39
-178.93
-212.91
-253.55
-298.25
-342.41
-380.23
-406.09
-416.12
-408.96
-385.86
-349.90
-304.88
-254.47
-201.54
-147.92
-94.20
-39.99
15.43
72.01
128.01
179.73
222.21
250.66
262.25
257.23
238.91
212.62
183.86
156.72
132.94
111.98
91.77
69.85
44.38
14.77
-18.11
-52.19
-84.59
-112.22
-132.23
-142.42
-141.50
-129.45
-107.52
-78.03
-43.68
-6.84
31.00
69.12
107.04
143.87
177.97
207.36
230.38
246.29
255.44
258.73
257.00
250.68
240.03
225.54
208.27
189.71
171.10
152.83
134.27
114.24
91.76
66.52
38.88
9.35
-21.73
-54.32
-88.29
-123.05
-157.43
-190.18
-220.71
-249.48
-277.67
-306.08
-334.00
-358.72
-376.17
-382.42
-375.42
-355.86
-326.87
-292.61
-256.57
-220.59
-184.82
-148.75
-112.41
-76.92
-44.06
-15.14
10.06
33.60
58.65
87.97
122.56
161.10
200.60
237.87
270.95
299.82
326.01
351.41
377.06
402.60
426.54
446.94
462.07
470.59
471.29
462.82
443.94
414.23
374.96
329.58
283.18
241.10
207.16
182.32
164.44
149.23
132.13
110.38
84.27
57.25
34.66
21.69
21.23
32.44
50.60
68.34
77.70
72.35
49.01
7.88
-47.86
-112.89
-180.69
-244.27
-297.17
-334.83
-355.70
-361.83
-357.82
-348.54
-336.68
-321.38
-298.79
-264.19
-214.87
-152.00
-80.75
-9.01
54.83
103.96
134.83
147.86
147.46
140.99
136.66
141.22
158.14
187.00
224.70
267.09
310.43
351.48
386.92
412.48
423.17
414.63
385.09
336.71
275.63
210.24
148.57
95.99
54.04
20.52
-8.85
-38.65
-72.22
-110.90
-154.35
-201.75
-252.88
-308.31
-368.34
-431.06
-491.01
-539.53
-567.34
-568.04
-540.70
-490.15
-424.54
-351.95
-277.96
-205.30
-135.39
-70.26
-13.24
32.10
63.79
83.12
94.73
105.32
121.36
147.04
182.98
225.89
269.59
306.92
331.96
341.93
337.84
323.46
303.13
279.44
252.11
219.02
178.22
130.11
78.04
27.22
-17.61
-54.11
-82.90
-106.42
-126.86
-144.60
-157.97
-164.65
-163.57
-156.27
-146.87
-140.52
-141.25
-150.20
-165.27
-182.03
-195.64
-202.58
-201.72
-194.31
-183.20
-171.51
-161.48
-153.61
-146.39
-136.73
-120.95
-96.21
-61.90
-20.59
22.08
58.72
82.68
90.70
84.61
71.20
59.94
59.50
74.27
102.67
137.95
171.10
194.32
203.56
199.00
183.72
161.79
136.60
110.45
84.92
61.52
41.88
27.24
17.78
12.00
7.01
-0.38
-12.34
-28.96
-48.10
-66.34
-80.37
-88.34
-90.44
-88.43
-84.57
-80.53
-76.87
-73.21
-68.79
-63.06
-55.88
-47.51
-38.40
-29.08
-20.11
-12.03
-5.23
0.15
4.23
7.29
9.56
11.21
12.40
13.40
14.77
17.22
21.39
27.42
34.80
42.45
49.08
53.71
55.90
55.84
54.11
51.41
48.38
45.45
42.73
40.02
36.79
32.32
25.93
17.24
6.42
-5.72
-17.98
-28.99
-37.55
-42.88
-44.67
-42.99
-38.32
-31.33
-22.91
-14.02
-5.46
2.24
8.97
14.96
20.57
25.98
31.06
35.40
38.55
40.29
40.79
40.53
40.13
40.05
40.51
41.53
43.03
45.01
47.46
50.27
53.08
55.23
56.01
54.89
51.80
47.20
41.80
36.28
30.89
25.44
19.43
12.42
4.35
-4.43
-13.17
-21.06
-27.39
-31.72
-33.80
-33.60
-31.29
-27.16
-21.71
-15.48
-9.08
-2.99
2.44
7.02
10.72
13.59
15.78
17.48
18.88
20.15
21.40
22.65
23.88
24.98
25.85
26.40
26.55
26.22
25.39
24.04
22.21
19.97
17.42
14.65
11.66
8.41
4.79
0.76
-3.69
-8.45
-13.39
-18.32
-22.99
-27.06
-30.10
-31.57
-31.02
-28.21
-23.26
-16.59
-8.82
-0.59
7.55
15.21
22.11
28.03
32.80
36.36
38.75
40.22
41.10
41.65
42.04
42.24
42.13
41.61
40.68
39.43
37.93
36.22
34.21
31.83
28.99
25.66
21.80
17.35
12.22
6.35
-0.19
-7.24
-14.62
-22.22
-30.11
-38.42
-47.24
-56.42
-65.54
-73.99
-81.09
-86.27
-89.11
-89.36
-86.88
-81.66
-73.75
-63.25
-50.26
-34.82
-17.07
2.66
23.60
44.51
63.79
79.83
91.42
98.02
99.83
97.52
92.01
84.17
74.83
64.78
54.79
45.58
37.65
31.25
26.28
22.43
19.30
16.57
14.02
11.54
9.11
6.78
4.64
2.79
1.33
0.13
-1.08
-2.84
-5.79
-10.51
-17.37
-26.29
-36.76
-47.84
-58.39
-67.28
-73.59
-76.81
-76.78
-73.75
-68.20
-60.73
-51.99
-42.57
-32.95
-23.48
-14.40
-5.77
2.48
10.52
18.53
26.51
34.24
41.20
46.79
50.49
52.10
51.66
49.47
45.71
40.36
33.18
23.96
12.76
0.06
-13.37
-26.64
-38.82
-49.19
-57.37
-63.32
-67.39
-70.19
-72.43
-74.65
-77.08
-79.29
-80.60
-80.26
-77.84
-73.21
-66.60
-58.39
-49.07
-39.12
-28.35
-16.61
-4.12
8.42
20.00
29.76
37.31
42.85
46.86
51.11
56.87
64.32
72.54
80.09
85.88
89.70
91.98
93.20
95.67
100.95
109.40
119.97
130.93
140.86
149.40
157.08
164.81
176.24
194.20
219.68
251.21
285.68
320.17
353.76
387.78
406.37
398.83
361.16
299.06
224.72
149.50
79.28
14.98
-44.77
-101.15
-150.88
-189.60
-213.54
-221.55
-215.80
-201.01
-182.58
-165.38
-152.67
-143.37
-135.15
-125.63
-114.04
-100.90
-88.84
-79.80
-74.44
-72.23
-70.42
-66.67
-59.52
-49.24
-37.67
-27.38
-20.31
-17.25
-17.69
-19.48
-20.91
-20.90
-19.67
-18.55
-19.30
-23.13
-30.69
-42.60
-55.47
-68.54
-82.46
-98.85
-119.29
-144.17
-171.87
-199.12
-222.17
-238.32
-247.56
-251.74
-253.56
-255.29
-257.92
-261.05
-263.47
-263.71
-260.12
-251.27
-235.30
-210.53
-176.38
-134.35
-88.05
-42.33
-1.75
30.86
54.70
71.03
81.92
89.23
93.85
95.84
95.06
91.90
87.51
83.34
80.50
79.07
78.07
75.91
71.44
64.55
56.16
47.56
39.55
32.17
24.93
17.61
10.56
4.92
2.11
2.74
5.89
9.07
9.15
4.00
-5.79
-17.03
-24.50
-23.29
-11.29
9.47
33.58
54.40
66.85
69.65
64.38
54.63
43.99
34.60
26.77
19.45
10.85
-1.27
-17.21
-37.44
-60.71
-83.66
-102.25
-113.71
-117.54
-115.16
-111.83
-107.94
-103.06
-96.56
-88.52
-79.99
-72.73
-68.29
-66.41
-66.36
-66.24
-64.79
-61.31
-55.90
-49.32
-42.71
-37.07
-32.92
-30.35
-28.49
-26.67
-24.26
-20.83
-16.28
-10.86
-4.91
1.38
8.02
15.55
24.26
34.09
44.43
54.14
61.99
67.21
70.00
71.36
72.90
75.79
80.37
86.04
91.64
95.91
97.93
97.34
94.39
90.08
86.06
84.42
87.16
95.49
109.28
127.05
146.51
165.41
182.22
196.21
207.15
214.83
218.85
218.83
214.87
207.83
199.24
190.89
184.16
179.37
175.55
170.40
160.58
142.38
112.68
69.89
14.82
-49.02
-116.09
-180.07
-235.41
-278.56
-308.36
-325.78
-333.17
-333.44
-329.44
-323.56
-317.43
-311.69
-305.88
-298.54
-287.83
-272.25
-251.30
-225.84
-197.81
-169.56
-143.08
-119.19
-97.38
-75.98
-53.04
-27.21
1.45
31.30
59.90
85.20
106.62
125.38
143.76
163.67
185.37
207.16
226.18
239.87
247.11
248.48
245.51
239.62
231.35
220.54
207.00
191.23
174.64
158.97
145.50
134.54
125.45
117.23
109.11
100.89
92.77
85.06
77.82
70.88
64.04
57.35
51.20
46.12
42.45
40.05
38.24
36.20
33.46
30.31
27.66
26.57
27.48
29.86
32.30
33.25
31.83
28.35
24.09
20.57
18.77
18.67
19.38
19.84
19.27
17.45
14.50
10.53
5.42
-1.02
-8.77
-17.33
-25.68
-32.66
-37.33
-39.49
-39.78
-39.27
-39.02
-39.48
-40.44
-41.45
-42.69
-45.38
-51.65
-63.41
-81.01
-102.31
-123.03
-138.31
-144.81
-142.23
-133.25
-122.17
-112.80
-106.95
-104.15
-102.67
-100.92
-98.48
-96.31
-96.11
-99.42
-107.09
-118.88
-134.04
-151.58
-170.73
-190.98
-211.70
-231.46
-247.58
-256.49
-255.14
-242.98
-222.95
-200.86
-182.80
-171.96
-166.70
-161.27
-148.89
-125.48
-91.87
-53.03
-15.24
17.19
43.55
65.89
86.80
107.36
126.54
142.24
152.88
158.38
160.03
159.71
158.56
156.58
152.87
146.40
136.85
124.96
112.30
100.70
91.56
85.43
81.99
80.31
79.31
78.09
76.20
73.60
70.60
67.67
65.25
63.66
62.94
62.83
62.87
62.56
61.61
60.11
58.41
56.95
55.94
55.28
54.52
53.21
51.08
48.20
44.85
41.34
37.74
33.80
29.06
23.13
15.87
7.54
-1.40
-10.43
-19.29
-27.91
-36.32
-44.34
-51.42
-56.66
-59.09
-58.12
-53.85
-47.08
-39.00
-30.77
-23.11
-16.18
-9.86
-3.99
1.36
5.92
9.40
11.75
13.21
14.20
15.15
16.24
17.44
18.53
19.32
19.69
19.66
19.35
18.95
18.63
18.52
18.66
18.88
18.85
18.10
16.20
12.94
8.43
2.98
-2.99
-9.21
-15.56
-22.12
-28.99
-36.16
-43.49
-50.67
-57.32
-63.01
-67.24
-69.49
-69.24
-66.14
-60.16
-51.64
-41.30
-29.98
-18.48
-7.39
2.97
12.43
20.81
27.87
33.38
37.24
39.59
40.82
41.43
41.81
42.13
42.25
41.92
40.96
39.34
37.21
34.81
32.31
29.81
27.33
24.87
22.47
20.17
17.97
15.72
13.22
10.25
6.70
2.64
-1.73
-6.20
-10.62
-15.02
-19.58
-24.48
-29.85
-35.64
-41.67
-47.59
-53.00
-57.38
-60.13
-60.66
-58.50
-53.55
-46.08
-36.82
-26.66
-16.42
-6.64
2.42
10.69
18.09
24.39
29.35
32.75
34.65
35.39
35.44
35.22
34.96
34.60
34.00
33.06
31.87
30.66
29.67
28.91
28.10
26.76
24.41
20.84
16.29
11.35
6.69
2.75
-0.46
-3.30
-6.33
-10.01
-14.51
-19.67
-25.02
-29.99
-33.95
-36.41
-36.98
-35.51
-32.05
-26.80
-20.19
-12.73
-5.00
2.49
9.32
15.30
20.41
24.67
27.98
30.06
30.51
29.08
26.01
22.09
18.46
16.08
15.28
15.52
15.72
14.84
12.44
8.95
5.39
2.80
1.76
2.12
3.22
4.28
4.81
4.76
4.38
3.92
3.39
2.57
1.03
-1.61
-5.56
-10.79
-17.13
-24.27
-31.86
-39.50
-46.61
-52.56
-56.61
-58.09
-56.65
-52.34
-45.68
-37.56
-28.92
-20.55
-12.88
-5.98
0.34
6.29
12.00
17.40
22.25
26.26
29.17
30.89
31.54
31.40
30.78
29.91
28.80
27.31
25.24
22.50
19.23
15.71
12.26
9.00
5.90
2.73
-0.66
-4.30
-8.07
-11.81
-15.50
-19.25
-23.31
-27.82
-32.73
-37.81
-42.78
-47.57
-52.46
-58.02
-64.84
-73.17
-82.64
-92.22
-100.49
-106.11
-108.32
-107.24
-103.77
-99.25
-94.95
-91.61
-89.33
-87.68
-86.07
-84.16
-82.08
-80.34
-79.47
-79.54
-79.80
-78.74
-74.50
-65.50
-51.10
-31.88
-9.52
13.77
35.86
55.26
71.38
84.56
95.95
107.30
120.53
137.08
157.15
179.03
199.30
213.67
218.78
213.89
201.80
188.21
179.69
181.11
193.76
214.92
238.99
259.62
271.64
272.11
260.20
236.20
200.70
154.37
98.67
36.87
-25.59
-81.75
-124.97
-150.81
-158.20
-149.13
-127.44
-97.22
-62.17
-25.86
7.38
32.28
43.76
38.81
18.39
-12.40
-45.88
-74.66
-94.19
-103.90
-106.38
-105.45
-104.03
-103.03
-101.50
-97.75
-90.54
-80.02
-67.66
-55.69
-46.12
-40.04
-37.38
-37.26
-38.60
-40.74
-43.79
-48.45
-55.58
-65.68
-78.44
-92.71
-106.71
-118.33
-125.73
-127.79
-124.65
-117.63
-108.88
-100.41
-93.26
-87.14
-80.95
-73.82
-66.13
-59.63
-56.63
-58.61
-65.25
-74.48
-83.75
-91.24
-96.27
-98.74
-98.31
-94.27
-86.40
-75.89
-65.31
-57.03
-51.15
-44.34
-31.00
-6.18
31.23
77.44
125.47
168.63
203.41
230.05
250.68
266.56
276.56
277.79
267.88
247.19
219.49
190.84
167.24
152.41
146.43
145.91
145.09
137.83
119.80
90.54
54.45
20.24
-1.23
-0.15
28.91
84.99
160.59
243.66
320.89
381.13
417.67
429.02
417.99
389.89
350.72
305.78
259.27
214.25
172.88
136.43
104.91
76.98
50.04
21.15
-11.98
-50.01
-91.70
-134.30
-174.39
-208.93
-236.16
-255.87
-269.05
-276.94
-280.01
-277.25
-266.38
-245.12
-212.78
-171.67
-127.22
-86.80
-57.48
-43.86
-46.75
-63.29
-88.20
-115.47
-139.92
-158.02
-168.17
-170.50
-166.52
-158.69
-149.89
-142.65
-138.28
-136.36
-134.86
-131.04
-122.77
-109.51
-92.47
-73.90
-55.91
-39.69
-25.39
-12.76
-1.83
6.75
12.05
13.60
11.88
8.30
4.53
1.62
-0.49
-2.85
-6.85
-13.53
-23.22
-35.54
-49.69
-64.59
-78.82
-90.60
-97.83
-98.67
-92.10
-78.43
-59.16
-36.50
-12.63
10.80
32.59
51.70
66.96
77.16
81.51
80.13
74.26
65.94
57.34
50.06
44.78
41.23
38.51
35.59
31.67
26.38
19.81
12.32
4.43
-3.39
-10.78
-17.54
-23.60
-29.04
-33.98
-38.58
-43.04
-47.52
-52.19
-57.21
-62.70
-68.70
-75.19
-82.09
-89.20
-96.10
-101.82
-104.85
-103.39
-95.90
-81.87
-62.19
-39.12
-15.59
5.71
22.99
35.65
43.96
48.67
50.60
50.55
49.21
47.23
45.07
42.91
40.63
37.94
34.61
30.59
26.12
21.58
17.25
13.27
9.45
5.41
0.71
-4.94
-11.57
-18.90
-26.38
-33.51
-40.11
-46.55
-53.80
-63.18
-75.88
-92.27
-111.26
-129.97
-144.18
-149.43
-142.51
-122.81
-92.80
-57.22
-21.62
9.44
33.52
50.36
61.12
67.39
70.38
70.85
69.41
66.97
64.80
64.15
65.82
69.72
74.89
79.83
83.08
83.83
82.15
78.90
75.16
71.72
68.53
64.81
59.45
51.62
41.31
29.33
16.99
5.52
-4.34
-12.62
-19.87
-27.01
-34.97
-44.56
-56.19
-69.50
-83.12
-94.61
-101.00
-99.69
-89.50
-71.20
-47.34
-21.39
3.43
24.98
42.47
56.12
66.50
73.99
78.69
80.58
79.86
77.13
73.29
69.27
65.67
62.60
59.71
56.50
52.63
48.19
43.72
39.91
37.25
35.69
34.56
32.80
29.41
23.85
16.31
7.59
-1.21
-9.20
-15.97
-21.68
-26.94
-32.47
-38.93
-46.75
-56.03
-66.42
-76.92
-85.77
-90.67
-89.34
-80.35
-63.75
-41.29
-15.89
9.30
31.83
50.53
65.52
77.73
88.29
98.15
107.88
117.70
127.46
136.56
143.98
148.41
148.71
144.34
135.78
124.49
112.47
101.49
92.47
85.07
78.01
69.64
58.69
44.80
28.58
11.38
-5.35
-20.38
-33.16
-43.79
-52.96
-61.45
-69.56
-76.53
-80.24
-77.67
-65.79
-42.92
-9.71
30.50
72.15
108.73
134.18
144.25
137.47
115.42
82.34
43.99
6.22
-26.48
-51.86
-69.82
-81.53
-88.41
-91.40
-91.03
-87.99
-83.54
-79.50
-77.55
-78.53
-81.93
-86.35
-90.27
-93.08
-95.39
-98.64
-104.13
-112.05
-121.16
-129.37
-134.91
-137.32
-137.87
-138.98
-143.04
-151.21
-162.76
-175.11
-184.55
-187.26
-180.24
-162.13
-133.48
-96.78
-55.86
-14.92
22.59
54.68
80.96
102.17
119.31
133.06
143.62
150.99
155.22
156.54
155.10
150.64
142.37
129.37
111.33
89.16
65.10
42.01
22.36
7.24
-3.89
-12.62
-20.68
-29.02
-37.57
-45.62
-52.52
-58.16
-62.98
-67.55
-71.95
-75.64
-77.58
-76.80
-72.99
-66.78
-59.50
-52.73
-47.59
-44.31
-42.12
-39.57
-35.18
-28.00
-17.92
-5.60
7.94
21.70
34.98
47.34
58.50
68.15
75.90
81.34
84.18
84.30
81.89
77.37
71.22
63.83
55.21
45.05
32.82
18.12
1.09
-17.43
-35.82
-52.09
-64.28
-71.06
-72.09
-68.26
-61.51
-54.48
-49.67
-48.55
-50.99
-55.07
-57.93
-56.84
-50.43
-39.20
-25.12
-10.64
2.49
13.71
23.55
32.77
41.66
49.77
56.26
60.53
62.58
62.97
62.31
60.85
58.28
54.13
48.27
41.23
34.17
28.40
24.93
24.24
26.33
30.98
37.78
46.11
54.84
62.37
66.92
67.11
62.54
53.96
43.03
31.60
21.13
12.24
4.88
-1.33
-6.72
-11.23
-14.58
-16.49
-17.12
-17.18
-17.83
-20.23
-24.89
-31.46
-38.72
-45.12
-49.44
-51.20
-50.78
-48.94
-46.47
-43.75
-40.71
-37.07
-32.61
-27.34
-21.51
-15.43
-9.28
-3.18
2.93
9.10
15.38
21.76
28.09
34.04
39.09
42.65
44.22
43.69
41.42
38.19
34.93
32.40
31.00
30.72
31.37
32.72
34.69
37.27
40.43
44.11
48.20
52.54
56.93
61.06
64.43
66.47
66.69
64.87
61.22
56.29
50.81
45.41
40.49
36.21
32.50
29.24
26.23
23.34
20.43
17.37
14.03
10.26
5.96
1.02
-4.52
-10.52
-16.69
-22.62
-27.88
-32.14
-35.27
-37.30
-38.46
-39.02
-39.31
-39.64
-40.30
-41.50
-43.28
-45.45
-47.62
-49.24
-49.87
-49.36
-47.97
-46.32
-45.13
-44.90
-45.72
-47.23
-48.82
-49.86
-50.00
-49.29
-48.12
-47.05
-46.47
-46.43
-46.57
-46.23
-44.70
-41.54
-36.67
-30.39
-23.27
-15.86
-8.63
-1.86
4.26
9.65
14.30
18.27
21.74
24.89
27.80
30.35
32.23
33.00
32.36
30.29
27.15
23.54
20.15
17.52
15.93
15.36
15.47
15.83
15.96
15.56
14.57
13.19
11.80
10.88
10.78
11.75
13.82
16.81
20.32
23.78
26.52
27.96
27.80
26.13
23.31
19.90
16.35
12.90
9.51
6.09
2.57
-1.02
-4.58
-8.01
-11.29
-14.44
-17.40
-20.06
-22.18
-23.51
-23.92
-23.39
-22.04
-20.10
-17.82
-15.43
-13.17
-11.24
-9.75
-8.70
-7.98
-7.39
-6.72
-5.86
-4.75
-3.47
-2.13
-0.88
0.12
0.71
0.74
0.12
-1.17
-3.01
-5.22
-7.53
-9.67
-11.37
-12.46
-12.89
-12.75
-12.26
-11.66
-11.09
-10.42
-9.34
-7.45
-4.51
-0.59
3.92
8.44
12.46
15.71
18.20
20.11
21.64
22.87
23.79
24.40
24.80
25.12
25.53
26.02
26.41
26.42
25.84
24.60
22.89
20.99
19.17
17.54
16.02
14.37
12.32
9.68
6.37
2.46
-1.91
-6.62
-11.60
-16.88
-22.53
-28.63
-35.14
-41.88
-48.53
-54.53
-59.20
-61.78
-61.60
-58.32
-52.04
-43.35
-33.23
-22.84
-13.25
-5.23
0.89
5.20
8.15
10.29
12.17
14.16
16.41
18.86
21.30
23.47
25.10
26.00
26.05
25.23
23.61
21.30
18.47
15.25
11.78
8.14
4.41
0.68
-2.90
-6.21
-9.12
-11.55
-13.50
-15.07
-16.43
-17.83
-19.53
-21.74
-24.59
-28.02
-31.78
-35.41
-38.37
-40.20
-40.59
-39.45
-36.81
-32.75
-27.36
-20.85
-13.60
-6.21
0.63
6.38
10.87
14.22
16.79
18.87
20.58
21.88
22.69
22.99
22.97
22.90
23.07
23.73
25.03
27.04
29.70
32.85
36.11
39.08
41.39
42.86
43.55
43.65
43.41
42.98
42.43
41.74
40.88
39.84
38.65
37.29
35.73
33.90
31.74
29.23
26.42
23.39
20.27
17.20
14.37
11.92
9.88
8.22
6.74
5.17
3.30
1.06
-1.42
-3.83
-5.77
-6.84
-6.75
-5.42
-2.94
0.33
3.91
7.26
9.92
11.61
12.25
11.94
10.85
9.12
6.81
3.93
0.49
-3.44
-7.67
-12.00
-16.23
-20.28
-24.07
-27.59
-30.77
-33.55
-35.93
-38.08
-40.34
-43.09
-46.64
-51.03
-55.99
-61.00
-65.34
-68.32
-69.34
-67.98
-64.08
-57.77
-49.48
-39.86
-29.75
-19.99
-11.29
-4.09
1.45
5.43
8.08
9.68
10.40
10.40
9.77
8.60
7.08
5.46
3.95
2.66
1.54
0.35
-1.21
-3.37
-6.21
-9.62
-13.37
-17.18
-20.90
-24.40
-27.68
-30.69
-33.37
-35.64
-37.43
-38.70
-39.45
-39.61
-38.89
-36.82
-32.70
-25.91
-16.21
-3.95
9.84
23.69
36.06
45.84
52.55
56.36
57.85
57.79
56.82
55.43
53.91
52.40
50.92
49.45
47.94
46.38
44.82
43.34
41.97
40.68
39.27
37.44
34.88
31.46
27.29
22.78
18.56
15.26
13.30
12.79
13.54
15.13
17.19
19.48
21.97
24.74
27.81
30.96
33.64
34.93
33.80
29.42
21.45
10.33
-2.82
-16.50
-29.23
-39.92
-48.02
-53.38
-56.03
-56.08
-53.70
-49.20
-43.23
-36.61
-30.21
-24.60
-19.88
-15.76
-11.81
-7.73
-3.51
0.55
3.99
6.41
7.50
7.11
5.35
2.48
-0.96
-4.30
-6.95
-8.58
-9.22
-9.24
-9.06
-8.94
-8.82
-8.44
-7.55
-6.10
-4.33
-2.57
-1.10
0.04
1.01
2.03
3.20
4.43
5.40
5.76
5.21
3.69
1.41
-1.25
-3.80
-5.83
-7.09
-7.50
-7.10
-5.97
-4.22
-1.98
0.57
3.14
5.45
7.31
8.68
9.68
10.48
11.20
11.84
12.30
12.48
12.40
12.24
12.27
12.71
13.59
14.70
15.72
16.34
16.44
16.09
15.50
14.82
14.09
13.20
12.06
10.71
9.34
8.22
7.47
7.01
6.47
5.44
3.64
1.10
-1.84
-4.71
-7.11
-8.90
-10.25
-11.50
-13.07
-15.16
-17.74
-20.51
-23.01
-24.76
-25.42
-24.84
-23.10
-20.45
-17.25
-13.87
-10.62
-7.76
-5.48
-3.90
-3.01
-2.71
-2.72
-2.72
-2.42
-1.71
-0.64
0.60
1.82
2.96
4.05
5.20
6.44
7.74
8.96
10.05
11.05
12.13
13.39
14.84
16.28
17.40
17.93
17.74
16.93
15.74
14.35
12.85
11.21
9.29
7.02
4.51
1.95
-0.43
-2.49
-4.30
-6.02
-7.86
-9.86
-11.92
-13.72
-15.06
-15.88
-16.37
-16.89
-17.72
-18.96
-20.43
-21.81
-22.77
-23.15
-23.05
-22.71
-22.44
-22.48
-22.88
-23.57
-24.39
-25.13
-25.62
-25.68
-25.16
-23.92
-21.88
-19.25
-16.58
-14.80
-14.93
-17.66
-22.91
-29.66
-36.23
-40.91
-42.55
-41.06
-37.24
-32.37
-27.59
-23.58
-20.46
-18.21
-16.84
-16.57
-17.65
-20.08
-23.54
-27.43
-31.17
-34.46
-37.33
-40.00
-42.63
-45.18
-47.41
-49.01
-49.81
-49.90
-49.57
-49.16
-48.84
-48.49
-47.75
-46.10
-43.07
-38.38
-32.06
-24.41
-15.91
-7.14
1.43
9.42
16.58
22.77
27.91
31.99
35.12
37.49
39.39
41.09
42.71
44.13
45.09
45.29
44.61
43.20
41.42
39.66
38.12
36.67
34.98
32.60
29.22
24.82
19.62
14.02
8.43
3.09
-1.96
-6.90
-12.00
-17.58
-23.84
-30.79
-38.26
-45.79
-52.67
-58.02
-60.84
-60.29
-55.91
-47.79
-36.55
-23.19
-8.81
5.63
19.39
32.07
43.51
53.70
62.81
70.96
78.20
84.40
89.32
92.77
94.81
95.79
96.25
96.71
97.35
97.94
97.99
97.02
94.88
91.78
88.14
84.28
80.27
75.85
70.65
64.49
57.48
50.01
42.53
35.37
28.67
22.43
16.71
11.68
7.54
4.33
1.80
-0.54
-3.18
-6.30
-9.65
-12.74
-15.01
-16.23
-16.49
-16.11
-15.35
-14.27
-12.75
-10.64
-7.99
-5.07
-2.20
0.30
2.28
3.69
4.38
4.14
2.71
-0.01
-3.74
-7.82
-11.35
-13.52
-13.88
-12.60
-10.36
-8.04
-6.50
-6.24
-7.45
-10.08
-14.00
-18.96
-24.64
-30.55
-36.09
-40.76
-44.29
-46.80
-48.75
-50.67
-52.94
-55.60
-58.46
-61.17
-63.51
-65.43
-67.11
-68.91
-71.21
-74.32
-78.34
-83.05
-88.01
-92.59
-96.20
-98.32
-98.53
-96.45
-91.80
-84.45
-74.59
-62.86
-50.19
-37.50
-25.40
-14.06
-3.25
7.30
17.66
27.56
36.55
44.21
50.36
55.05
58.49
60.90
62.47
63.31
63.56
63.35
62.77
61.85
60.46
58.41
55.56
51.92
47.66
43.13
38.70
34.59
30.80
27.07
22.96
18.06
12.18
5.48
-1.53
-8.17
-13.82
-18.16
-21.42
-24.29
-27.66
-32.25
-38.18
-44.78
-50.61
-53.82
-52.66
-45.95
-33.44
-15.91
4.99
27.08
48.11
66.20
80.25
90.17
96.76
101.36
105.32
109.48
114.02
118.57
122.51
125.36
126.84
126.84
125.25
121.95
116.94
110.56
103.50
96.67
90.71
85.51
80.08
72.89
62.60
48.72
31.92
13.77
-3.96
-20.03
-34.08
-46.55
-58.14
-69.32
-80.02
-89.69
-97.72
-103.71
-107.71
-110.18
-111.87
-113.61
-116.19
-120.13
-125.38
-131.13
-135.75
-137.19
-133.61
-124.02
-108.74
-89.32
-67.96
-46.79
-27.35
-10.38
3.92
15.56
24.56
31.02
35.19
37.64
39.12
40.30
41.52
42.66
43.34
43.13
41.89
39.79
37.32
34.96
33.03
31.49
30.08
28.45
26.36
23.83
20.98
17.94
14.70
11.06
6.83
1.92
-3.54
-9.23
-14.79
-20.02
-24.93
-29.74
-34.75
-40.23
-46.42
-53.52
-61.75
-71.06
-80.94
-90.20
-97.02
-99.44
-95.99
-86.26
-71.12
-52.40
-32.27
-12.64
5.24
20.76
33.71
44.06
51.80
57.03
60.05
61.37
61.64
61.44
61.11
60.72
60.13
59.11
57.57
55.59
53.43
51.38
49.61
47.98
46.12
43.54
39.96
35.38
30.17
24.86
19.89
15.42
11.27
7.05
2.38
-2.91
-8.72
-14.76
-20.66
-26.16
-31.19
-35.90
-40.62
-45.87
-52.21
-60.10
-69.67
-80.42
-91.02
-99.43
-103.32
-100.80
-91.04
-74.68
-53.67
-30.66
-8.22
11.77
28.39
41.51
51.41
58.49
63.09
65.55
66.29
65.84
64.75
63.39
61.92
60.28
58.35
56.10
53.62
51.09
48.70
46.46
44.24
41.83
39.02
35.76
32.13
28.29
24.35
20.27
15.84
10.81
4.99
-1.60
-8.65
-15.70
-22.30
-28.18
-33.43
-38.45
-43.92
-50.58
-58.89
-68.79
-79.37
-88.86
-94.95
-95.43
-88.91
-75.40
-56.32
-34.08
-11.23
10.17
28.96
44.73
57.51
67.37
74.35
78.55
80.35
80.40
79.57
78.64
78.00
77.65
77.22
76.31
74.65
72.21
69.14
65.60
61.57
56.79
50.88
43.51
34.64
24.63
14.22
4.27
-4.49
-11.80
-17.88
-23.34
-28.88
-34.98
-41.70
-48.69
-55.41
-61.39
-66.39
-70.56
-74.35
-78.40
-83.42
-90.08
-98.71
-108.97
-119.49
-127.91
-131.37
-127.41
-114.98
-94.95
-69.89
-43.15
-17.69
4.72
23.59
39.25
52.13
62.25
69.35
73.25
74.19
72.99
70.73
68.29
66.03
63.75
60.91
57.03
52.01
46.18
40.22
34.88
30.59
27.35
24.61
21.55
17.34
11.57
4.38
-3.52
-11.15
-17.66
-22.73
-26.73
-30.61
-35.45
-42.10
-50.72
-60.82
-71.34
-81.04
-88.75
-93.64
-95.47
-94.69
-92.54
-90.87
-91.52
-95.50
-102.19
-109.05
-112.26
-108.02
-93.98
-70.17
-39.00
-4.33
29.97
61.08
87.74
109.99
128.53
144.05
156.95
167.29
175.06
180.40
183.71
185.56
186.52
186.87
186.56
185.41
183.32
180.62
178.06
176.56
176.61
177.96
179.47
179.55
176.74
170.19
159.74
145.56
127.82
106.57
82.04
55.13
27.56
1.45
-21.60
-41.30
-58.89
-76.25
-94.73
-114.07
-132.28
-146.45
-153.87
-153.07
-144.02
-127.73
-105.70
-79.52
-50.87
-21.65
5.96
29.86
48.58
61.63
69.57
73.60
75.04
74.82
73.34
70.63
66.49
60.78
53.26
43.55
31.03
15.10
-4.50
-27.26
-51.77
-76.03
-98.16
-117.07
-132.88
-146.86
-160.86
-176.51
-194.55
-214.30
-233.69
-249.70
-259.16
-259.75
-250.81
-233.65
-211.15
-186.89
-164.02
-144.54
-129.04
-117.08
-107.77
-100.28
-94.11
-89.08
-85.17
-82.42
-80.77
-80.09
-80.16
-80.67
-81.24
-81.42
-80.62
-78.20
-73.49
-66.02
-55.77
-43.24
-29.51
-15.86
-3.41
7.19
15.92
23.13
29.20
34.28
38.24
40.77
41.70
41.16
39.65
37.90
36.66
36.48
37.54
39.64
42.26
44.62
45.92
45.51
43.24
39.45
35.05
31.14
28.68
28.17
29.56
32.27
35.59
38.85
41.64
43.81
45.44
46.73
48.00
49.71
52.40
56.60
62.72
70.91
80.98
92.44
104.55
116.44
127.25
136.15
142.35
145.20
144.27
139.48
131.16
119.95
106.72
92.36
77.70
63.43
50.01
37.60
26.05
14.98
4.01
-6.92
-17.40
-26.65
-33.81
-38.30
-40.08
-39.62
-37.65
-34.86
-31.78
-28.83
-26.37
-24.78
-24.36
-25.23
-27.25
-30.04
-33.05
-35.75
-37.74
-38.87
-39.22
-39.06
-38.62
-37.94
-36.69
-34.32
-30.34
-24.70
-17.96
-11.14
-5.33
-1.18
1.31
2.75
3.93
5.42
7.42
9.93
13.09
17.42
23.73
32.78
44.72
58.82
73.54
87.19
98.66
108.09
116.91
127.29
141.12
158.96
179.49
199.73
215.89
224.44
223.09
211.20
189.69
160.56
126.26
89.26
51.58
14.65
-20.90
-55.21
-88.88
-122.23
-154.35
-182.46
-202.08
-208.35
-198.03
-171.42
-133.01
-90.36
-51.70
-23.01
-6.23
0.81
2.51
3.03
4.31
5.73
5.30
1.46
-5.59
-13.88
-20.68
-23.83
-22.55
-17.16
-8.23
4.26
21.02
42.90
70.00
101.25
134.60
167.71
198.58
225.71
247.99
264.65
275.34
280.36
280.70
277.56
271.74
263.04
250.33
232.22
207.98
178.26
144.98
110.74
77.84
47.53
19.92
-5.67
-30.06
-53.81
-77.20
-100.83
-125.96
-154.26
-186.59
-221.51
-254.35
-277.94
-285.13
-271.80
-238.92
-192.33
-140.45
-91.04
-49.12
-16.76
5.52
17.37
18.24
8.48
-9.36
-30.29
-48.22
-58.36
-59.27
-53.20
-44.86
-39.28
-39.84
-47.61
-61.94
-81.67
-106.29
-136.26
-172.60
-215.77
-264.53
-315.34
-362.63
-400.21
-423.04
-428.91
-419.07
-397.69
-370.41
-342.62
-318.15
-298.89
-285.10
-276.02
-270.41
-267.00
-264.51
-261.90
-258.40
-253.67
-247.90
-241.90
-237.07
-235.11
-237.36
-243.88
-252.80
-260.19
-261.01
-250.72
-226.69
-188.95
-139.79
-82.72
-21.52
39.91
97.29
145.71
180.23
197.60
198.04
186.08
169.33
155.42
148.68
148.52
150.27
147.96
137.38
117.80
91.71
63.19
36.23
13.72
-2.36
-10.45
-9.21
2.33
24.33
55.91
95.25
139.47
184.64
225.77
257.54
275.64
278.56
268.36
250.14
230.01
212.80
200.54
192.51
186.40
180.13
173.02
166.02
160.96
159.50
162.36
168.95
177.74
186.79
194.32
199.21
200.87
199.02
193.39
183.66
169.72
152.06
131.94
111.25
91.90
75.11
60.99
48.60
36.46
23.26
8.46
-7.53
-23.49
-37.98
-49.98
-59.37
-67.06
-74.69
-83.92
-95.81
-110.24
-125.85
-140.42
-151.63
-157.78
-158.36
-154.17
-146.96
-138.81
-131.60
-126.68
-124.67
-125.46
-128.25
-131.66
-134.20
-134.88
-133.81
-132.22
-131.76
-133.29
-135.80
-136.40
-131.56
-119.01
-99.26
-75.45
-51.78
-31.25
-14.21
1.43
18.48
38.63
61.61
85.82
109.86
133.77
158.99
187.04
217.86
248.82
275.03
290.82
291.50
274.56
239.99
190.03
128.75
61.85
-3.66
-60.36
-101.67
-123.48
-125.09
-109.27
-81.26
-47.05
-11.90
20.67
49.04
73.06
93.41
110.96
126.33
139.77
151.33
161.11
169.54
177.14
184.06
189.65
192.61
191.64
186.33
177.39
166.16
153.63
139.90
124.49
107.41
90.25
76.16
68.74
70.06
79.43
93.48
107.64
118.22
123.67
124.63
122.81
119.68
115.82
111.02
105.01
98.05
90.94
84.54
79.02
73.57
66.51
56.07
41.01
21.20
-2.44
-28.32
-54.66
-79.93
-103.10
-123.71
-141.90
-158.22
-173.32
-187.60
-200.94
-212.78
-222.33
-228.98
-232.61
-233.47
-231.78
-227.28
-219.04
-205.85
-187.08
-163.61
-138.06
-114.28
-96.04
-85.52
-82.60
-85.12
-90.03
-94.85
-98.68
-102.18
-106.87
-114.24
-125.34
-140.91
-161.51
-187.23
-216.92
-247.52
-274.17
-291.35
-294.68
-282.23
-254.75
-214.56
-164.21
-105.81
-41.73
24.16
85.76
135.45
166.42
175.45
164.79
142.07
118.02
103.03
103.83
121.34
151.00
185.05
215.68
237.64
249.08
250.84
244.89
233.13
217.27
199.25
181.92
168.43
161.06
159.78
161.78
162.21
155.95
139.46
111.94
75.56
34.63
-5.68
-40.86
-68.31
-87.96
-102.02
-113.84
-126.40
-141.04
-157.07
-172.23
-183.78
-189.60
-188.93
-182.47
-171.94
-159.43
-146.68
-134.68
-123.76
-113.90
-105.21
-98.19
-93.47
-91.46
-91.97
-94.09
-96.59
-98.39
-98.94
-98.21
-96.52
-94.12
-91.06
-87.26
-82.79
-78.05
-73.74
-70.54
-68.85
-68.41
-68.33
-67.37
-64.27
-58.14
-48.70
-36.23
-21.57
-5.85
9.64
23.76
35.72
45.30
52.91
59.41
65.74
72.52
79.71
86.66
92.33
95.82
96.63
94.91
91.22
86.26
80.52
74.22
67.32
59.73
51.48
42.70
33.56
24.14
14.39
4.24
-6.26
-16.94
-27.43
-37.29
-46.12
-53.48
-58.93
-61.96
-62.09
-59.02
-52.78
-43.75
-32.60
-20.08
-6.88
6.43
19.38
31.52
42.44
51.73
59.21
64.88
69.01
71.96
74.05
75.45
76.16
76.07
75.06
73.13
70.42
67.17
63.63
60.00
56.36
52.72
49.09
45.52
42.05
38.69
35.35
31.89
28.17
24.16
19.88
15.44
10.92
6.36
1.72
-3.10
-8.23
-13.73
-19.52
-25.30
-30.60
-34.74
-36.97
-36.65
-33.36
-27.06
-18.09
-7.05
5.41
18.73
32.50
46.43
60.23
73.60
86.26
98.08
109.20
120.22
132.16
146.28
163.54
183.85
205.49
225.07
238.31
241.52
233.11
214.30
188.61
160.42
133.31
109.11
87.98
69.32
52.61
37.58
23.95
11.02
-2.22
-16.46
-31.41
-46.24
-60.79
-76.95
-98.58
-129.50
-170.51
-217.16
-260.19
-288.51
-293.54
-272.09
-226.71
-163.79
-91.10
-16.18
54.14
113.73
157.67
183.32
191.21
184.66
168.07
145.01
117.38
86.24
53.20
21.40
-4.91
-21.75
-26.99
-20.92
-5.84
15.00
38.25
60.77
79.45
91.26
93.44
84.22
63.69
34.19
0.07
-33.61
-62.83
-85.87
-103.16
-116.03
-124.41
-125.56
-114.56
-86.89
-41.36
18.37
84.59
148.24
201.93
241.63
266.48
277.41
275.77
262.83
240.21
210.44
177.04
143.66
113.04
86.17
62.29
39.51
15.75
-10.39
-39.27
-70.30
-102.30
-134.18
-165.70
-197.84
-232.38
-271.00
-314.01
-359.61
-404.03
-442.56
-470.92
-486.40
-488.17
-477.02
-454.64
-423.11
-384.57
-341.12
-294.55
-246.00
-195.89
-144.12
-90.93
-37.85
11.94
53.88
83.41
97.33
95.03
78.64
52.50
22.15
-6.58
-28.43
-39.67
-38.68
-26.34
-5.50
20.11
47.20
73.61
98.44
121.67
143.67
165.33
188.35
215.43
249.36
291.45
339.57
387.43
425.77
445.06
438.77
405.36
348.56
275.88
196.25
117.59
45.10
-19.21
-75.89
-126.49
-172.09
-212.18
-244.59
-266.31
-274.98
-270.14
-253.66
-229.02
-199.79
-168.22
-134.98
-100.00
-63.79
-27.98
5.50
36.01
65.35
97.22
134.82
178.08
222.09
258.16
277.25
273.74
247.56
203.56
148.91
90.26
32.17
-22.69
-72.36
-114.80
-147.92
-170.37
-182.10
-184.36
-179.13
-168.45
-154.09
-137.50
-120.06
-103.03
-87.38
-73.51
-61.30
-50.31
-40.28
-31.24
-23.54
-17.58
-13.64
-11.74
-11.73
-13.37
-16.40
-20.52
-25.44
-30.83
-36.36
-41.62
-46.10
-49.26
-50.74
-50.66
-49.73
-49.18
-50.29
-53.87
-59.89
-67.46
-75.24
-81.88
-86.51
-88.71
-88.43
-85.74
-80.71
-73.40
-64.03
-53.02
-40.95
-28.41
-15.83
-3.42
8.71
20.31
30.97
40.14
47.39
52.68
56.43
59.37
62.27
65.61
69.41
73.30
76.66
78.89
79.54
78.47
75.76
71.77
66.93
61.65
56.17
50.52
44.60
38.29
31.60
24.66
17.67
10.87
4.39
-1.78
-7.75
-13.71
-19.93
-26.72
-34.36
-43.01
-52.63
-62.91
-73.34
-83.30
-92.17
-99.44
-104.76
-107.87
-108.51
-106.48
-101.56
-93.71
-83.04
-69.96
-55.04
-39.03
-22.73
-6.99
7.40
19.77
29.67
37.01
42.07
45.47
48.02
50.47
53.32
56.68
60.33
63.85
66.88
69.27
71.14
72.68
74.04
75.09
75.49
74.77
72.63
69.02
64.18
58.53
52.46
46.29
40.20
34.25
28.53
23.08
17.93
13.04
8.36
3.75
-0.91
-5.80
-11.17
-17.28
-24.32
-32.34
-41.14
-50.25
-58.97
-66.36
-71.45
-73.37
-71.63
-66.24
-57.80
-47.32
-35.88
-24.42
-13.50
-3.39
5.73
13.61
19.94
24.46
27.19
28.53
29.18
29.86
31.05
32.85
34.99
37.02
38.48
39.14
38.95
38.06
36.60
34.72
32.49
29.97
27.29
24.68
22.35
20.46
18.94
17.58
16.15
14.57
13.01
11.87
11.59
12.47
14.39
16.91
19.23
20.56
20.23
17.87
13.53
7.64
1.00
-5.29
-9.92
-11.68
-9.73
-3.87
5.31
16.64
28.70
40.24
50.42
58.89
65.57
70.49
73.62
74.90
74.36
72.20
68.79
64.56
59.94
55.28
50.86
46.79
43.11
39.71
36.41
33.04
29.50
25.79
21.98
18.09
14.12
10.00
5.70
1.23
-3.24
-7.52
-11.38
-14.70
-17.55
-20.13
-22.78
-25.85
-29.61
-34.11
-39.19
-44.55
-49.89
-55.08
-60.21
-65.50
-71.19
-77.31
-83.60
-89.52
-94.40
-97.45
-97.97
-95.37
-89.29
-79.70
-66.96
-51.89
-35.63
-19.47
-4.57
8.25
18.61
26.49
32.08
35.71
37.79
38.88
39.65
40.80
42.85
45.93
49.71
53.52
56.61
58.46
58.95
58.36
57.05
55.30
53.12
50.33
46.68
42.09
36.68
30.82
24.91
19.34
14.36
9.99
6.08
2.30
-1.68
-6.16
-11.27
-16.93
-22.95
-29.05
-35.03
-40.76
-46.28
-51.69
-57.20
-63.06
-69.54
-76.72
-84.28
-91.42
-96.78
-98.74
-95.91
-87.58
-74.04
-56.57
-37.07
-17.52
0.47
15.95
28.55
38.34
45.62
50.78
54.23
56.48
58.04
59.35
60.66
62.09
63.53
64.85
65.89
66.53
66.69
66.40
65.75
64.91
64.10
63.43
62.93
62.50
61.99
61.31
60.45
59.52
58.61
57.74
56.86
55.86
54.69
53.42
52.25
51.44
51.16
51.41
52.02
52.75
53.38
53.84
54.15
54.36
54.44
54.22
53.49
52.13
50.12
47.61
44.68
41.22
36.85
31.07
23.48
13.93
2.65
-9.90
-23.17
-36.56
-49.43
-61.08
-70.80
-78.05
-82.64
-84.91
-85.63
-85.73
-85.91
-86.40
-86.94
-86.97
-85.97
-83.75
-80.46
-76.61
-72.72
-69.24
-66.30
-63.85
-61.67
-59.59
-57.52
-55.54
-53.83
-52.56
-51.90
-51.96
-52.78
-54.31
-56.46
-59.09
-62.05
-65.24
-68.62
-72.22
-76.14
-80.46
-85.08
-89.55
-92.99
-94.09
-91.42
-83.88
-71.17
-53.94
-33.80
-12.86
6.84
23.77
37.19
47.10
53.97
58.44
61.17
62.67
63.37
63.57
63.43
62.90
61.79
59.80
56.75
52.76
48.31
44.10
40.76
38.56
37.26
36.25
34.88
32.83
30.28
27.76
25.80
24.61
23.95
23.24
21.95
19.91
17.31
14.60
12.02
9.51
6.72
3.27
-0.92
-5.56
-10.11
-14.18
-17.79
-21.41
-25.67
-31.00
-37.24
-43.58
-48.81
-51.67
-51.31
-47.45
-40.49
-31.30
-21.00
-10.66
-1.11
7.20
14.16
19.97
24.91
29.27
33.18
36.66
39.67
42.13
44.07
45.53
46.54
47.12
47.24
46.87
46.04
44.82
43.36
41.78
40.10
38.29
36.21
33.75
30.87
27.65
24.28
20.95
17.81
14.87
11.94
8.76
5.06
0.78
-3.91
-8.67
-13.12
-17.07
-20.62
-24.14
-28.18
-33.22
-39.46
-46.66
-54.02
-60.34
-64.16
-64.11
-59.32
-49.64
-35.85
-19.50
-2.58
12.91
25.51
34.54
40.15
43.06
44.21
44.31
43.75
42.56
40.72
38.34
35.84
33.79
32.67
32.69
33.65
35.08
36.42
37.32
37.60
37.36
36.71
35.71
34.36
32.59
30.39
27.83
25.12
22.46
20.06
17.99
16.18
14.42
12.40
9.89
6.73
2.94
-1.24
-5.55
-9.72
-13.64
-17.33
-20.97
-24.77
-28.94
-33.72
-39.29
-45.77
-53.01
-60.53
-67.42
-72.53
-74.71
-73.18
-67.77
-58.99
-47.84
-35.54
-23.24
-11.80
-1.73
6.75
13.67
19.21
23.69
27.41
30.67
33.62
36.31
38.66
40.51
41.75
42.35
42.45
42.34
42.35
42.81
43.92
45.71
47.99
50.45
52.77
54.65
55.98
56.84
57.47
58.27
59.62
61.68
64.31
66.99
68.92
69.25
67.30
62.68
55.35
45.43
33.24
19.13
3.57
-12.91
-29.69
-46.15
-61.75
-76.09
-89.03
-100.55
-110.69
-119.35
-126.13
-130.42
-131.48
-128.81
-122.42
-112.88
-101.27
-88.79
-76.47
-64.92
-54.36
-44.75
-35.95
-27.83
-20.29
-13.24
-6.56
-0.18
5.95
11.80
17.29
22.34
26.87
30.91
34.54
37.88
40.99
43.85
46.26
47.94
48.66
48.31
46.97
44.87
42.29
39.45
36.48
33.42
30.29
27.14
24.00
20.87
17.67
14.26
10.49
6.26
1.56
-3.47
-8.68
-13.88
-19.03
-24.24
-29.83
-36.15
-43.41
-51.57
-60.14
-68.31
-75.02
-79.24
-80.16
-77.37
-70.97
-61.49
-49.87
-37.21
-24.62
-12.99
-2.92
5.37
11.92
16.97
20.82
23.75
26.00
27.78
29.24
30.44
31.40
32.11
32.57
32.88
33.15
33.53
34.07
34.76
35.45
35.89
35.85
35.15
33.69
31.50
28.74
25.63
22.34
19.00
15.61
12.10
8.38
4.46
0.45
-3.41
-6.88
-9.74
-11.96
-13.74
-15.48
-17.77
-21.23
-26.32
-33.23
-41.84
-51.68
-62.07
-72.18
-81.08
-87.79
-91.41
-91.24
-86.94
-78.67
-67.08
-53.14
-38.08
-23.06
-9.09
3.16
13.36
21.45
27.61
32.07
35.05
36.73
37.33
37.19
36.80
36.74
37.51
39.44
42.54
46.52
50.94
55.28
59.12
62.20
64.46
66.00
67.02
67.67
68.02
67.96
67.39
66.23
64.58
62.73
61.01
59.70
58.95
58.74
58.87
59.04
58.79
57.47
54.27
48.37
39.19
26.72
11.63
-4.85
-21.28
-36.45
-49.61
-60.60
-69.61
-76.93
-82.81
-87.45
-91.00
-93.67
-95.60
-96.82
-97.19
-96.44
-94.36
-90.92
-86.36
-81.09
-75.50
-69.85
-64.15
-58.27
-52.02
-45.30
-38.18
-30.84
-23.58
-16.72
-10.51
-5.07
-0.32
3.97
8.06
12.19
16.38
20.50
24.26
27.36
29.63
31.04
31.76
31.97
31.82
31.27
30.22
28.47
25.91
22.58
18.61
14.18
9.43
4.42
-0.87
-6.47
-12.39
-18.60
-25.01
-31.49
-37.80
-43.61
-48.46
-51.88
-53.48
-53.01
-50.45
-45.99
-40.01
-33.00
-25.56
-18.26
-11.60
-5.85
-1.13
2.68
5.78
8.34
10.49
12.27
13.72
14.88
15.86
16.71
17.45
18.01
18.26
18.12
17.61
16.84
15.97
15.19
14.60
14.19
13.92
13.66
13.33
12.86
12.25
11.50
10.60
9.49
8.03
6.08
3.56
0.51
-2.90
-6.47
-10.08
-13.74
-17.59
-21.83
-26.67
-32.20
-38.42
-45.20
-52.23
-59.03
-64.92
-69.17
-71.15
-70.50
-67.22
-61.53
-53.87
-44.71
-34.58
-24.00
-13.47
-3.46
5.70
13.84
21.00
27.33
33.06
38.29
43.08
47.34
50.92
53.68
55.50
56.36
56.23
55.09
52.94
49.81
45.82
41.17
36.11
30.89
25.69
20.58
15.62
10.89
6.46
2.40
-1.31
-4.77
-8.13
-11.43
-14.66
-17.73
-20.62
-23.36
-26.07
-28.85
-31.73
-34.74
-37.99
-41.70
-46.18
-51.63
-57.92
-64.44
-70.18
-74.01
-75.00
-72.74
-67.44
-59.84
-50.90
-41.50
-32.22
-23.31
-14.81
-6.72
0.72
7.14
12.16
15.59
17.62
18.77
19.72
20.98
22.75
24.82
26.81
28.27
28.91
28.66
27.67
26.30
25.00
24.31
24.75
26.72
30.46
35.88
42.53
49.62
56.17
61.15
63.80
63.76
61.14
56.42
50.24
43.13
35.42
27.10
18.04
8.01
-3.04
-14.88
-26.86
-37.94
-46.76
-52.05
-52.94
-49.23
-41.52
-30.94
-18.84
-6.40
5.54
16.44
25.96
33.87
40.03
44.47
47.41
49.23
50.39
51.25
52.02
52.71
53.22
53.41
53.15
52.37
51.11
49.52
47.77
46.03
44.38
42.77
40.98
38.79
35.99
32.50
28.45
24.02
19.49
15.03
10.69
6.35
1.80
-3.16
-8.63
-14.57
-20.85
-27.31
-33.87
-40.57
-47.58
-55.10
-63.29
-72.14
-81.41
-90.54
-98.66
-104.70
-107.50
-106.10
-100.00
-89.30
-74.70
-57.26
-38.14
-18.44
0.83
18.73
34.32
46.82
55.84
61.64
65.12
67.68
70.62
74.78
80.21
86.28
91.99
96.37
98.76
98.91
97.01
93.49
88.88
83.71
78.34
72.97
67.65
62.31
56.85
51.20
45.31
39.25
33.18
27.35
22.13
17.89
14.86
13.02
12.03
11.30
10.24
8.40
5.65
2.08
-2.01
-6.39
-10.96
-15.70
-20.70
-25.99
-31.55
-37.21
-42.75
-47.81
-52.02
-54.98
-56.41
-56.17
-54.38
-51.34
-47.50
-43.28
-38.98
-34.74
-30.58
-26.43
-22.32
-18.34
-14.71
-11.58
-9.03
-6.91
-4.96
-2.99
-0.96
0.90
2.38
3.42
4.39
5.92
8.59
12.58
17.46
22.33
26.21
28.40
28.69
27.25
24.41
20.47
15.69
10.46
5.29
0.77
-2.77
-5.40
-7.65
-10.28
-13.92
-18.89
-25.05
-31.96
-38.96
-45.42
-50.78
-54.55
-56.43
-56.28
-54.10
-49.91
-43.60
-34.81
-22.95
-7.54
11.49
33.44
56.78
79.23
98.18
111.21
116.57
113.59
102.84
86.00
65.48
43.85
23.34
5.52
-8.80
-19.47
-26.74
-31.08
-33.08
-33.33
-32.43
-30.80
-28.69
-26.08
-22.84
-18.82
-13.97
-8.38
-2.30
3.98
10.07
15.55
19.93
22.75
23.68
22.68
19.98
16.04
11.40
6.50
1.60
-3.21
-7.98
-12.85
-18.02
-23.77
-30.40
-38.12
-46.85
-56.01
-64.55
-71.17
-74.70
-74.57
-70.96
-64.71
-56.95
-48.64
-40.30
-32.03
-23.76
-15.54
-7.73
-0.89
4.51
8.34
11.02
13.34
16.18
20.28
25.99
33.18
41.26
49.17
55.57
59.09
58.67
53.94
45.39
34.21
21.97
10.07
-0.56
-9.65
-17.40
-24.29
-30.80
-37.26
-43.87
-50.63
-57.43
-64.05
-70.21
-75.66
-80.28
-84.11
-87.43
-90.68
-94.29
-98.55
-103.39
-108.29
-112.32
-114.51
-114.08
-110.74
-104.68
-96.40
-86.37
-74.86
-61.98
-47.78
-32.54
-16.84
-1.45
12.81
25.31
35.72
43.97
50.17
54.55
57.38
58.96
59.62
59.66
59.32
58.77
58.02
57.02
55.63
53.70
51.13
47.92
44.14
39.91
35.35
30.49
25.33
19.84
14.02
7.90
1.57
-4.89
-11.43
-18.14
-25.17
-32.71
-40.92
-49.75
-58.87
-67.62
-75.10
-80.29
-82.25
-80.34
-74.28
-64.32
-51.11
-35.70
-19.34
-3.22
11.71
24.93
36.31
46.03
54.26
61.08
66.43
70.28
72.80
74.39
75.66
77.15
79.12
81.42
83.63
85.24
85.91
85.58
84.46
82.82
80.81
78.37
75.26
71.22
66.15
60.23
53.82
47.25
40.66
33.89
26.54
18.28
9.06
-0.77
-10.53
-19.51
-27.23
-33.58
-38.85
-43.53
-48.11
-52.96
-58.26
-64.04
-70.16
-76.30
-81.83
-85.82
-87.29
-85.44
-80.11
-71.91
-62.05
-51.94
-42.66
-34.64
-27.66
-21.21
-14.83
-8.41
-2.14
3.67
8.82
13.32
17.34
21.02
24.38
27.33
29.75
31.59
32.95
33.98
34.92
35.91
36.96
37.93
38.61
38.73
38.11
36.74
34.81
32.60
30.35
28.20
26.04
23.66
20.80
17.30
13.12
8.40
3.33
-1.86
-7.01
-12.09
-17.15
-22.35
-27.78
-33.47
-39.32
-45.17
-50.95
-56.75
-62.91
-69.85
-77.77
-86.50
-95.33
-103.18
-108.85
-111.24
-109.57
-103.43
-92.84
-78.30
-60.79
-41.72
-22.76
-5.41
9.28
20.90
29.67
36.13
40.90
44.38
46.77
48.22
48.92
49.06
48.84
48.36
47.58
46.45
44.96
43.23
41.42
39.68
38.03
36.38
34.56
32.45
30.07
27.58
25.16
23.00
21.19
19.66
18.27
16.82
15.11
12.97
10.29
7.03
3.17
-1.30
-6.45
-12.39
-19.28
-27.19
-35.95
-45.16
-54.05
-61.55
-66.46
-67.61
-64.20
-56.02
-43.65
-28.36
-11.89
3.99
17.91
29.14
37.58
43.54
47.45
49.69
50.56
50.39
49.57
48.55
47.64
46.99
46.40
45.54
44.04
41.65
38.41
34.47
30.05
25.35
20.44
15.28
9.84
4.14
-1.70
-7.41
-12.67
-17.16
-20.69
-23.26
-25.18
-27.06
-29.66
-33.67
-39.35
-46.41
-54.01
-61.12
-66.96
-71.43
-75.18
-79.42
-85.47
-94.27
-105.99
-119.80
-133.77
-145.08
-150.47
-147.12
-133.46
-109.95
-79.06
-44.71
-11.09
18.49
42.27
60.08
72.80
81.66
87.72
91.67
93.99
95.10
95.46
95.45
95.33
95.04
94.37
93.01
90.85
88.04
84.95
82.00
79.43
77.20
74.94
72.14
68.39
63.51
57.68
51.33
45.03
39.23
34.14
29.67
25.48
21.13
16.28
10.76
4.69
-1.63
-7.84
-13.72
-19.18
-24.30
-29.25
-34.26
-39.54
-45.30
-51.77
-59.10
-67.26
-75.87
-84.12
-90.95
-95.26
-96.31
-93.88
-88.25
-79.96
-69.56
-57.46
-44.01
-29.60
-14.78
-0.26
13.29
25.37
35.73
44.39
51.46
57.05
61.27
64.21
66.02
66.92
67.21
67.16
66.94
66.63
66.16
65.41
64.26
62.65
60.57
58.07
55.21
52.06
48.69
45.14
41.47
37.68
33.72
29.51
24.95
19.99
14.64
8.91
2.85
-3.50
-10.09
-16.81
-23.53
-30.13
-36.57
-42.96
-49.51
-56.57
-64.36
-72.92
-81.89
-90.57
-97.98
-103.18
-105.51
-104.73
-101.10
-95.05
-87.05
-77.43
-66.41
-54.26
-41.48
-28.75
-16.85
-6.37
2.41
9.52
15.21
19.78
23.49
26.52
29.01
31.14
33.02
34.69
36.12
37.20
37.85
38.08
37.95
37.52
36.84
35.90
34.67
33.21
31.63
30.10
28.79
27.85
27.42
27.68
28.79
30.78
33.52
36.60
39.49
41.69
42.98
43.43
43.29
42.78
41.91
40.43
38.03
34.44
29.65
23.96
17.97
12.42
8.07
5.50
5.00
6.49
9.65
14.04
19.32
25.28
31.79
38.67
45.58
52.08
57.86
62.82
67.08
70.72
73.63
75.43
75.58
73.69
69.63
63.62
56.04
47.32
37.77
27.69
17.52
7.79
-0.85
-7.94
-13.23
-16.77
-18.71
-19.14
-18.08
-15.48
-11.49
-6.57
-1.53
2.67
5.09
5.15
2.61
-2.41
-9.56
-18.30
-27.92
-37.52
-46.17
-53.15
-58.20
-61.55
-63.74
-65.35
-66.72
-67.89
-68.84
-69.70
-70.90
-73.09
-76.76
-82.03
-88.55
-95.66
-102.54
-108.44
-112.66
-114.55
-113.62
-109.67
-102.96
-94.13
-84.09
-73.58
-63.07
-52.68
-42.40
-32.28
-22.55
-13.51
-5.39
1.81
8.23
14.08
19.45
24.27
28.35
31.54
33.78
35.20
36.03
36.57
37.04
37.56
38.10
38.52
38.60
38.16
37.06
35.26
32.81
29.76
26.19
22.14
17.61
12.58
7.11
1.30
-4.68
-10.63
-16.45
-22.19
-28.08
-34.40
-41.30
-48.61
-55.82
-62.13
-66.68
-68.71
-67.79
-63.85
-57.14
-48.20
-37.71
-26.46
-15.16
-4.42
5.29
13.70
20.68
26.22
30.40
33.35
35.28
36.44
37.10
37.47
37.71
37.90
38.05
38.10
37.99
37.67
37.13
36.37
35.46
34.48
33.44
32.33
31.03
29.39
27.21
24.40
21.00
17.20
13.30
9.58
6.24
3.23
0.38
-2.57
-5.80
-9.36
-13.15
-17.03
-20.83
-24.49
-28.01
-31.48
-35.05
-38.95
-43.45
-48.70
-54.62
-60.78
-66.35
-70.30
-71.63
-69.73
-64.55
-56.64
-46.95
-36.55
-26.39
-17.07
-8.87
-1.77
4.42
9.92
14.96
19.69
24.21
28.52
32.53
36.07
38.94
40.99
42.17
42.61
42.56
42.34
42.18
42.20
42.34
42.42
42.20
41.48
40.14
38.24
35.92
33.51
31.30
29.51
28.12
26.87
25.38
23.28
20.46
17.07
13.44
9.92
6.68
3.72
0.85
-2.08
-5.14
-8.31
-11.52
-14.74
-17.96
-21.19
-24.45
-27.77
-31.23
-34.98
-39.19
-43.91
-49.01
-54.01
-58.18
-60.67
-60.73
-57.97
-52.42
-44.58
-35.23
-25.23
-15.37
-6.20
1.94
8.95
14.89
19.91
24.17
27.82
30.91
33.47
35.49
37.00
38.08
38.84
39.32
39.52
39.38
38.90
38.19
37.43
36.78
36.33
35.97
35.46
34.58
33.19
31.34
29.19
26.92
24.67
22.45
20.20
17.82
15.31
12.71
10.17
7.82
5.71
3.77
1.80
-0.46
-3.18
-6.37
-9.84
-13.31
-16.51
-19.36
-22.01
-24.78
-28.02
-31.97
-36.72
-42.14
-47.86
-53.31
-57.76
-60.43
-60.57
-57.76
-51.99
-43.77
-33.98
-23.71
-13.90
-5.20
2.18
8.33
13.52
17.94
21.68
24.67
26.85
28.26
29.07
29.54
29.88
30.20
30.48
30.64
30.67
30.60
30.50
30.39
30.21
29.84
29.13
28.00
26.46
24.59
22.53
20.43
18.38
16.44
14.56
12.61
10.52
8.22
5.77
3.28
0.90
-1.32
-3.43
-5.62
-8.14
-11.21
-14.87
-19.00
-23.31
-27.48
-31.35
-34.96
-38.60
-42.68
-47.46
-52.91
-58.64
-63.91
-67.80
-69.45
-68.24
-63.97
-56.90
-47.70
-37.30
-26.67
-16.56
-7.40
0.67
7.73
13.87
19.18
23.73
27.60
30.90
33.76
36.24
38.31
39.88
40.82
41.12
40.89
40.31
39.61
38.96
38.40
37.89
37.29
36.46
35.28
33.73
31.92
29.99
28.08
26.24
24.42
22.49
20.30
17.76
14.85
11.66
8.35
5.08
1.99
-0.87
-3.54
-6.20
-9.05
-12.24
-15.80
-19.58
-23.38
-26.96
-30.21
-33.13
-35.89
-38.69
-41.79
-45.42
-49.66
-54.39
-59.17
-63.25
-65.75
-65.84
-63.07
-57.52
-49.76
-40.69
-31.24
-22.14
-13.80
-6.35
0.23
5.97
10.88
14.93
18.16
20.65
22.49
23.74
24.36
24.29
23.46
21.86
19.60
16.84
13.77
10.51
7.10
3.46
-0.52
-5.01
-10.17
-16.05
-22.54
-29.33
-35.93
-41.81
-46.58
-50.19
-52.89
-55.13
-57.37
-59.89
-62.74
-65.74
-68.61
-71.02
-72.73
-73.65
-73.95
-74.07
-74.65
-76.38
-79.79
-85.01
-91.74
-99.35
-106.97
-113.74
-118.93
-122.05
-122.94
-121.78
-119.04
-115.37
-111.43
-107.70
-104.32
-100.95
-96.73
-90.47
-80.93
-67.33
-49.65
-28.68
-5.73
17.82
40.92
62.92
83.48
102.33
119.08
133.40
145.13
154.37
161.46
166.81
170.73
173.46
175.17
176.11
176.45
176.28
175.67
174.69
173.56
172.62
172.09
171.87
171.44
170.01
167.08
162.79
158.10
154.37
152.75
153.50
155.83
158.15
158.79
156.67
151.75
144.87
137.36
130.46
124.90
120.81
117.83
115.36
112.75
109.39
104.76
98.36
89.79
78.92
66.03
51.86
37.43
23.67
11.04
-0.59
-11.82
-23.25
-35.15
-47.17
-58.60
-68.69
-77.05
-83.78
-89.40
-94.51
-99.54
-104.59
-109.47
-113.85
-117.37
-119.73
-120.78
-120.55
-119.30
-117.46
-115.49
-113.74
-112.36
-111.23
-110.04
-108.37
-105.71
-101.63
-95.81
-88.10
-78.70
-68.14
-57.32
-47.33
-39.19
-33.43
-29.97
-28.11
-26.83
-25.22
-22.82
-19.76
-16.50
-13.51
-10.98
-8.80
-6.63
-4.28
-1.80
0.46
1.98
2.26
0.93
-2.16
-6.89
-12.84
-19.26
-25.22
-29.69
-31.82
-31.02
-26.99
-19.79
-9.70
2.69
16.52
30.79
44.56
57.18
68.47
78.72
88.51
98.52
109.49
122.17
137.23
154.88
174.33
193.28
208.08
214.67
210.02
193.54
167.47
136.19
104.43
75.50
50.30
27.63
5.46
-17.53
-41.02
-63.26
-82.02
-95.85
-104.80
-110.47
-115.29
-121.70
-131.64
-146.52
-167.41
-194.86
-228.35
-265.51
-301.86
-331.49
-348.82
-350.38
-335.98
-308.48
-272.26
-231.29
-187.78
-142.29
-94.95
-47.31
-3.08
32.80
56.41
67.26
68.95
67.87
70.22
79.18
93.58
108.88
119.83
123.07
118.47
108.49
96.33
84.11
72.07
59.22
44.62
28.45
12.32
-1.27
-10.01
-12.78
-10.08
-3.85
3.45
9.77
14.14
16.55
17.49
17.40
16.27
13.89
10.06
5.01
-0.67
-6.18
-10.81
-14.12
-15.94
-16.27
-15.04
-12.08
-7.14
0.02
9.45
21.03
34.33
48.70
63.36
77.49
90.47
101.95
111.91
120.56
128.33
135.71
143.32
151.87
162.19
175.11
191.27
210.77
232.65
254.65
273.33
284.64
285.09
272.72
247.71
212.06
168.69
120.50
69.93
19.26
-28.81
-70.94
-103.70
-124.74
-133.95
-133.72
-128.09
-121.28
-116.20
-113.87
-113.73
-114.52
-115.24
-115.47
-115.36
-115.23
-115.26
-115.37
-115.32
-114.88
-113.98
-112.57
-110.44
-106.97
-101.14
-91.95
-78.97
-62.96
-45.86
-30.22
-18.10
-10.15
-5.55
-2.52
0.42
3.66
6.34
7.13
5.19
0.77
-4.77
-9.80
-13.06
-14.08
-13.16
-10.90
-7.92
-4.72
-1.69
0.75
2.16
2.18
0.68
-2.11
-5.61
-9.04
-11.54
-12.38
-11.08
-7.54
-1.96
5.06
12.61
19.58
24.81
27.41
27.10
24.35
20.35
16.53
13.93
12.81
12.65
12.53
11.67
9.65
6.36
1.64
-4.78
-13.10
-23.01
-33.43
-42.62
-48.84
-51.11
-49.58
-45.47
-40.30
-35.24
-30.72
-26.56
-22.41
-18.13
-13.92
-10.16
-7.09
-4.75
-2.89
-1.24
0.40
2.05
3.62
4.92
5.79
6.08
5.76
4.87
3.52
1.83
-0.18
-2.62
-5.64
-9.35
-13.65
-18.26
-22.76
-26.78
-30.12
-32.82
-35.11
-37.27
-39.49
-41.90
-44.42
-46.87
-48.95
-50.41
-51.10
-51.12
-50.77
-50.57
-51.13
-53.05
-56.71
-61.90
-67.58
-71.84
-72.26
-66.74
-54.35
-35.95
-14.18
7.34
25.07
36.64
41.34
39.98
34.26
25.95
16.33
5.98
-5.13
-17.46
-31.82
-49.33
-71.24
-98.42
-130.65
-165.95
-200.34
-228.64
-245.93
-249.20
-238.48
-216.78
-188.86
-159.67
-132.95
-110.69
-93.51
-81.27
-73.55
-69.79
-69.21
-70.77
-73.47
-76.81
-81.10
-87.27
-96.19
-107.66
-119.88
-129.47
-132.48
-125.67
-107.61
-78.99
-42.02
0.65
46.73
94.36
141.66
186.08
224.31
252.99
269.84
274.55
268.86
255.79
238.49
219.43
200.30
182.38
167.03
155.78
150.04
150.49
156.81
167.55
180.32
191.98
199.09
198.49
188.13
167.86
139.76
107.70
76.19
49.12
28.78
15.69
9.20
8.19
11.63
18.56
27.90
38.16
47.56
54.48
57.94
57.90
55.13
50.79
45.85
40.82
35.69
30.21
24.25
18.02
11.99
6.59
1.97
-2.23
-6.60
-11.70
-17.72
-24.39
-31.16
-37.48
-43.08
-48.05
-52.70
-57.35
-62.13
-66.91
-71.26
-74.57
-76.14
-75.27
-71.54
-64.94
-55.95
-45.48
-34.59
-24.28
-15.20
-7.68
-1.79
2.58
5.67
7.84
9.56
11.28
13.32
15.73
18.26
20.55
22.32
23.46
24.03
24.09
23.65
22.61
20.88
18.51
15.72
12.89
10.47
8.90
8.59
9.93
13.20
18.48
25.41
33.14
40.33
45.43
47.15
44.69
38.06
28.00
15.78
2.92
-9.15
-19.32
-26.96
-32.00
-34.85
-36.28
-37.30
-38.92
-42.03
-47.27
-54.80
-64.20
-74.36
-83.57
-89.83
-91.46
-87.56
-78.36
-65.13
-49.70
-33.92
-19.11
-5.95
5.42
15.05
22.95
29.04
33.28
35.82
37.10
37.73
38.23
38.89
39.57
39.88
39.36
37.73
35.02
31.60
28.04
24.93
22.73
21.64
21.62
22.52
24.19
26.52
29.40
32.69
36.15
39.49
42.39
44.65
46.20
47.07
47.37
47.18
46.67
45.97
45.30
44.87
44.84
45.29
46.13
47.16
48.08
48.59
48.44
47.44
45.50
42.69
39.31
35.97
33.69
33.77
37.57
45.97
58.81
74.54
90.32
102.53
107.65
103.03
87.42
61.13
25.84
-15.55
-59.26
-100.89
-135.94
-160.48
-171.95
-169.74
-155.35
-131.88
-103.30
-73.53
-45.79
-22.31
-4.16
8.67
17.25
23.44
29.54
37.52
48.33
61.35
74.57
85.34
91.39
91.69
86.62
77.57
66.08
53.22
39.35
24.53
8.95
-6.62
-20.88
-32.35
-39.97
-43.43
-43.35
-41.09
-38.43
-37.14
-38.70
-43.96
-52.88
-64.22
-75.51
-83.48
-84.87
-77.70
-62.20
-41.00
-18.44
0.91
13.68
18.60
16.42
9.05
-1.58
-14.15
-28.10
-43.13
-58.53
-72.99
-84.91
-93.13
-97.62
-99.63
-101.27
-104.50
-110.40
-118.74
-128.33
-137.70
-145.74
-151.96
-156.38
-159.24
-160.73
-160.87
-159.36
-155.49
-148.18
-136.08
-118.16
-94.23
-65.21
-33.01
-0.18
30.57
56.70
76.06
87.16
89.69
84.91
75.66
65.68
58.35
55.50
56.79
60.11
62.62
61.83
56.32
45.69
30.19
10.39
-12.84
-38.08
-63.11
-84.83
-99.83
-105.18
-99.41
-83.21
-59.65
-33.64
-10.87
3.74
7.52
0.82
-13.13
-29.36
-43.01
-50.87
-52.30
-49.28
-45.77
-46.52
-55.60
-74.68
-101.72
-130.64
-152.35
-157.08
-137.48
-91.31
-22.71
58.44
139.09
206.42
250.68
266.98
255.16
218.28
160.79
87.39
3.15
-85.45
-169.87
-240.11
-287.10
-305.78
-297.35
-268.95
-230.90
-192.60
-159.19
-130.72
-103.64
-73.74
-38.76
0.70
41.99
82.27
120.09
156.11
192.45
231.38
273.72
317.70
358.93
391.36
408.84
406.91
384.17
342.78
288.06
227.12
167.17
113.91
70.61
37.94
14.68
-1.31
-12.20
-19.77
-25.72
-32.01
-40.98
-54.79
-74.29
-97.94
-121.55
-139.29
-145.86
-138.86
-120.09
-95.24
-71.92
-57.08
-54.72
-64.91
-84.02
-105.94
-123.76
-131.45
-125.31
-105.02
-73.79
-37.62
-3.64
22.00
35.88
37.92
30.98
19.44
7.65
-1.13
-5.20
-4.11
1.75
11.66
24.68
39.52
54.47
67.44
76.34
79.72
77.27
69.98
59.70
48.38
37.29
26.67
15.98
4.61
-7.44
-19.29
-29.49
-36.64
-40.17
-40.69
-39.81
-39.49
-41.26
-45.62
-51.91
-58.70
-64.49
-68.33
-70.27
-71.23
-72.73
-76.38
-83.38
-94.03
-107.37
-121.03
-131.58
-135.36
-129.58
-113.22
-87.45
-55.11
-19.81
15.21
47.69
76.41
100.90
120.97
136.62
148.01
155.59
160.13
162.52
163.53
163.60
162.83
161.07
158.18
154.19
149.41
144.39
139.69
135.64
132.12
128.58
124.23
118.40
110.87
101.99
92.54
83.32
74.82
66.96
59.24
50.96
41.67
31.33
20.42
9.60
-0.49
-9.62
-18.02
-26.39
-35.78
-47.22
-61.38
-78.01
-95.66
-111.66
-122.72
-125.85
-119.44
-103.84
-81.27
-55.07
-28.56
-4.15
17.08
35.05
50.20
62.89
73.15
80.84
85.93
88.71
89.84
90.12
90.18
90.27
90.22
89.67
88.30
86.09
83.38
80.66
78.37
76.57
74.93
72.82
69.56
64.70
58.20
50.48
42.22
34.12
26.62
19.78
13.33
6.92
0.37
-6.22
-12.46
-17.85
-22.11
-25.26
-27.71
-30.13
-33.33
-38.17
-45.47
-55.91
-69.72
-86.25
-103.77
-119.49
-130.23
-133.35
-127.62
-113.71
-93.90
-71.22
-48.54
-27.78
-9.78
5.47
18.39
29.31
38.40
45.71
51.34
55.53
58.63
60.98
62.74
63.86
64.13
63.44
61.91
59.99
58.31
57.45
57.66
58.71
59.98
60.71
60.24
58.26
54.81
50.19
44.83
39.12
33.36
27.67
22.02
16.26
10.19
3.64
-3.44
-10.92
-18.55
-25.99
-32.94
-39.32
-45.26
-51.09
-57.39
-64.82
-73.97
-85.09
-97.73
-110.58
-121.49
-127.96
-127.87
-120.20
-105.41
-85.29
-62.43
-39.36
-17.98
0.67
16.32
29.14
39.38
47.25
52.94
56.71
58.91
60.04
60.62
61.00
61.37
61.64
61.64
61.26
60.52
59.66
58.91
58.40
57.94
57.08
55.23
51.97
47.21
41.34
35.12
29.42
24.83
21.48
18.96
16.53
13.49
9.41
4.28
-1.64
-8.02
-14.67
-21.68
-29.31
-37.93
-47.88
-59.43
-72.63
-87.11
-101.89
-115.30
-125.13
-129.20
-126.00
-115.24
-98.00
-76.46
-53.24
-30.69
-10.35
7.18
22.06
34.82
45.94
55.62
63.75
70.02
74.19
76.25
76.51
75.57
74.06
72.50
71.14
70.03
69.05
68.12
67.26
66.55
66.08
65.84
65.67
65.23
64.22
62.40
59.82
56.81
53.95
51.87
50.97
51.28
52.33
53.44
53.98
53.67
52.68
51.41
50.21
49.37
49.31
51.06
56.30
66.65
82.52
102.08
121.36
135.55
141.04
136.85
124.73
107.65
88.00
66.58
43.11
17.74
-7.78
-30.08
-45.74
-53.00
-52.73
-47.72
-41.01
-34.36
-27.86
-20.84
-13.24
-6.34
-2.50
-3.92
-11.36
-23.62
-37.94
-51.25
-61.23
-66.99
-69.02
-68.53
-66.84
-64.90
-63.14
-61.62
-60.35
-59.48
-59.44
-60.87
-64.35
-70.21
-78.16
-87.29
-96.18
-103.20
-106.99
-106.98
-103.58
-98.15
-92.49
-88.17
-85.98
-85.65
-86.20
-86.55
-86.13
-85.28
-85.03
-86.63
-90.84
-97.49
-105.36
-112.53
-116.87
-116.60
-110.76
-99.34
-83.24
-64.00
-43.45
-23.42
-5.42
9.46
20.65
28.17
32.55
34.66
35.53
36.10
37.02
38.66
41.06
44.03
47.15
49.91
51.86
52.83
53.12
53.48
54.77
57.56
61.72
66.35
70.16
72.05
71.56
69.06
65.38
61.44
57.78
54.56
51.71
49.20
47.03
45.22
43.55
41.61
38.85
34.83
29.28
22.12
13.30
2.77
-9.50
-23.41
-38.65
-54.58
-70.21
-84.17
-94.83
-100.59
-100.27
-93.57
-81.34
-65.39
-48.03
-31.39
-16.85
-4.86
4.90
13.08
20.27
26.75
32.53
37.49
41.51
44.64
46.97
48.61
49.55
49.68
48.86
47.08
44.53
41.63
38.90
36.69
35.07
33.78
32.38
30.55
28.21
25.60
23.01
20.59
18.12
15.09
10.95
5.45
-1.15
-8.16
-14.81
-20.63
-25.66
-30.38
-35.41
-41.08
-47.23
-53.27
-58.51
-62.51
-65.37
-67.65
-70.17
-73.76
-79.11
-86.74
-96.67
-108.17
-119.45
-127.82
-130.40
-125.13
-111.76
-92.09
-69.41
-47.29
-28.42
-13.96
-3.77
3.01
7.25
9.57
10.34
9.96
8.95
7.94
7.41
7.55
8.30
9.32
10.25
10.79
10.89
10.76
10.79
11.40
12.75
14.59
16.32
17.14
16.41
13.91
9.93
5.21
0.62
-3.14
-5.66
-6.91
-7.08
-6.47
-5.41
-4.19
-3.01
-1.80
-0.10
2.94
8.30
16.61
27.74
40.68
53.63
64.49
71.19
72.05
66.11
53.43
35.58
15.73
-1.71
-12.22
-12.62
-2.23
16.86
40.58
64.36
84.62
99.50
108.81
113.22
113.50
110.17
103.57
94.21
83.00
71.04
59.04
46.95
33.86
18.53
0.10
-21.31
-44.68
-68.59
-91.96
-114.51
-136.52
-158.21
-179.14
-197.94
-212.70
-221.68
-224.05
-220.29
-212.00
-201.29
-189.96
-178.77
-167.30
-154.39
-139.01
-121.10
-101.94
-83.77
-68.86
-58.66
-53.33
-51.89
-52.83
-54.54
-55.72
-55.40
-53.10
-48.91
-43.58
-38.31
-34.28
-32.13
-31.60
-31.74
-31.35
-29.52
-25.93
-20.66
-13.84
-5.43
4.67
16.42
29.31
42.30
54.20
64.05
71.50
76.97
81.37
85.65
90.39
95.49
100.32
103.99
105.79
105.53
103.51
100.35
96.67
92.78
88.65
84.12
79.11
73.75
68.38
63.34
58.75
54.45
50.08
45.25
39.79
33.82
27.66
21.63
15.91
10.49
5.23
0.05
-5.01
-9.79
-14.16
-18.16
-22.03
-26.11
-30.66
-35.63
-40.76
-45.54
-49.53
-52.40
-54.03
-54.48
-53.97
-52.79
-51.32
-49.91
-48.80
-48.02
-47.48
-47.04
-46.68
-46.54
-46.93
-48.13
-50.30
-53.36
-57.01
-60.69
-63.70
-65.23
-64.62
-61.52
-56.10
-48.97
-40.93
-32.54
-23.93
-14.78
-4.70
6.36
17.84
28.60
37.31
42.86
44.65
42.57
36.89
28.03
16.57
3.36
-10.52
-23.97
-36.15
-46.86
-56.58
-66.20
-76.49
-87.61
-99.00
-109.60
-118.42
-124.88
-128.95
-130.80
-130.31
-126.96
-119.98
-108.92
-94.07
-76.65
-58.35
-40.75
-24.76
-10.53
2.26
13.88
24.24
32.93
39.60
44.26
47.42
49.84
52.14
54.54
56.77
58.40
59.16
59.21
59.27
60.49
64.22
71.68
83.59
99.93
119.84
141.70
163.48
183.21
199.33
211.00
218.04
220.73
219.52
214.87
207.30
197.41
185.91
173.47
160.42
146.60
131.35
113.91
93.94
72.08
49.98
29.94
14.13
3.91
-0.69
-0.83
1.52
4.28
5.81
5.18
2.27
-2.41
-7.99
-13.39
-17.67
-20.10
-20.27
-18.11
-13.89
-8.20
-1.85
4.22
9.10
12.15
13.14
12.30
10.26
7.78
5.56
4.08
3.52
3.90
5.15
7.14
9.73
12.65
15.53
17.87
19.16
19.03
17.35
14.29
10.23
5.51
0.35
-5.25
-11.41
-18.15
-25.30
-32.50
-39.32
-45.52
-51.21
-56.76
-62.62
-69.02
-75.74
-82.12
-87.18
-89.94
-89.69
-86.22
-79.78
-71.11
-61.12
-50.80
-40.89
-31.92
-24.09
-17.39
-11.72
-6.89
-2.80
0.70
3.72
6.36
8.72
10.93
13.09
15.37
17.94
20.95
24.53
28.74
33.53
38.78
44.34
50.06
55.79
61.31
66.28
70.24
72.62
72.93
71.04
67.23
62.24
56.99
52.20
48.18
44.64
40.97
36.53
30.90
24.01
16.04
7.26
-2.07
-11.73
-21.53
-31.25
-40.67
-49.66
-58.22
-66.46
-74.52
-82.40
-89.86
-96.37
-101.15
-103.44
-102.66
-98.66
-91.78
-82.78
-72.57
-61.97
-51.45
-41.03
-30.43
-19.29
-7.44
5.02
17.71
30.11
41.68
51.97
60.63
67.50
72.69
76.64
80.04
83.67
88.09
93.41
99.17
104.57
108.82
111.32
111.85
110.54
107.68
103.61
98.56
92.46
84.92
75.24
62.64
46.59
27.20
5.21
-18.09
-41.37
-63.62
-84.39
-103.63
-121.48
-137.97
-152.85
-165.70
-176.03
-183.38
-187.50
-188.25
-185.66
-179.78
-170.64
-158.31
-142.95
-125.04
-105.44
-85.28
-65.73
-47.72
-31.71
-17.72
-5.56
4.97
13.96
21.40
27.38
32.23
36.48
40.68
45.23
50.20
55.43
60.63
65.53
69.97
73.83
76.95
79.16
80.34
80.49
79.81
78.66
77.37
76.10
74.79
73.25
71.34
69.14
66.94
65.10
63.88
63.24
62.94
62.60
62.04
61.36
60.90
61.11
62.28
64.34
66.83
68.88
69.49
67.81
63.51
56.97
49.23
41.60
35.05
29.77
25.12
20.06
13.92
6.91
0.25
-4.36
-5.61
-3.37
1.12
5.71
8.30
7.79
4.57
0.26
-3.03
-3.86
-2.12
0.72
2.06
-0.85
-10.06
-26.19
-48.02
-72.52
-95.25
-111.46
-117.64
-113.14
-101.03
-87.48
-79.42
-81.56
-93.75
-110.48
-122.72
-121.71
-102.84
-67.80
-24.17
17.50
47.64
60.92
57.86
44.33
29.33
21.90
28.16
49.31
81.46
117.03
147.40
165.60
168.24
155.88
132.14
102.03
70.40
41.08
16.64
-1.44
-12.61
-17.28
-16.68
-12.70
-7.37
-2.54
0.66
1.94
1.76
1.11
0.77
0.72
-0.05
-3.04
-9.14
-17.58
-25.63
-29.41
-25.53
-12.65
7.82
32.37
57.03
79.01
97.52
113.44
128.16
142.45
155.96
167.63
176.57
182.70
186.71
189.33
190.64
189.89
186.13
178.99
169.21
158.36
147.84
137.87
127.18
113.62
95.30
71.54
43.06
11.29
-22.66
-58.54
-96.63
-136.61
-176.57
-212.80
-240.84
-257.24
-261.24
-255.27
-244.06
-232.63
-224.34
-220.05
-218.63
-218.32
-217.87
-216.83
-214.76
-210.30
-200.94
-183.69
-156.61
-120.06
-77.14
-32.93
7.16
39.13
61.58
75.60
83.72
88.33
90.43
89.48
84.24
74.09
60.00
44.34
29.78
17.99
8.89
0.98
-7.57
-17.89
-30.01
-43.41
-57.86
-73.97
-92.79
-114.92
-139.33
-163.11
-181.99
-191.81
-190.04
-176.80
-154.86
-128.64
-102.84
-80.99
-64.73
-53.97
-47.49
-43.79
-41.66
-40.34
-39.40
-38.42
-36.96
-34.59
-31.09
-26.62
-21.70
-17.07
-13.43
-11.23
-10.56
-11.14
-12.44
-13.89
-15.01
-15.61
-15.74
-15.74
-16.18
-17.80
-21.40
-27.72
-37.11
-49.28
-63.24
-77.43
-90.34
-100.94
-109.14
-115.59
-121.23
-126.69
-131.87
-135.94
-137.50
-134.98
-127.00
-112.76
-92.38
-67.18
-39.62
-12.87
9.99
26.98
37.74
43.58
46.78
49.63
53.70
59.43
66.25
72.97
78.24
80.89
80.24
76.34
70.05
62.90
56.68
52.85
52.02
53.75
56.80
59.89
62.30
64.23
66.59
70.32
75.59
81.37
85.57
85.80
80.37
69.17
53.80
37.12
22.18
11.03
4.03
-0.06
-3.47
-8.28
-15.69
-25.60
-36.40
-44.92
-46.45
-35.69
-8.69
34.77
89.41
144.77
188.15
209.07
203.23
173.99
130.62
84.26
43.88
14.07
-4.65
-13.95
-15.59
-10.58
0.37
15.83
32.95
47.67
55.88
54.89
44.46
27.19
7.45
-10.16
-22.59
-29.31
-32.31
-34.94
-40.44
-50.72
-65.92
-84.63
-104.31
-121.76
-133.54
-136.48
-128.53
-109.56
-81.72
-49.00
-16.08
13.03
35.84
51.51
60.32
63.06
60.76
54.73
46.70
38.64
32.26
28.37
26.59
25.62
23.82
19.85
13.24
4.54
-4.89
-13.27
-19.01
-21.14
-19.63
-15.33
-9.52
-3.42
2.30
7.65
13.10
19.16
26.04
33.44
40.74
47.25
52.62
56.92
60.64
64.48
69.13
75.06
82.38
90.86
99.94
108.97
117.38
125.04
132.43
140.46
150.17
162.16
176.15
190.94
204.76
215.78
222.59
224.55
221.79
215.27
206.80
198.99
194.82
196.52
204.36
215.84
226.03
229.22
221.12
200.67
170.37
135.12
100.07
68.68
41.89
18.58
-3.07
-24.37
-45.60
-66.14
-84.83
-100.37
-111.39
-116.65
-115.71
-109.59
-101.22
-95.18
-96.59
-109.47
-135.16
-171.79
-214.68
-257.82
-295.49
-323.63
-340.25
-345.26
-339.68
-325.07
-303.11
-275.51
-244.08
-210.83
-177.97
-147.64
-121.63
-101.06
-86.21
-76.49
-70.67
-67.28
-64.93
-62.68
-60.17
-57.41
-54.62
-52.00
-49.61
-47.48
-45.67
-44.34
-43.54
-42.98
-42.08
-40.10
-36.38
-30.71
-23.26
-14.50
-5.05
4.47
13.38
21.04
26.91
30.82
33.11
34.59
36.15
38.26
40.81
43.18
44.78
45.42
45.47
45.48
45.70
45.83
45.28
43.55
40.67
37.20
33.76
30.61
27.49
23.82
19.18
13.64
7.70
1.96
-3.20
-7.78
-11.96
-15.79
-19.08
-21.40
-22.43
-22.10
-20.61
-18.34
-15.59
-12.62
-9.58
-6.70
-4.34
-2.96
-2.93
-4.42
-7.32
-11.13
-15.26
-19.14
-22.35
-24.72
-26.23
-26.95
-26.97
-26.48
-25.79
-25.38
-25.78
-27.34
-30.04
-33.29
-36.22
-37.95
-38.10
-36.84
-34.89
-32.99
-31.63
-30.76
-30.06
-29.15
-27.95
-26.63
-25.46
-24.55
-23.73
-22.74
-21.45
-20.01
-18.80
-18.14
-18.05
-18.21
-18.15
-17.40
-15.86
-13.71
-11.32
-9.10
-7.39
-6.41
-6.27
-6.94
-8.22
-9.79
-11.32
-12.66
-13.98
-15.69
-18.24
-21.79
-26.04
-30.36
-34.06
-36.74
-38.39
-39.33
-39.79
-39.60
-38.24
-35.03
-29.69
-22.57
-14.68
-7.30
-1.47
2.28
3.93
3.69
1.70
-2.10
-7.75
-14.99
-23.10
-30.95
-37.35
-41.53
-43.30
-43.01
-41.33
-38.77
-35.60
-31.83
-27.48
-22.80
-18.26
-14.54
-12.27
-11.86
-13.48
-17.04
-22.30
-28.93
-36.54
-44.68
-52.88
-60.75
-68.13
-75.29
-83.06
-92.77
-106.01
-124.13
-147.50
-174.83
-202.90
-226.96
-241.92
-243.93
-231.69
-206.76
-172.96
-134.83
-96.09
-58.75
-23.05
11.92
47.19
83.21
119.48
154.54
186.38
213.05
233.19
246.49
253.69
256.20
255.40
252.13
246.57
238.55
228.11
215.89
203.03
190.80
180.01
170.76
162.56
154.72
146.74
138.55
130.51
123.15
116.93
111.97
108.11
104.94
102.08
99.35
96.77
94.54
92.88
91.89
91.52
91.53
91.61
91.41
90.65
89.26
87.47
85.85
85.26
86.53
90.04
95.23
100.50
103.46
101.78
94.03
80.18
61.47
39.86
17.28
-4.88
-25.93
-45.75
-64.64
-83.26
-102.44
-122.99
-145.28
-168.78
-191.91
-212.44
-228.24
-238.04
-241.76
-240.20
-234.43
-225.25
-213.04
-198.24
-181.76
-165.20
-150.66
-139.96
-133.99
-132.46
-134.03
-136.93
-139.59
-141.03
-140.95
-139.68
-137.84
-136.01
-134.31
-131.95
-127.19
-117.66
-101.08
-76.08
-42.65
-2.35
42.07
87.01
128.55
163.02
187.61
200.98
203.56
197.50
185.88
171.86
157.80
145.00
133.86
124.26
115.92
108.50
101.54
94.52
87.00
78.83
70.30
61.99
54.52
48.23
43.01
38.39
33.74
28.55
22.66
16.27
9.80
3.74
-1.50
-5.74
-8.91
-11.12
-12.48
-13.11
-13.06
-12.31
-10.78
-8.44
-5.40
-1.87
1.83
5.33
8.42
11.01
13.17
15.04
16.77
18.38
19.80
20.89
21.54
21.72
21.56
21.28
21.05
20.98
20.99
20.93
20.66
20.20
19.72
19.46
19.61
20.16
20.91
21.56
21.83
21.62
21.02
20.29
19.66
19.34
19.37
19.66
20.04
20.30
20.33
20.06
19.54
18.89
18.41
18.66
20.46
24.75
32.03
41.78
52.00
59.36
59.95
50.41
28.93
-4.45
-48.14
-99.64
-156.03
-214.20
-270.72
-321.96
-364.37
-394.95
-411.72
-413.82
-401.42
-375.46
-337.64
-290.52
-237.70
-183.65
-133.09
-90.03
-56.98
-34.47
-21.19
-14.65
-11.84
-9.77
-5.83
2.14
15.60
35.02
59.79
88.37
118.96
150.23
181.72
213.46
244.93
273.96
296.49
307.67
303.84
284.50
252.86
214.50
174.89
137.19
101.66
67.01
32.60
-0.15
-27.93
-47.44
-57.54
-60.26
-59.95
-61.03
-65.91
-74.05
-82.94
-89.95
-94.04
-96.31
-99.03
-104.06
-111.53
-119.42
-124.41
-123.33
-114.62
-98.90
-78.66
-57.01
-36.55
-18.52
-2.93
10.85
23.34
34.68
44.74
53.56
61.73
70.41
80.99
94.61
111.66
131.53
152.69
173.01
190.36
203.24
211.28
215.28
216.71
216.85
215.91
212.74
205.23
191.32
170.13
142.54
110.98
78.49
47.71
20.15
-3.80
-24.29
-41.36
-54.68
-63.78
-68.61
-69.92
-69.24
-68.27
-68.11
-68.86
-69.69
-69.49
-67.59
-64.10
-59.80
-55.49
-51.48
-47.41
-42.54
-36.30
-28.72
-20.40
-12.24
-4.97
0.98
5.33
7.68
7.51
4.61
-0.34
-5.54
-8.52
-7.16
-0.71
9.79
22.17
34.30
45.18
55.20
65.45
76.62
88.14
98.26
104.85
106.41
102.67
94.61
83.87
72.10
60.56
50.03
40.89
33.24
27.12
22.62
19.98
19.57
21.73
26.52
33.64
42.42
52.25
62.72
73.85
85.95
99.55
115.38
134.54
158.34
187.84
222.69
260.23
295.16
320.66
330.44
321.03
293.05
250.76
200.31
147.57
96.53
49.13
5.83
-33.39
-68.36
-98.82
-124.51
-145.16
-160.13
-168.19
-168.03
-159.65
-145.71
-131.94
-125.87
-134.18
-159.92
-200.99
-250.73
-300.37
-342.04
-370.57
-383.72
-381.15
-363.14
-330.25
-284.03
-227.89
-167.36
-108.89
-57.97
-17.24
14.20
40.18
65.69
95.23
131.83
176.71
229.18
286.32
342.64
390.46
421.59
429.89
413.73
376.84
326.96
272.72
220.43
172.45
127.71
83.90
39.62
-4.64
-47.20
-86.68
-123.33
-159.21
-197.27
-239.97
-288.57
-343.00
-402.41
-465.31
-529.13
-589.58
-640.47
-674.76
-686.66
-673.81
-638.25
-585.70
-523.20
-456.68
-389.61
-323.42
-259.26
-199.61
-148.45
-109.90
-86.03
-75.32
-72.83
-72.00
-67.15
-55.36
-36.96
-14.22
10.55
36.54
64.82
97.40
135.92
180.62
230.24
282.70
335.85
387.98
437.83
484.18
525.36
558.83
581.23
588.79
578.32
548.20
499.31
435.17
361.34
284.11
209.15
140.48
80.08
28.25
-15.86
-53.57
-86.10
-114.06
-137.11
-153.91
-162.73
-162.49
-153.77
-139.08
-122.14
-106.42
-93.79
-84.23
-76.51
-69.63
-63.77
-60.31
-60.80
-65.96
-75.10
-86.54
-98.52
-110.04
-120.89
-131.08
-140.08
-146.55
-148.67
-145.06
-135.40
-120.70
-102.83
-83.84
-65.31
-48.01
-32.08
-17.42
-4.04
7.79
17.58
24.93
29.73
32.19
32.86
32.42
31.57
30.91
30.94
31.96
34.12
37.35
41.48
46.33
51.69
57.31
62.86
67.88
71.97
74.93
76.92
78.39
79.84
81.47
83.00
83.76
82.96
80.19
75.58
69.82
63.80
58.26
53.43
48.98
44.17
38.25
30.80
21.95
12.38
3.05
-5.06
-11.32
-15.53
-17.82
-18.49
-17.88
-16.25
-13.85
-10.96
-7.77
-4.30
-0.29
4.75
11.16
18.92
27.43
35.64
42.41
46.97
49.16
49.48
48.78
47.93
47.50
47.67
48.31
49.12
49.81
50.16
50.08
49.59
48.77
47.72
46.56
45.36
44.21
43.18
42.25
41.32
40.17
38.50
36.04
32.65
28.38
23.50
18.33
13.13
7.92
2.51
-3.48
-10.33
-18.10
-26.48
-34.86
-42.53
-48.93
-53.79
-57.21
-59.42
-60.64
-60.85
-59.85
-57.40
-53.44
-48.24
-42.37
-36.51
-31.22
-26.85
-23.46
-20.95
-19.09
-17.57
-15.95
-13.72
-10.41
-5.80
-0.06
6.23
12.27
17.32
21.01
23.46
25.17
26.68
28.38
30.31
32.20
33.71
34.58
34.80
34.53
33.98
33.24
32.21
30.67
28.41
25.35
21.55
17.19
12.45
7.52
2.47
-2.65
-7.89
-13.26
-18.75
-24.24
-29.42
-33.74
-36.34
-36.23
-32.41
-24.24
-11.66
4.60
23.02
41.67
58.65
72.57
82.95
90.15
95.00
98.30
100.38
100.95
99.33
94.91
87.53
77.65
66.23
54.38
43.00
32.69
23.68
16.06
9.86
5.15
1.91
-0.02
-1.04
-1.76
-2.78
-4.49
-6.99
-9.98
-13.00
-15.59
-17.55
-19.04
-20.46
-22.32
-24.99
-28.55
-32.81
-37.54
-42.54
-47.87
-53.70
-60.19
-67.29
-74.71
-81.85
-88.08
-92.86
-95.93
-97.26
-97.07
-95.60
-93.12
-89.78
-85.74
-81.22
-76.58
-72.32
-68.95
-66.85
-66.09
-66.38
-67.19
-67.92
-68.06
-67.35
-65.72
-63.19
-59.88
-56.08
-52.43
-49.85
-49.20
-50.71
-53.64
-56.25
-56.32
-51.96
-41.97
-25.94
-4.03
23.26
54.90
89.06
122.87
152.79
175.47
188.77
192.27
187.19
175.61
159.70
141.17
121.31
101.09
81.28
62.24
43.81
25.29
5.97
-14.34
-34.73
-53.24
-67.39
-75.08
-75.39
-68.86
-57.13
-42.19
-25.79
-9.01
7.44
22.91
36.53
47.44
55.31
60.80
65.58
71.64
80.34
91.77
104.77
117.56
128.77
138.01
145.90
153.42
161.14
168.92
176.04
181.76
185.69
187.84
188.20
186.30
181.09
171.23
155.67
134.09
107.06
75.98
42.76
9.45
-22.15
-50.97
-76.93
-101.06
-124.98
-150.03
-176.41
-202.75
-226.75
-246.14
-259.75
-267.61
-270.37
-268.34
-261.09
-247.89
-228.66
-204.48
-177.37
-149.39
-121.67
-94.34
-67.22
-40.96
-17.48
0.52
10.89
13.25
9.36
2.35
-4.64
-9.57
-11.93
-12.43
-12.17
-12.03
-12.36
-13.00
-13.54
-13.62
-13.13
-12.18
-11.08
-10.07
-9.27
-8.61
-7.96
-7.27
-6.78
-6.97
-8.41
-11.60
-16.74
-23.71
-32.18
-41.71
-51.72
-61.46
-69.85
-75.59
-77.41
-74.47
-66.74
-55.04
-40.82
-25.70
-11.01
2.53
14.73
25.73
35.73
44.81
52.92
59.87
65.52
69.83
72.91
74.92
76.08
76.51
76.23
75.18
73.28
70.55
67.06
62.94
58.28
53.11
47.47
41.48
35.37
29.48
24.09
19.29
15.02
11.09
7.37
3.88
0.76
-1.96
-4.50
-7.49
-11.84
-18.49
-27.96
-40.04
-53.54
-66.49
-76.54
-81.72
-80.96
-74.45
-63.47
-49.81
-35.16
-20.64
-6.70
6.56
19.05
30.43
40.14
47.74
53.16
56.80
59.38
61.56
63.76
65.97
67.91
69.19
69.62
69.21
68.16
66.69
64.94
62.82
60.13
56.65
52.25
47.04
41.30
35.48
30.01
25.17
20.98
17.16
13.25
8.74
3.28
-3.19
-10.43
-17.94
-25.18
-31.72
-37.42
-42.52
-47.62
-53.48
-60.82
-69.97
-80.64
-91.78
-101.76
-108.80
-111.41
-108.91
-101.57
-90.46
-76.98
-62.42
-47.64
-32.96
-18.48
-4.37
8.99
21.05
31.38
39.96
47.22
53.86
60.45
67.03
73.04
77.58
79.86
79.58
76.96
72.56
66.88
60.15
52.44
43.88
34.90
26.08
18.03
11.05
5.22
0.63
-2.37
-3.21
-1.39
3.00
9.12
15.77
21.93
27.32
32.37
37.71
43.50
49.03
53.04
54.17
51.61
45.30
35.76
23.78
10.30
-3.65
-16.84
-27.97
-35.94
-40.25
-41.15
-39.49
-36.40
-32.84
-29.40
-26.32
-23.57
-21.10
-18.90
-16.95
-15.23
-13.65
-12.15
-10.66
-9.22
-7.91
-6.76
-5.68
-4.43
-2.60
0.18
4.01
8.70
13.65
18.04
21.10
22.27
21.44
18.92
15.33
11.36
7.63
4.50
2.06
0.27
-1.01
-1.87
-2.43
-2.82
-3.21
-3.83
-4.85
-6.33
-8.25
-10.54
-13.16
-16.18
-19.64
-23.60
-27.97
-32.53
-36.97
-40.91
-43.98
-45.81
-46.10
-44.67
-41.50
-36.72
-30.64
-23.67
-16.23
-8.75
-1.56
5.05
10.87
15.82
19.90
23.16
25.73
27.67
29.00
29.66
29.58
28.69
27.07
24.92
22.55
20.26
18.24
16.53
15.03
13.61
12.19
10.72
9.27
7.89
6.63
5.55
4.67
4.04
3.65
3.43
3.13
2.36
0.74
-2.04
-6.02
-10.95
-16.36
-21.72
-26.60
-30.77
-34.29
-37.43
-40.64
-44.40
-49.09
-54.86
-61.47
-68.22
-74.06
-77.84
-78.66
-76.14
-70.48
-62.42
-52.89
-42.77
-32.71
-23.11
-14.18
-6.00
1.42
8.14
14.22
19.71
24.60
28.84
32.37
35.15
37.21
38.64
39.52
39.91
39.88
39.54
39.02
38.44
37.85
37.17
36.19
34.71
32.63
30.01
27.04
24.01
21.17
18.61
16.23
13.79
10.96
7.52
3.42
-1.15
-5.88
-10.46
-14.72
-18.73
-22.77
-27.21
-32.39
-38.51
-45.61
-53.45
-61.50
-68.81
-74.19
-76.40
-74.59
-68.57
-58.98
-47.07
-34.26
-21.79
-10.37
-0.27
8.47
15.87
21.90
26.55
29.96
32.45
34.46
36.34
38.21
39.95
41.28
41.93
41.81
41.01
39.78
38.37
36.95
35.56
34.12
32.53
30.72
28.66
26.37
23.82
20.96
17.80
14.41
10.92
7.52
4.31
1.22
-1.94
-5.45
-9.50
-14.12
-19.16
-24.43
-29.79
-35.27
-41.00
-47.17
-53.82
-60.82
-67.74
-73.93
-78.58
-80.81
-79.91
-75.49
-67.68
-57.08
-44.68
-31.61
-18.84
-7.07
3.35
12.27
19.67
25.59
30.18
33.73
36.59
39.10
41.40
43.43
44.92
45.62
45.44
44.50
43.09
41.48
39.84
38.17
36.38
34.37
32.03
29.35
26.30
22.86
19.09
15.11
11.10
7.32
3.90
0.89
-1.87
-4.63
-7.63
-11.03
-14.78
-18.65
-22.36
-25.67
-28.57
-31.30
-34.33
-38.18
-43.23
-49.49
-56.52
-63.45
-69.16
-72.54
-72.75
-69.40
-62.56
-52.83
-41.13
-28.51
-15.98
-4.27
6.18
15.25
23.00
29.58
35.11
39.71
43.47
46.49
48.82
50.50
51.52
51.89
51.69
51.07
50.22
49.29
48.34
47.35
46.22
44.86
43.22
41.23
38.87
36.08
32.92
29.52
26.08
22.78
19.63
16.49
13.05
9.06
4.43
-0.69
-6.00
-11.22
-16.18
-20.93
-25.66
-30.63
-36.05
-42.02
-48.39
-54.78
-60.49
-64.59
-66.18
-64.60
-59.69
-51.86
-42.01
-31.24
-20.59
-10.80
-2.28
4.85
10.64
15.24
18.82
21.60
23.85
25.85
27.79
29.74
31.59
33.15
34.21
34.66
34.52
33.94
33.13
32.31
31.65
31.21
30.98
30.79
30.37
29.39
27.62
24.99
21.69
18.07
14.44
11.01
7.74
4.45
0.92
-2.99
-7.26
-11.81
-16.52
-21.34
-26.28
-31.38
-36.72
-42.36
-48.36
-54.72
-61.29
-67.68
-73.21
-77.02
-78.26
-76.35
-71.15
-63.07
-52.91
-41.67
-30.28
-19.46
-9.65
-1.03
6.43
12.80
18.21
22.75
26.50
29.54
32.00
34.00
35.65
37.02
38.06
38.70
38.88
38.63
38.08
37.43
36.80
36.17
35.39
34.24
32.54
30.31
27.70
24.94
22.20
19.49
16.76
13.89
10.81
7.52
4.05
0.39
-3.49
-7.64
-12.03
-16.57
-21.11
-25.53
-29.87
-34.31
-39.14
-44.62
-50.79
-57.48
-64.15
-70.06
-74.37
-76.26
-75.16
-70.85
-63.53
-53.81
-42.58
-30.83
-19.48
-9.18
-0.25
7.28
13.57
18.83
23.24
26.92
29.94
32.40
34.49
36.37
38.13
39.67
40.83
41.38
41.27
40.62
39.70
38.74
37.88
37.03
36.01
34.68
32.93
30.78
28.31
25.56
22.57
19.36
15.96
12.41
8.72
4.90
0.93
-3.17
-7.28
-11.31
-15.15
-18.79
-22.32
-25.91
-29.80
-34.18
-39.22
-44.88
-50.92
-56.76
-61.57
-64.35
-64.29
-61.05
-54.82
-46.36
-36.68
-26.70
-17.05
-8.03
0.22
7.61
13.96
19.08
22.92
25.66
27.62
29.19
30.63
31.95
33.07
33.80
34.01
33.70
32.98
32.00
30.92
29.89
28.91
27.93
26.77
25.28
23.35
20.99
18.27
15.32
12.31
9.36
6.60
4.14
1.98
0.03
-2.00
-4.40
-7.39
-10.99
-15.04
-19.33
-23.70
-28.21
-33.06
-38.53
-44.82
-51.97
-59.75
-67.74
-75.26
-81.43
-85.27
-85.90
-82.77
-75.87
-65.85
-53.81
-41.09
-28.86
-17.91
-8.53
-0.65
6.02
11.75
16.70
20.95
24.50
27.39
29.76
31.75
33.55
35.32
37.12
39.01
40.96
42.87
44.56
45.79
46.33
46.09
45.15
43.73
42.07
40.34
38.53
36.57
34.31
31.69
28.72
25.42
21.77
17.73
13.25
8.41
3.38
-1.59
-6.33
-10.83
-15.24
-19.76
-24.53
-29.50
-34.50
-39.36
-44.08
-48.79
-53.68
-58.77
-63.68
-67.68
-69.83
-69.31
-65.77
-59.46
-51.18
-41.98
-32.89
-24.61
-17.44
-11.40
-6.30
-2.00
1.64
4.70
7.36
9.89
12.62
15.76
19.29
22.85
25.90
27.92
28.64
28.22
27.16
26.04
25.35
25.24
25.52
25.84
25.84
25.27
24.08
22.36
20.29
18.05
15.80
13.64
11.64
9.76
7.89
5.83
3.43
0.57
-2.77
-6.53
-10.62
-14.96
-19.53
-24.38
-29.58
-35.18
-41.21
-47.57
-53.89
-59.56
-63.68
-65.31
-63.72
-58.70
-50.67
-40.63
-29.75
-19.10
-9.32
-0.63
7.05
13.88
19.90
25.09
29.39
32.85
35.63
37.97
40.05
41.86
43.24
43.99
44.03
43.50
42.79
42.42
42.78
44.04
45.93
47.87
49.13
49.10
47.50
44.51
40.62
36.46
32.60
29.28
26.45
23.84
21.04
17.68
13.54
8.56
2.83
-3.46
-10.08
-16.86
-23.69
-30.53
-37.29
-43.74
-49.46
-53.86
-56.42
-56.87
-55.26
-51.94
-47.35
-41.89
-35.72
-28.92
-21.56
-13.87
-6.24
0.91
7.29
12.89
17.95
22.82
27.70
32.51
36.94
40.59
43.24
44.96
46.15
47.32
48.92
51.17
54.03
57.25
60.57
63.71
66.39
68.26
68.91
67.96
65.26
61.15
56.48
52.50
50.41
50.84
53.59
57.61
61.53
64.27
65.47
65.43
64.80
63.95
62.76
60.68
57.18
52.19
46.10
39.57
33.00
26.39
19.24
10.98
1.29
-9.76
-21.71
-34.02
-46.26
-58.13
-69.43
-79.90
-89.17
-96.83
-102.51
-106.12
-107.80
-107.92
-106.88
-104.99
-102.41
-99.12
-95.02
-90.05
-84.26
-77.89
-71.24
-64.71
-58.61
-53.13
-48.30
-43.95
-39.78
-35.47
-30.76
-25.62
-20.23
-14.98
-10.37
-6.83
-4.55
-3.39
-2.86
-2.29
-1.14
0.79
3.20
5.47
6.85
6.85
5.41
2.85
-0.28
-3.49
-6.53
-9.42
-12.37
-15.62
-19.28
-23.29
-27.40
-31.26
-34.46
-36.66
-37.60
-37.12
-35.17
-31.78
-27.16
-21.64
-15.70
-9.79
-4.30
0.65
5.13
9.31
13.39
17.42
21.30
24.81
27.76
30.02
31.58
32.57
33.15
33.48
33.63
33.66
33.57
33.36
33.01
32.44
31.52
30.11
28.13
25.59
22.66
19.61
16.67
13.99
11.54
9.14
6.58
3.73
0.54
-2.95
-6.69
-10.63
-14.77
-19.06
-23.46
-27.86
-32.17
-36.29
-40.10
-43.40
-45.90
-47.17
-46.78
-44.52
-40.46
-35.02
-28.83
-22.56
-16.73
-11.71
-7.63
-4.48
-2.05
0.03
2.22
4.92
8.35
12.41
16.73
20.84
24.30
26.86
28.52
29.42
29.88
30.26
30.96
32.28
34.27
36.66
38.94
40.54
41.13
40.81
40.09
39.67
40.12
41.63
43.91
46.34
48.22
48.99
48.42
46.55
43.56
39.71
35.15
29.98
24.26
18.06
11.56
4.91
-1.69
-8.14
-14.36
-20.33
-26.05
-31.50
-36.64
-41.39
-45.66
-49.33
-52.26
-54.30
-55.29
-55.18
-53.99
-51.83
-48.87
-45.24
-41.00
-36.18
-30.80
-24.93
-18.71
-12.34
-6.08
-0.14
5.30
10.11
14.13
17.27
19.48
20.87
21.65
22.16
22.74
23.66
25.00
26.68
28.43
30.06
31.44
32.68
33.92
35.18
36.26
36.70
35.96
33.72
30.05
25.35
20.27
15.28
10.61
6.17
1.76
-2.67
-6.98
-10.86
-14.04
-16.42
-18.24
-19.89
-21.80
-24.30
-27.48
-31.14
-34.88
-38.18
-40.56
-41.67
-41.36
-39.71
-36.97
-33.45
-29.48
-25.35
-21.24
-17.29
-13.54
-9.96
-6.47
-3.00
0.43
3.68
6.54
8.79
10.36
11.32
11.86
12.23
12.58
12.98
13.44
13.91
14.37
14.78
15.09
15.24
15.13
14.67
13.83
12.64
11.22
9.69
8.18
6.76
5.46
4.26
3.08
1.83
0.46
-1.06
-2.70
-4.40
-6.10
-7.77
-9.45
-11.29
-13.48
-16.13
-19.21
-22.50
-25.60
-28.09
-29.66
-30.18
-29.72
-28.48
-26.68
-24.46
-21.88
-18.95
-15.68
-12.12
-8.40
-4.64
-0.93
2.76
6.48
10.33
14.28
18.24
22.03
25.47
28.39
30.68
32.32
33.35
33.84
33.94
33.80
33.60
33.36
33.04
32.46
31.46
30.05
28.41
26.89
25.77
25.12
24.69
24.04
22.71
20.53
