1680806588.00
64.000000
-0.00
-0.00
-0.00
-0.00
-0.00
-0.00
-0.00
-0.00
-0.00
-0.00
0.00
0.01
0.01
-0.00
-0.03
-0.05
-0.05
0.00
0.13
0.36
0.66
1.01
1.37
1.72
2.06
2.40
2.79
3.24
3.80
4.42
5.06
5.66
6.20
6.68
7.15
7.68
8.31
9.14
10.09
11.04
11.88
12.56
13.14
13.76
14.65
15.96
17.91
20.32
22.90
25.38
27.58
29.57
31.68
34.32
37.81
42.54
48.15
54.10
59.83
64.97
69.58
74.14
79.34
85.71
93.76
103.00
112.62
121.73
129.77
136.75
143.30
150.75
157.77
166.64
177.95
191.79
206.97
220.57
228.25
225.36
208.53
176.87
132.76
80.05
23.07
-34.95
-92.44
-149.16
-205.23
-260.36
-313.72
-363.84
-409.79
-450.84
-486.40
-515.60
-537.05
-548.99
-549.68
-538.03
-513.80
-478.21
-433.35
-381.85
-326.35
-269.10
-211.81
-155.76
-101.97
-51.30
-4.73
36.86
72.82
102.87
127.16
146.20
160.69
171.34
178.79
183.41
185.51
185.31
183.09
179.19
174.02
168.00
161.46
154.67
147.75
140.79
133.82
126.89
120.06
113.39
106.97
100.85
95.06
89.60
84.51
79.76
75.39
71.40
67.81
64.64
61.86
59.49
57.49
55.81
54.39
53.11
51.86
50.45
48.73
46.51
43.65
40.03
35.62
30.43
24.54
18.09
11.31
4.46
-2.20
-8.39
-13.89
-18.51
-22.14
-24.73
-26.30
-26.93
-26.74
-25.89
-24.51
-22.78
-20.80
-18.68
-16.48
-14.24
-11.98
-9.74
-7.50
-5.27
-3.03
-0.77
1.53
3.89
6.34
8.84
11.37
13.90
16.46
19.03
21.64
24.32
27.11
30.07
33.11
36.19
39.29
42.39
45.52
48.70
51.96
55.37
59.02
62.78
66.55
70.29
73.97
77.58
81.10
84.52
87.89
91.25
94.38
97.12
99.33
100.95
101.91
102.12
101.46
99.65
98.34
98.31
100.08
103.90
109.74
117.33
126.22
135.73
145.15
153.80
160.76
165.39
167.27
166.28
162.53
156.35
148.19
138.62
128.21
117.28
106.15
95.10
84.33
74.03
64.33
55.34
47.15
39.82
33.22
27.25
21.80
16.81
12.27
8.18
4.53
1.33
-1.47
-3.98
-6.38
-8.76
-11.17
-13.61
-16.00
-18.23
-20.29
-22.27
-24.37
-26.88
-30.00
-33.79
-38.12
-42.70
-47.17
-51.33
-55.23
-59.17
-63.59
-68.88
-75.19
-82.30
-89.74
-96.99
-103.77
-110.24
-116.95
-124.70
-134.14
-145.51
-158.48
-172.33
-186.25
-199.68
-212.55
-225.26
-238.57
-253.50
-271.17
-292.53
-317.68
-345.26
-372.15
-393.87
-405.86
-405.11
-391.32
-366.98
-336.38
-303.90
-272.67
-244.06
-218.13
-194.48
-172.97
-153.73
-136.93
-122.32
-109.21
-96.76
-84.34
-71.86
-59.68
-48.49
-38.88
-31.15
-25.20
-20.64
-16.88
-13.31
-9.43
-4.90
0.45
6.58
13.36
20.55
27.89
35.12
41.98
48.25
53.70
58.09
61.29
63.31
64.30
64.51
64.16
63.39
62.17
60.43
58.17
55.57
52.96
50.67
48.93
47.71
46.77
45.84
44.69
43.17
41.24
38.85
36.00
32.81
29.48
26.38
23.86
22.10
21.00
20.18
19.14
17.42
14.84
11.56
8.06
5.12
3.54
3.87
6.16
9.96
14.46
18.79
22.43
25.22
27.35
29.12
30.70
32.05
33.03
33.47
33.36
32.85
32.13
31.37
30.64
29.88
28.99
27.88
26.58
25.19
23.92
22.92
22.27
21.86
21.46
20.82
19.74
18.10
15.93
13.32
10.46
7.59
4.96
2.71
0.81
-0.95
-2.94
-5.45
-8.61
-12.26
-15.89
-18.80
-20.25
-19.63
-16.74
-11.83
-5.59
1.05
7.27
12.52
16.71
19.97
22.50
24.34
25.37
25.50
24.83
23.70
22.57
21.73
21.23
20.82
20.16
19.03
17.45
15.64
13.97
12.72
12.08
12.06
12.48
12.96
13.07
12.45
10.95
8.71
6.12
3.62
1.58
0.10
-0.96
-1.88
-3.04
-4.79
-7.38
-10.87
-14.99
-19.10
-22.28
-23.62
-22.49
-18.83
-13.17
-6.41
0.46
6.60
11.59
15.37
18.11
20.08
21.43
22.17
22.25
21.64
20.47
19.09
17.89
17.16
16.95
17.00
16.90
16.32
15.22
13.85
12.61
11.86
11.65
11.75
11.77
11.28
10.11
8.30
6.16
4.11
2.46
1.28
0.37
-0.74
-2.56
-5.41
-9.28
-13.78
-18.29
-22.05
-24.46
-25.01
-23.50
-19.96
-14.71
-8.34
-1.68
4.44
9.40
12.89
15.09
16.41
17.26
17.93
18.41
18.55
18.26
17.56
16.60
15.50
14.31
12.95
11.39
9.69
8.07
6.79
6.03
5.76
5.70
5.51
4.86
3.63
1.85
-0.23
-2.31
-4.16
-5.68
-6.99
-8.40
-10.28
-12.88
-16.22
-19.96
-23.38
-25.63
-25.91
-23.75
-19.17
-12.76
-5.40
1.91
8.38
13.61
17.58
20.51
22.63
24.03
24.71
24.73
24.22
23.48
22.80
22.29
21.81
21.04
19.69
17.70
15.36
13.11
11.28
9.93
8.77
7.37
5.41
2.86
0.04
-2.60
-4.63
-5.88
-6.42
-6.54
-6.66
-7.17
-8.39
-10.44
-13.23
-16.36
-19.12
-20.68
-20.30
-17.67
-13.03
-7.14
-0.96
4.60
9.03
12.24
14.46
15.99
17.03
17.64
17.79
17.56
17.05
16.47
15.88
15.26
14.46
13.34
11.86
10.09
8.22
6.43
4.88
3.59
2.41
1.12
-0.54
-2.73
-5.36
-8.17
-10.81
-12.94
-14.44
-15.43
-16.24
-17.29
-18.94
-21.38
-24.51
-27.86
-30.69
-32.10
-31.37
-28.22
-23.05
-16.78
-10.53
-5.23
-1.30
1.39
3.26
4.73
6.02
7.03
7.60
7.64
7.30
6.88
6.69
6.85
7.19
7.37
7.11
6.31
5.19
4.09
3.34
3.04
2.99
2.82
2.18
0.95
-0.69
-2.39
-3.75
-4.58
-4.91
-5.02
-5.30
-6.07
-7.53
-9.67
-12.21
-14.67
-16.47
-16.97
-15.80
-12.87
-8.53
-3.39
1.80
6.47
10.33
13.36
15.70
17.53
18.96
19.95
20.48
20.50
20.11
19.40
18.43
17.20
15.63
13.75
11.69
9.75
8.23
7.35
7.12
7.26
7.38
7.03
5.96
4.16
1.82
-0.69
-2.99
-4.79
-6.02
-6.78
-7.38
-8.21
-9.59
-11.64
-14.21
-16.81
-18.80
-19.52
-18.51
-15.66
-11.30
-6.06
-0.65
4.32
8.54
11.94
14.60
16.59
17.94
18.62
18.69
18.33
17.77
17.22
16.76
16.35
15.83
15.09
14.08
12.87
11.58
10.38
9.47
8.93
8.71
8.52
7.94
6.58
4.23
1.09
-2.34
-5.43
-7.69
-9.00
-9.62
-10.11
-11.06
-12.91
-15.71
-19.16
-22.53
-24.94
-25.60
-24.04
-20.28
-14.78
-8.26
-1.50
4.87
10.39
14.81
18.03
20.10
21.20
21.57
21.47
21.07
20.46
19.67
18.73
17.73
16.78
15.95
15.20
14.45
13.59
12.61
11.52
10.33
8.97
7.31
5.19
2.58
-0.42
-3.60
-6.67
-9.40
-11.67
-13.46
-14.85
-16.05
-17.22
-18.59
-20.31
-22.46
-24.95
-27.49
-29.60
-30.66
-30.06
-27.48
-22.99
-17.15
-10.81
-4.86
0.10
3.88
6.68
8.87
10.74
12.42
13.85
14.92
15.53
15.70
15.49
15.03
14.47
13.90
13.38
12.84
12.21
11.37
10.35
9.30
8.39
7.78
7.37
6.92
6.11
4.72
2.73
0.38
-2.00
-4.09
-5.69
-6.83
-7.65
-8.43
-9.39
-10.77
-12.68
-15.12
-17.91
-20.66
-22.82
-23.78
-23.02
-20.28
-15.74
-9.92
-3.62
2.34
7.38
11.23
13.98
15.86
17.19
18.14
18.78
19.12
19.17
18.94
18.49
17.85
17.02
16.04
14.95
13.88
12.96
12.32
12.02
11.97
12.00
11.90
11.40
10.40
8.82
6.79
4.53
2.31
0.38
-1.18
-2.43
-3.61
-4.96
-6.63
-8.63
-10.84
-13.08
-15.24
-17.15
-18.55
-19.05
-18.19
-15.67
-11.54
-6.27
-0.64
4.55
8.73
11.75
13.80
15.22
16.30
17.14
17.69
17.82
17.49
16.75
15.74
14.67
13.69
12.92
12.38
12.09
12.09
12.41
13.06
13.91
14.71
15.11
14.82
13.68
11.77
9.35
6.70
4.16
1.90
-0.04
-1.67
-3.05
-4.32
-5.66
-7.25
-9.29
-11.79
-14.63
-17.48
-19.82
-21.09
-20.75
-18.47
-14.20
-8.27
-1.34
5.76
12.29
17.75
22.10
25.54
28.37
30.75
32.56
33.57
33.61
32.75
31.33
29.79
28.49
27.56
26.96
26.49
26.00
25.39
24.66
23.80
22.88
22.00
21.30
20.89
20.72
20.62
20.30
19.56
18.38
16.93
15.45
14.13
13.03
11.97
10.62
8.57
5.41
0.91
-4.91
-11.59
-18.35
-24.14
-28.03
-29.41
-28.26
-25.08
-20.66
-15.87
-11.36
-7.51
-4.37
-1.76
0.54
2.71
4.71
6.38
7.41
7.61
6.86
5.24
2.95
0.31
-2.38
-4.88
-6.98
-8.59
-9.74
-10.54
-11.17
-11.79
-12.54
-13.45
-14.58
-16.01
-17.84
-20.12
-22.76
-25.50
-28.08
-30.26
-32.02
-33.58
-35.29
-37.52
-40.44
-44.05
-48.04
-51.90
-54.95
-56.48
-55.89
-52.87
-47.62
-40.69
-32.93
-25.26
-18.42
-12.82
-8.54
-5.45
-3.20
-1.49
-0.05
1.26
2.45
3.44
4.09
4.33
4.11
3.54
2.76
1.93
1.16
0.49
-0.13
-0.84
-1.84
-3.32
-5.45
-8.23
-11.47
-14.81
-17.83
-20.13
-21.62
-22.52
-23.31
-24.55
-26.68
-29.73
-33.30
-36.66
-38.82
-38.90
-36.36
-31.12
-23.66
-14.93
-6.12
1.68
7.73
11.83
14.26
15.59
16.37
16.97
17.45
17.71
17.63
17.23
16.70
16.20
15.81
15.43
14.88
14.09
13.22
12.61
12.65
13.44
14.75
15.97
16.46
15.71
13.66
10.54
6.74
2.61
-1.68
-6.06
-10.59
-15.36
-20.53
-26.21
-32.38
-38.73
-44.60
-49.07
-51.15
-50.21
-46.21
-39.73
-31.77
-23.43
-15.63
-9.00
-3.90
-0.43
1.42
1.84
1.16
-0.22
-1.82
-3.25
-4.15
-4.32
-3.80
-2.78
-1.65
-0.79
-0.47
-0.65
-1.01
-1.15
-0.77
0.09
1.07
1.70
1.62
0.76
-0.69
-2.40
-4.02
-5.28
-6.08
-6.40
-6.34
-6.15
-6.13
-6.62
-7.81
-9.63
-11.66
-13.25
-13.58
-12.11
-8.59
-3.29
3.14
9.87
16.16
21.52
25.83
29.17
31.72
33.60
34.86
35.49
35.56
35.22
34.66
34.10
33.69
33.50
33.43
33.33
32.95
32.12
30.83
29.19
27.44
25.75
24.15
22.51
20.64
18.49
16.09
13.65
11.34
9.15
6.90
4.35
1.32
-2.22
-6.10
-10.08
-13.86
-17.13
-19.54
-20.68
-20.18
-17.88
-14.00
-9.09
-3.92
0.84
4.76
7.83
10.25
12.32
14.21
15.88
17.11
17.65
17.30
16.08
14.23
12.06
9.98
8.27
7.06
6.38
6.13
6.20
6.47
6.81
7.07
7.05
6.54
5.42
3.66
1.41
-1.06
-3.40
-5.36
-6.82
-7.87
-8.79
-9.97
-11.70
-14.10
-16.93
-19.65
-21.48
-21.69
-19.84
-16.00
-10.77
-5.07
0.16
4.26
7.07
8.84
10.06
11.16
12.34
13.57
14.70
15.56
16.09
16.25
16.06
15.52
14.69
13.64
12.46
11.22
9.96
8.65
7.25
5.76
4.13
2.33
0.32
-1.95
-4.43
-7.00
-9.43
-11.59
-13.52
-15.52
-18.01
-21.37
-25.73
-30.83
-36.08
-40.73
-44.09
-45.72
-45.51
-43.64
-40.38
-36.06
-31.00
-25.60
-20.41
-16.11
-13.39
-12.72
-14.16
-17.28
-21.31
-25.39
-29.01
-32.11
-35.10
-38.70
-43.57
-50.02
-57.85
-66.43
-74.80
-81.95
-87.09
-89.84
-90.56
-90.51
-91.79
-96.81
-107.50
-124.45
-146.41
-170.63
-193.61
-212.42
-225.51
-232.91
-235.57
-234.39
-229.46
-219.83
-203.83
-179.87
-147.18
-106.27
-58.92
-7.87
43.77
93.06
137.61
175.78
206.65
229.89
245.69
254.69
257.90
256.63
252.31
246.23
239.31
231.91
223.94
215.04
204.87
193.29
180.65
167.60
154.97
143.34
132.93
123.60
115.02
106.90
99.02
91.23
83.40
75.38
67.09
58.61
50.18
42.06
34.34
26.91
19.48
11.83
4.00
-3.66
-10.53
-16.03
-19.68
-21.28
-20.82
-18.48
-14.65
-9.84
-4.71
0.04
3.83
6.44
8.00
8.90
9.61
10.41
11.32
12.12
12.54
12.38
11.64
10.46
9.06
7.65
6.42
5.57
5.25
5.60
6.67
8.37
10.43
12.53
14.33
15.52
15.94
15.64
14.90
14.12
13.63
13.57
13.79
13.90
13.46
12.14
9.93
7.11
4.18
1.71
0.22
0.02
1.14
3.26
5.84
8.22
9.84
10.44
10.03
8.91
7.43
5.95
4.66
3.73
3.22
3.13
3.40
3.86
4.31
4.50
4.26
3.53
2.42
1.18
0.12
-0.47
-0.49
-0.04
0.57
0.97
0.84
0.06
-1.24
-2.79
-4.27
-5.41
-6.13
-6.53
-6.89
-7.59
-8.95
-11.10
-13.83
-16.61
-18.69
-19.36
-18.20
-15.23
-10.90
-5.92
-0.99
3.29
6.65
9.05
10.64
11.65
12.30
12.77
13.17
13.62
14.17
14.85
15.63
16.39
16.94
17.11
16.76
15.93
14.78
13.56
12.52
11.78
11.34
10.99
10.44
9.46
7.89
5.78
3.29
0.71
-1.69
-3.73
-5.39
-6.86
-8.50
-10.74
-13.91
-18.11
-23.09
-28.20
-32.61
-35.42
-35.98
-34.10
-30.05
-24.53
-18.52
-12.97
-8.59
-5.71
-4.17
-3.51
-3.22
-2.97
-2.72
-2.76
-3.48
-5.14
-7.71
-10.88
-14.22
-17.35
-20.19
-22.97
-25.99
-29.51
-33.54
-37.85
-42.08
-45.99
-49.54
-52.95
-56.54
-60.63
-65.32
-70.40
-75.49
-80.13
-84.02
-87.25
-90.24
-93.69
-98.32
-104.65
-112.84
-122.59
-133.01
-142.56
-149.16
-150.57
-145.08
-132.19
-113.01
-90.02
-66.30
-44.50
-26.19
-11.72
-0.63
7.71
13.72
17.59
19.50
19.87
19.30
18.43
17.58
16.76
15.67
13.97
11.44
8.08
4.09
-0.27
-4.85
-9.65
-14.85
-20.66
-27.19
-34.37
-41.97
-49.66
-57.24
-64.72
-72.33
-80.45
-89.41
-99.12
-108.85
-117.14
-122.04
-121.60
-114.58
-100.90
-81.75
-59.26
-35.82
-13.38
6.86
24.56
39.98
53.63
66.03
77.58
88.52
99.00
109.08
118.78
128.05
136.70
144.27
150.22
154.07
155.61
155.11
153.11
150.25
146.88
142.91
137.93
131.44
123.21
113.45
102.77
91.94
81.68
72.38
64.00
56.12
48.15
39.57
30.23
20.57
11.47
4.13
-0.29
-1.02
2.12
8.57
17.25
26.71
35.62
43.04
48.64
52.69
55.74
58.39
60.96
63.43
65.47
66.67
66.70
65.35
62.66
58.77
54.06
48.93
43.80
38.98
34.53
30.32
26.11
21.71
17.05
12.28
7.56
3.04
-1.23
-5.31
-9.26
-13.21
-17.27
-21.55
-26.18
-31.13
-36.19
-40.92
-44.70
-46.84
-46.81
-44.29
-39.26
-32.07
-23.34
-13.91
-4.62
3.86
11.29
17.76
23.58
28.90
33.60
37.23
39.31
39.60
38.29
35.95
33.23
30.61
28.24
26.01
23.73
21.30
18.72
16.08
13.38
10.51
7.33
3.77
-0.09
-4.05
-7.91
-11.65
-15.44
-19.57
-24.24
-29.43
-34.81
-39.73
-43.42
-45.19
-44.47
-41.08
-35.20
-27.34
-18.30
-8.95
-0.09
7.81
14.55
20.24
25.03
28.98
32.01
33.93
34.61
34.11
32.71
30.76
28.56
26.29
23.96
21.55
19.10
16.65
14.26
11.91
9.47
6.83
3.92
0.75
-2.58
-6.01
-9.49
-13.09
-16.92
-21.07
-25.52
-30.08
-34.42
-38.01
-40.30
-40.84
-39.35
-35.80
-30.39
-23.58
-15.92
-8.11
-0.75
5.67
10.86
14.86
17.88
20.21
22.10
23.63
24.66
25.01
24.50
23.09
20.98
18.43
15.76
13.19
10.83
8.58
6.34
4.02
1.65
-0.66
-2.85
-4.92
-6.96
-9.14
-11.54
-14.18
-16.99
-19.98
-23.15
-26.57
-30.20
-33.76
-36.79
-38.69
-38.88
-37.00
-33.08
-27.38
-20.52
-13.20
-6.12
0.16
5.41
9.65
13.17
16.25
19.10
21.69
23.79
25.15
25.57
25.05
23.79
22.13
20.33
18.61
17.03
15.59
14.21
12.83
11.38
9.72
7.73
5.28
2.34
-0.98
-4.48
-7.91
-11.12
-14.11
-17.07
-20.26
-23.86
-27.81
-31.75
-35.08
-37.11
-37.38
-35.69
-32.25
-27.45
-21.78
-15.70
-9.59
-3.81
1.39
5.79
9.37
12.27
14.76
17.03
19.10
20.78
21.77
21.82
20.90
19.19
17.03
14.81
12.80
11.15
9.90
8.92
8.06
7.09
5.82
4.07
1.81
-0.93
-4.03
-7.31
-10.60
-13.74
-16.63
-19.29
-21.82
-24.48
-27.57
-31.35
-35.80
-40.60
-45.09
-48.49
-50.11
-49.54
-46.66
-41.73
-35.16
-27.47
-19.19
-10.83
-2.82
4.55
11.12
16.85
21.75
25.81
28.97
31.17
32.41
32.80
32.53
31.78
30.72
29.37
27.70
25.72
23.46
21.06
18.74
16.59
14.64
12.69
10.43
7.54
3.88
-0.45
-5.08
-9.54
-13.50
-16.89
-19.92
-23.02
-26.59
-30.79
-35.48
-40.25
-44.58
-47.93
-49.82
-49.79
-47.45
-42.56
-35.22
-26.05
-15.99
-6.12
2.70
10.15
16.38
21.74
26.49
30.59
33.73
35.63
36.23
35.74
34.54
32.95
31.11
28.99
26.53
23.75
20.84
18.02
15.46
13.18
11.03
8.77
6.18
3.08
-0.55
-4.63
-8.99
-13.40
-17.70
-21.83
-25.90
-30.12
-34.72
-39.74
-44.97
-49.85
-53.66
-55.56
-54.88
-51.18
-44.42
-34.95
-23.60
-11.48
0.19
10.41
18.63
24.78
29.16
32.22
34.34
35.72
36.45
36.59
36.20
35.38
34.17
32.58
30.54
28.04
25.20
22.24
19.40
16.80
14.36
11.79
8.75
4.96
0.39
-4.68
-9.85
-14.66
-18.88
-22.61
-26.17
-30.02
-34.52
-39.72
-45.33
-50.68
-54.84
-56.71
-55.33
-50.14
-41.19
-29.37
-16.12
-3.12
8.22
17.22
23.91
28.85
32.64
35.64
37.86
39.12
39.38
38.75
37.57
36.17
34.62
32.75
30.30
27.15
23.47
19.72
16.41
13.89
12.08
10.51
8.55
5.64
1.64
-3.18
-8.26
-12.99
-17.00
-20.28
-23.19
-26.21
-29.75
-33.94
-38.55
-43.07
-46.70
-48.61
-47.93
-44.06
-36.84
-26.72
-14.82
-2.59
8.47
17.32
23.56
27.44
29.57
30.62
31.03
30.97
30.46
29.46
28.03
26.29
24.35
22.31
20.19
17.99
15.71
13.44
11.27
9.30
7.53
5.80
3.85
1.38
-1.76
-5.53
-9.56
-13.45
-16.86
-19.73
-22.39
-25.41
-29.30
-34.23
-39.95
-45.68
-50.33
-52.71
-51.84
-47.23
-39.02
-28.04
-15.62
-3.26
7.72
16.53
22.96
27.30
30.04
31.65
32.44
32.60
32.17
31.23
29.85
28.13
26.11
23.82
21.25
18.40
15.31
12.04
8.70
5.35
1.98
-1.48
-5.12
-8.96
-12.93
-16.88
-20.67
-24.30
-27.94
-31.85
-36.29
-41.35
-46.87
-52.33
-56.90
-59.49
-58.96
-54.40
-45.54
-32.96
-18.16
-3.11
10.31
20.84
28.26
33.11
36.26
38.41
39.84
40.45
40.12
38.92
37.18
35.29
33.47
31.66
29.53
26.82
23.48
19.75
16.05
12.73
9.83
7.11
4.13
0.54
-3.74
-8.48
-13.26
-17.72
-21.72
-25.41
-29.19
-33.50
-38.59
-44.36
-50.29
-55.39
-58.40
-58.09
-53.66
-45.08
-33.19
-19.52
-5.84
6.38
16.27
23.67
28.93
32.59
35.14
36.85
37.85
38.23
38.09
37.51
36.48
34.95
32.84
30.15
27.02
23.71
20.54
17.74
15.25
12.76
9.80
5.95
1.11
-4.49
-10.32
-15.84
-20.70
-24.98
-29.04
-33.38
-38.42
-44.32
-50.92
-57.76
-64.05
-68.68
-70.34
-67.84
-60.49
-48.61
-33.51
-17.25
-2.01
10.64
20.14
26.83
31.58
35.22
38.13
40.26
41.33
41.19
39.98
38.02
35.72
33.30
30.83
28.20
25.42
22.62
20.07
17.95
16.22
14.56
12.49
9.56
5.59
0.77
-4.45
-9.57
-14.25
-18.50
-22.66
-27.32
-33.09
-40.24
-48.52
-56.86
-63.58
-66.71
-64.70
-56.96
-44.27
-28.52
-12.17
2.61
14.52
23.38
29.76
34.49
38.15
40.89
42.65
43.35
43.15
42.40
41.45
40.44
39.25
37.57
35.18
32.09
28.65
25.42
22.89
21.18
19.94
18.49
16.04
12.10
6.73
0.50
-5.75
-11.23
-15.62
-19.08
-22.24
-25.86
-30.61
-36.81
-44.34
-52.56
-60.31
-66.06
-68.14
-65.27
-57.05
-44.20
-28.49
-12.28
2.24
13.73
21.89
27.32
31.01
33.76
35.96
37.62
38.66
39.13
39.23
39.13
38.80
37.95
36.17
33.30
29.50
25.35
21.56
18.65
16.63
15.08
13.30
10.64
6.84
2.11
-3.04
-7.96
-12.18
-15.62
-18.59
-21.77
-25.91
-31.58
-38.82
-47.04
-54.94
-60.79
-62.82
-59.76
-51.33
-38.37
-22.74
-6.71
7.60
18.83
26.54
31.16
33.56
34.63
34.99
34.92
34.47
33.60
32.26
30.47
28.26
25.73
23.02
20.31
17.76
15.50
13.53
11.71
9.76
7.34
4.15
0.14
-4.50
-9.30
-13.77
-17.56
-20.67
-23.52
-26.85
-31.39
-37.58
-45.24
-53.37
-60.25
-63.85
-62.42
-55.12
-42.46
-26.22
-8.93
6.89
19.49
28.26
33.65
36.67
38.39
39.54
40.39
40.90
40.92
40.36
39.21
37.54
35.42
32.87
29.97
26.90
23.92
21.28
19.07
17.08
14.86
11.94
8.01
3.14
-2.24
-7.55
-12.30
-16.40
-20.10
-24.02
-28.87
-35.17
-42.92
-51.46
-59.40
-64.85
-65.92
-61.37
-51.17
-36.63
-20.05
-3.97
9.63
19.86
26.91
31.64
34.99
37.53
39.45
40.67
41.11
40.81
39.91
38.55
36.72
34.41
31.57
28.29
24.80
21.42
18.42
15.88
13.60
11.15
8.08
4.07
-0.83
-6.24
-11.61
-16.44
-20.54
-24.13
-27.74
-32.07
-37.68
-44.77
-52.86
-60.80
-66.75
-68.74
-65.27
-56.02
-42.11
-25.77
-9.58
4.37
15.14
22.95
28.71
33.35
37.35
40.67
42.97
44.01
43.82
42.74
41.16
39.32
37.24
34.78
31.85
28.58
25.38
22.75
21.01
20.08
19.39
18.07
15.26
10.55
4.13
-3.25
-10.64
-17.21
-22.68
-27.34
-31.88
-37.12
-43.63
-51.44
-59.87
-67.53
-72.62
-73.32
-68.44
-57.87
-42.79
-25.42
-8.32
6.43
17.79
25.79
31.20
34.85
37.32
38.72
39.03
38.44
37.38
36.36
35.70
35.24
34.49
32.92
30.30
26.96
23.61
20.94
19.25
18.27
17.23
15.29
11.85
6.85
0.74
-5.62
-11.50
-16.40
-20.34
-23.79
-27.49
-32.17
-38.26
-45.65
-53.60
-60.79
-65.48
-65.98
-61.17
-50.94
-36.40
-19.65
-3.18
10.92
21.54
28.66
33.06
35.71
37.27
37.98
37.80
36.73
34.94
32.77
30.51
28.28
26.00
23.61
21.12
18.73
16.62
14.87
13.27
11.44
8.95
5.54
1.24
-3.66
-8.68
-13.36
-17.43
-20.91
-24.17
-27.85
-32.65
-39.02
-46.85
-55.16
-62.25
-65.99
-64.54
-57.05
-44.10
-27.57
-10.12
5.75
18.40
27.40
33.32
37.17
39.80
41.73
43.07
43.79
43.96
43.77
43.43
43.03
42.51
41.62
40.16
38.07
35.51
32.73
30.07
27.68
25.55
23.47
21.14
18.33
14.90
10.89
6.40
1.49
-3.88
-9.76
-16.23
-23.19
-30.30
-37.06
-42.79
-46.92
-49.19
-49.73
-49.19
-48.53
-48.73
-50.44
-53.70
-57.96
-62.19
-65.24
-66.20
-64.60
-60.54
-54.61
-47.65
-40.50
-33.77
-27.80
-22.62
-18.09
-13.96
-9.98
-5.96
-1.82
2.27
5.94
8.65
9.84
9.19
6.76
3.06
-1.13
-5.03
-8.13
-10.42
-12.34
-14.72
-18.49
-24.33
-32.43
-42.16
-52.08
-60.25
-64.74
-64.28
-58.71
-49.06
-37.20
-25.29
-15.08
-7.55
-2.79
-0.34
0.47
0.11
-1.21
-3.52
-6.87
-11.15
-16.04
-21.08
-25.82
-29.91
-33.07
-34.97
-35.20
-33.39
-29.40
-23.56
-16.74
-10.19
-5.19
-2.58
-2.49
-4.29
-6.89
-9.06
-9.89
-9.04
-6.81
-4.09
-2.14
-2.19
-5.03
-10.60
-17.73
-24.29
-27.69
-25.67
-16.99
-1.98
17.52
38.79
59.05
76.31
89.71
99.47
106.43
111.46
115.08
117.29
117.80
116.22
112.36
106.24
98.02
87.91
76.15
63.11
49.43
36.09
24.18
14.57
7.43
2.04
-3.08
-9.71
-19.21
-31.98
-47.20
-63.17
-77.91
-89.94
-98.74
-104.95
-109.98
-115.49
-122.76
-132.14
-142.87
-153.06
-160.12
-161.38
-154.76
-139.43
-115.99
-86.44
-53.64
-20.75
9.56
35.47
56.20
71.91
83.39
91.69
97.83
102.58
106.38
109.44
111.80
113.40
114.17
113.98
112.76
110.54
107.50
103.88
99.89
95.53
90.57
84.66
77.49
68.96
59.30
49.03
38.75
28.94
19.76
11.02
2.13
-7.61
-18.79
-31.49
-44.94
-57.47
-66.76
-70.58
-67.48
-57.39
-41.77
-23.14
-4.30
12.50
26.12
36.51
44.36
50.60
55.88
60.47
64.29
67.09
68.63
68.77
67.52
65.04
61.56
57.39
52.86
48.30
43.96
39.94
36.12
32.22
27.81
22.50
16.05
8.56
0.49
-7.47
-14.66
-20.74
-25.90
-30.93
-36.93
-44.92
-55.30
-67.43
-79.59
-89.23
-93.69
-91.08
-80.91
-64.35
-43.81
-22.19
-2.02
15.16
28.94
39.77
48.50
55.87
62.34
67.98
72.62
75.97
77.81
77.99
76.55
73.71
69.82
65.41
61.03
57.21
54.31
52.43
51.29
50.30
48.68
45.81
41.40
35.63
29.08
22.49
16.42
11.03
5.96
0.40
-6.51
-15.33
-25.94
-37.32
-47.64
-54.66
-56.43
-51.94
-41.50
-26.76
-10.16
5.82
19.31
29.51
36.53
41.10
43.98
45.74
46.55
46.45
45.44
43.64
41.23
38.32
34.86
30.62
25.45
19.39
12.86
6.58
1.32
-2.45
-4.79
-6.30
-7.92
-10.46
-14.35
-19.41
-24.98
-30.24
-34.61
-37.94
-40.58
-43.22
-46.64
-51.42
-57.73
-65.24
-72.94
-79.22
-82.09
-79.77
-71.33
-57.19
-39.23
-20.22
-2.88
10.99
20.99
27.84
32.68
36.38
39.16
40.74
40.82
39.44
37.10
34.43
31.88
29.46
26.92
23.95
20.55
17.04
13.90
11.46
9.70
8.13
6.01
2.70
-2.13
-8.27
-15.07
-21.70
-27.41
-31.85
-35.19
-38.05
-41.29
-45.69
-51.62
-58.79
-66.20
-72.18
-74.82
-72.48
-64.44
-51.18
-34.44
-16.68
-0.38
12.69
21.89
27.57
30.66
32.19
32.90
33.10
32.79
31.90
30.40
28.29
25.66
22.60
19.26
15.88
12.74
10.10
8.05
6.39
4.64
2.19
-1.37
-6.08
-11.57
-17.19
-22.27
-26.40
-29.59
-32.25
-35.06
-38.79
-44.04
-50.99
-58.99
-66.56
-71.52
-71.64
-65.53
-53.25
-36.46
-17.95
-0.65
13.31
23.11
29.19
32.69
34.80
36.24
37.22
37.63
37.32
36.27
34.64
32.63
30.40
28.03
25.49
22.77
19.92
17.05
14.29
11.66
8.99
6.02
2.51
-1.58
-6.07
-10.63
-14.93
-18.84
-22.49
-26.29
-30.77
-36.41
-43.39
-51.30
-58.95
-64.50
-65.89
-61.59
-51.23
-35.93
-18.10
-0.56
14.28
25.20
32.23
36.24
38.30
39.17
39.22
38.47
36.98
34.98
32.80
30.72
28.81
26.89
24.68
22.05
19.16
16.46
14.40
13.14
12.41
11.55
9.82
6.76
2.35
-2.91
-8.32
-13.30
-17.58
-21.28
-24.85
-28.87
-33.98
-40.57
-48.49
-56.80
-63.76
-67.18
-65.18
-56.91
-43.10
-25.85
-8.00
7.80
19.91
27.87
32.20
33.89
33.92
33.00
31.61
30.07
28.63
27.40
26.34
25.18
23.56
21.18
18.03
14.46
10.97
8.07
5.91
4.18
2.31
-0.39
-4.28
-9.26
-14.86
-20.45
-25.51
-29.73
-33.16
-36.17
-39.39
-43.57
-49.29
-56.56
-64.45
-71.15
-74.28
-71.81
-62.87
-48.23
-30.16
-11.62
4.74
17.28
25.65
30.46
32.70
33.33
32.98
32.00
30.61
28.98
27.29
25.62
23.97
22.27
20.44
18.41
16.24
14.02
11.85
9.78
7.67
5.33
2.45
-1.16
-5.44
-10.12
-14.74
-18.92
-22.49
-25.70
-29.19
-33.74
-39.91
-47.67
-56.05
-63.33
-67.36
-66.30
-59.29
-46.83
-30.67
-13.25
3.07
16.67
26.90
33.97
38.59
41.58
43.57
44.93
45.81
46.16
45.92
44.96
43.20
40.64
37.40
33.71
29.89
26.25
23.03
20.27
17.77
15.20
12.14
8.32
3.70
-1.41
-6.55
-11.30
-15.47
-19.26
-23.17
-27.88
-34.03
-41.96
-51.37
-61.27
-69.91
-75.16
-75.11
-68.64
-56.05
-39.00
-20.10
-2.09
12.97
24.14
31.66
36.43
39.53
41.76
43.49
44.77
45.58
45.89
45.71
45.03
43.70
41.51
38.29
34.20
29.69
25.45
22.10
19.86
18.40
16.96
14.66
10.88
5.54
-0.91
-7.72
-14.13
-19.68
-24.41
-28.79
-33.62
-39.76
-47.64
-56.88
-66.14
-73.29
-76.01
-72.62
-62.77
-47.62
-29.51
-11.20
5.03
17.93
27.30
33.72
38.00
40.85
42.70
43.78
44.24
44.18
43.68
42.68
41.01
38.45
34.93
30.64
25.99
21.60
18.00
15.39
13.56
11.96
9.86
6.66
2.18
-3.30
-9.20
-14.80
-19.60
-23.49
-26.73
-29.97
-33.96
-39.35
-46.42
-54.81
-63.37
-70.32
-73.61
-71.61
-63.77
-50.93
-35.06
-18.73
-4.16
7.36
15.70
21.57
25.96
29.56
32.61
34.92
36.15
36.19
35.13
33.21
30.70
27.68
24.09
19.85
15.01
9.82
4.71
-0.01
-4.29
-8.52
-13.36
-19.55
-27.60
-37.51
-48.82
-60.68
-72.28
-83.14
-93.36
-103.59
-114.90
-128.42
-144.98
-164.81
-187.27
-210.83
-233.26
-252.01
-264.85
-270.31
-268.07
-258.92
-244.42
-226.50
-207.06
-187.78
-169.99
-154.67
-142.29
-132.75
-125.35
-118.72
-111.07
-100.43
-84.96
-63.30
-34.95
-0.60
37.70
76.87
113.39
144.27
167.70
183.26
191.65
193.98
191.32
184.50
174.35
162.00
148.93
136.68
126.22
117.55
109.61
100.80
89.68
75.55
58.92
41.36
25.25
13.19
7.21
8.29
16.00
28.79
44.38
60.44
75.04
86.98
95.79
101.61
104.91
106.36
106.53
105.81
104.38
102.29
99.60
96.42
92.79
88.57
83.35
76.74
68.68
59.76
51.06
43.70
38.33
34.72
31.99
29.05
25.18
20.24
14.56
8.64
2.89
-2.42
-7.12
-11.16
-14.73
-18.42
-23.10
-29.50
-37.64
-46.43
-53.83
-57.45
-55.43
-47.10
-33.15
-15.35
4.17
23.43
40.95
55.84
67.67
76.31
81.90
84.73
85.26
84.09
81.78
78.84
75.54
71.95
67.89
63.16
57.76
51.98
46.41
41.63
37.94
35.13
32.50
29.17
24.45
18.21
10.87
3.21
-4.03
-10.36
-15.72
-20.42
-24.98
-30.00
-36.06
-43.48
-52.13
-61.19
-69.15
-74.05
-74.01
-67.84
-55.54
-38.37
-18.50
1.55
19.64
34.37
45.24
52.47
56.62
58.38
58.32
56.91
54.52
51.53
48.26
45.03
42.03
39.29
36.77
34.36
32.03
29.73
27.46
25.10
22.39
19.01
14.65
9.20
2.81
-4.08
-10.90
-17.13
-22.46
-26.97
-31.11
-35.58
-41.11
-47.99
-55.82
-63.33
-68.60
-69.57
-64.80
-53.98
-38.13
-19.22
0.45
18.88
34.83
47.85
58.06
65.84
71.58
75.58
78.04
79.09
78.86
77.48
75.17
72.20
68.95
65.87
63.38
61.68
60.77
60.39
60.17
59.71
58.75
57.17
54.97
52.21
48.94
45.20
41.07
36.59
31.58
25.47
17.41
6.55
-7.44
-23.84
-40.74
-55.54
-65.69
-69.68
-67.54
-60.81
-51.91
-43.29
-36.67
-32.70
-31.07
-30.89
-31.22
-31.40
-31.17
-30.60
-29.88
-29.10
-28.03
-26.29
-23.40
-19.00
-13.00
-5.53
3.09
12.49
22.31
32.25
42.01
51.25
59.66
66.89
72.69
76.89
79.29
79.51
76.80
70.18
58.81
42.67
22.92
1.90
-17.49
-32.64
-41.93
-45.02
-42.66
-36.30
-27.69
-18.59
-10.40
-4.10
-0.08
1.80
2.05
1.43
0.89
1.43
3.90
8.74
15.56
22.96
28.93
31.58
30.06
24.99
18.13
11.41
6.10
2.27
-0.92
-4.45
-8.80
-13.79
-18.77
-23.16
-26.89
-30.49
-34.85
-40.73
-48.35
-57.25
-66.35
-74.34
-80.11
-83.14
-83.59
-82.13
-79.63
-76.85
-74.21
-71.86
-69.80
-68.11
-66.99
-66.72
-67.54
-69.47
-72.24
-75.38
-78.31
-80.45
-81.39
-80.91
-79.01
-75.84
-71.66
-66.76
-61.50
-56.27
-51.51
-47.60
-44.75
-42.91
-41.75
-40.78
-39.63
-38.20
-36.83
-36.17
-36.95
-39.80
-44.93
-52.08
-60.35
-68.23
-73.94
-75.70
-72.34
-63.64
-50.50
-34.66
-18.19
-2.90
10.16
20.75
29.26
36.33
42.51
48.06
52.97
56.98
59.78
61.15
61.00
59.45
56.80
53.45
49.82
46.30
43.17
40.49
38.16
35.87
33.22
29.88
25.67
20.65
15.05
9.20
3.33
-2.50
-8.52
-15.09
-22.52
-30.73
-39.06
-46.28
-50.84
-51.35
-47.09
-38.27
-26.01
-11.91
2.35
15.47
26.60
35.41
41.93
46.44
49.39
51.24
52.34
52.81
52.57
51.41
49.22
46.11
42.49
38.81
35.45
32.53
29.86
27.12
24.03
20.43
16.34
11.91
7.26
2.51
-2.33
-7.33
-12.64
-18.54
-25.37
-33.40
-42.51
-52.01
-60.54
-66.35
-67.83
-64.05
-55.15
-42.34
-27.50
-12.55
1.03
12.49
21.76
29.12
34.95
39.57
43.08
45.54
46.90
47.21
46.54
45.09
43.10
40.86
38.66
36.73
35.25
34.20
33.46
32.70
31.55
29.57
26.49
22.20
16.84
10.76
4.37
-2.04
-8.48
-15.20
-22.68
-31.25
-40.75
-50.41
-58.78
-64.11
-64.90
-60.42
-51.01
-38.01
-23.40
-9.15
3.28
13.23
20.81
26.59
31.19
34.98
37.98
40.06
41.06
40.98
40.01
38.42
36.52
34.51
32.51
30.64
28.96
27.52
26.22
24.81
22.92
20.19
16.44
11.74
6.45
1.05
-4.00
-8.49
-12.57
-16.69
-21.54
-27.77
-35.64
-44.79
-54.12
-61.88
-66.20
-65.54
-59.31
-48.17
-33.75
-18.26
-3.73
8.45
17.78
24.54
29.38
32.99
35.81
38.03
39.57
40.37
40.38
39.67
38.35
36.54
34.35
31.90
29.38
27.03
25.06
23.51
22.11
20.35
17.62
13.50
7.98
1.47
-5.39
-11.95
-17.85
-23.12
-28.13
-33.47
-39.74
-47.33
-56.10
-65.23
-73.20
-78.14
-78.38
-73.07
-62.56
-48.28
-32.26
-16.44
-2.18
9.91
19.82
27.80
34.11
38.92
42.36
44.60
45.85
46.34
46.29
45.80
44.90
43.47
41.43
38.78
35.73
32.62
29.84
27.64
25.92
24.23
21.90
18.32
13.24
6.81
-0.40
-7.67
-14.42
-20.37
-25.60
-30.56
-35.91
-42.32
-50.23
-59.52
-69.30
-77.92
-83.31
-83.60
-77.84
-66.39
-50.92
-33.74
-17.07
-2.36
9.94
20.10
28.67
36.00
42.11
46.83
49.98
51.60
51.93
51.30
50.04
48.32
46.22
43.75
40.95
37.93
34.91
32.13
29.77
27.82
26.03
23.88
20.80
16.38
10.58
3.75
-3.46
-10.38
-16.61
-22.07
-27.02
-31.97
-37.49
-44.07
-51.96
-61.03
-70.57
-79.27
-85.39
-87.17
-83.44
-74.04
-59.99
-43.17
-25.75
-9.50
4.48
15.92
25.07
32.31
37.99
42.25
45.21
46.98
47.80
47.95
47.73
47.29
46.65
45.70
44.27
42.31
39.95
37.50
35.34
33.66
32.31
30.77
28.37
24.56
19.19
12.61
5.49
-1.38
-7.45
-12.56
-16.99
-21.28
-26.11
-32.12
-39.62
-48.53
-58.15
-67.18
-73.94
-76.79
-74.63
-67.24
-55.45
-40.85
-25.36
-10.66
2.12
12.57
20.79
27.15
32.02
35.61
38.03
39.30
39.59
39.17
38.42
37.65
36.98
36.30
35.35
33.95
32.08
29.96
27.95
26.26
24.79
23.13
20.67
16.88
11.63
5.26
-1.59
-8.17
-14.00
-19.04
-23.68
-28.63
-34.62
-42.11
-51.05
-60.72
-69.72
-76.33
-78.87
-76.22
-68.21
-55.69
-40.34
-24.12
-8.84
4.27
14.64
22.32
27.72
31.40
33.85
35.47
36.49
37.03
37.15
36.86
36.09
34.80
32.97
30.72
28.30
26.09
24.38
23.25
22.44
21.39
19.44
16.09
11.20
5.03
-1.87
-8.85
-15.33
-21.01
-25.91
-30.48
-35.42
-41.54
-49.29
-58.44
-67.87
-75.67
-79.74
-78.44
-71.23
-58.93
-43.40
-26.84
-11.13
2.62
14.11
23.56
31.33
37.66
42.61
46.15
48.33
49.33
49.41
48.84
47.73
46.08
43.80
40.85
37.30
33.49
29.82
26.69
24.24
22.28
20.36
17.91
14.48
9.84
4.16
-2.16
-8.59
-14.71
-20.34
-25.60
-30.89
-36.81
-43.93
-52.58
-62.54
-72.90
-82.02
-87.92
-88.83
-83.80
-73.12
-58.24
-41.30
-24.47
-9.33
3.45
13.92
22.59
29.91
36.13
41.27
45.19
47.81
49.20
49.59
49.24
48.39
47.11
45.35
43.00
40.07
36.74
33.34
30.26
27.65
25.37
22.97
19.85
15.54
9.93
3.31
-3.65
-10.21
-15.83
-20.36
-24.09
-27.68
-31.88
-37.39
-44.64
-53.55
-63.42
-72.91
-80.18
-83.42
-81.32
-73.60
-61.14
-45.70
-29.38
-13.99
-0.60
10.47
19.50
26.95
33.23
38.49
42.70
45.75
47.63
48.53
48.78
48.78
48.77
48.70
48.32
47.26
45.38
42.79
39.94
37.33
35.23
33.51
31.62
28.87
24.75
19.13
12.29
4.84
-2.55
-9.36
-15.37
-20.64
-25.54
-30.66
-36.65
-44.05
-52.93
-62.66
-71.85
-78.57
-80.93
-77.74
-68.90
-55.51
-39.52
-23.07
-7.91
4.97
15.38
23.61
30.14
35.32
39.25
41.86
43.12
43.17
42.43
41.42
40.55
39.92
39.29
38.22
36.33
33.63
30.47
27.43
24.93
22.99
21.11
18.53
14.56
8.99
2.16
-5.14
-12.01
-17.88
-22.69
-26.91
-31.32
-36.72
-43.63
-52.12
-61.62
-71.01
-78.69
-82.97
-82.47
-76.56
-65.64
-51.05
-34.70
-18.54
-3.98
8.28
18.21
26.17
32.62
37.88
42.14
45.46
47.93
49.63
50.63
50.97
50.60
49.46
47.53
44.99
42.12
39.32
36.95
35.11
33.64
32.09
29.86
26.42
21.49
15.17
7.89
0.27
-7.11
-13.87
-19.94
-25.55
-31.19
-37.49
-44.98
-53.81
-63.52
-72.87
-80.05
-83.16
-80.82
-72.72
-59.78
-43.85
-27.15
-11.59
1.66
12.23
20.37
26.56
31.27
34.81
37.37
39.08
40.12
40.69
40.96
41.01
40.74
39.99
38.64
36.75
34.55
32.31
30.18
28.01
25.42
22.00
17.47
11.83
5.38
-1.47
-8.33
-14.96
-21.30
-27.49
-33.78
-40.58
-48.26
-56.99
-66.43
-75.60
-82.91
-86.59
-85.22
-78.28
-66.39
-51.13
-34.53
-18.52
-4.46
7.03
15.98
22.80
28.03
32.15
35.40
37.85
39.39
39.91
39.44
38.14
36.33
34.31
32.29
30.38
28.56
26.78
24.97
23.03
20.81
18.13
14.79
10.73
6.02
0.88
-4.38
-9.58
-14.75
-20.25
-26.60
-34.25
-43.21
-52.71
-61.29
-67.04
-68.22
-63.86
-54.14
-40.37
-24.49
-8.59
5.76
17.75
27.30
34.81
40.81
45.72
49.67
52.64
54.44
54.92
53.99
51.71
48.30
44.06
39.43
34.84
30.71
27.25
24.43
21.92
19.23
15.90
11.68
6.63
1.13
-4.45
-9.82
-14.97
-20.17
-25.86
-32.52
-40.44
-49.51
-59.01
-67.53
-73.29
-74.49
-70.01
-59.85
-45.22
-28.23
-11.20
4.06
16.61
26.48
34.26
40.68
46.21
50.92
54.58
56.84
57.46
56.40
53.87
50.22
45.80
40.95
35.99
31.21
26.91
23.35
20.59
18.43
16.32
13.62
9.74
4.44
-2.02
-9.00
-15.70
-21.60
-26.59
-31.08
-35.88
-41.82
-49.48
-58.83
-69.07
-78.60
-85.38
-87.44
-83.51
-73.47
-58.49
-40.60
-22.07
-4.77
10.22
22.68
32.87
41.26
48.21
53.85
58.22
61.31
63.09
63.57
62.83
61.01
58.32
54.99
51.25
47.32
43.40
39.66
36.25
33.21
30.45
27.67
24.49
20.43
15.24
8.94
1.85
-5.50
-12.55
-18.90
-24.36
-29.05
-33.33
-37.69
-42.74
-48.97
-56.56
-65.17
-73.76
-80.72
-84.28
-83.00
-76.27
-64.56
-49.29
-32.40
-15.81
-0.96
11.41
21.29
29.17
35.67
41.30
46.25
50.40
53.50
55.32
55.86
55.35
54.15
52.60
50.84
48.87
46.62
44.07
41.35
38.68
36.21
33.89
31.44
28.42
24.44
19.31
13.16
6.34
-0.67
-7.44
-13.69
-19.24
-24.10
-28.40
-32.50
-36.94
-42.32
-49.10
-57.21
-65.84
-73.46
-78.16
-78.23
-72.72
-61.80
-46.73
-29.41
-11.82
4.50
18.68
30.54
40.32
48.36
54.92
60.08
63.86
66.25
67.39
67.55
67.13
66.60
66.34
66.61
67.45
68.81
70.53
72.44
74.47
76.52
78.48
80.14
81.19
81.29
80.15
77.60
73.73
68.82
63.37
57.95
53.03
48.84
45.28
41.91
38.09
33.15
26.57
18.09
7.77
-3.91
-16.06
-27.49
-36.86
-43.04
-45.42
-44.09
-39.80
-33.68
-26.89
-20.32
-14.38
-9.13
-4.45
-0.23
3.48
6.46
8.45
9.31
9.14
8.27
7.03
5.69
4.29
2.71
0.84
-1.31
-3.63
-5.94
-8.17
-10.41
-12.84
-15.69
-19.08
-23.03
-27.51
-32.41
-37.65
-43.05
-48.41
-53.45
-57.86
-61.47
-64.26
-66.53
-68.81
-71.79
-76.08
-81.84
-88.52
-94.88
-99.18
-99.74
-95.55
-86.63
-74.15
-60.01
-46.26
-34.48
-25.44
-19.11
-14.91
-12.16
-10.34
-9.21
-8.77
-9.00
-9.78
-10.82
-11.81
-12.50
-12.91
-13.18
-13.48
-13.92
-14.37
-14.61
-14.43
-13.76
-12.84
-12.11
-12.06
-13.09
-15.33
-18.61
-22.43
-26.18
-29.27
-31.37
-32.56
-33.27
-34.15
-35.78
-38.46
-42.07
-46.11
-49.79
-52.16
-52.29
-49.46
-43.31
-34.07
-22.55
-10.01
2.09
12.55
20.64
26.24
29.66
31.37
31.83
31.38
30.23
28.60
26.77
25.06
23.74
22.92
22.50
22.23
21.83
21.10
20.02
18.72
17.38
16.09
14.77
13.18
10.99
8.06
4.48
0.58
-3.14
-6.30
-8.82
-10.95
-13.18
-16.10
-20.10
-25.26
-31.19
-37.02
-41.59
-43.69
-42.40
-37.51
-29.56
-19.67
-9.24
0.56
8.98
15.76
20.93
24.63
26.96
27.96
27.72
26.48
24.58
22.44
20.40
18.64
17.21
16.03
14.97
13.97
13.01
12.15
11.46
10.93
10.47
9.86
8.79
6.94
4.10
0.29
-4.24
-8.99
-13.39
-17.06
-19.91
-22.25
-24.64
-27.64
-31.61
-36.38
-41.30
-45.28
-47.08
-45.72
-40.73
-32.36
-21.57
-9.73
1.71
11.65
19.47
25.06
28.69
30.76
31.64
31.65
31.03
29.96
28.62
27.14
25.56
23.94
22.26
20.53
18.78
17.08
15.55
14.31
13.42
12.78
12.18
11.24
9.61
7.01
3.44
-0.84
-5.38
-9.72
-13.53
-16.73
-19.53
-22.30
-25.51
-29.53
-34.48
-40.15
-45.88
-50.66
-53.31
-52.78
-48.52
-40.71
-30.22
-18.38
-6.60
3.96
12.61
19.19
23.89
27.03
28.94
29.85
29.95
29.42
28.56
27.61
26.78
26.12
25.50
24.69
23.47
21.80
19.83
17.89
16.30
15.18
14.37
13.45
11.90
9.34
5.63
0.98
-4.15
-9.24
-13.88
-17.90
-21.37
-24.58
-27.96
-31.92
-36.74
-42.35
-48.19
-53.18
-55.98
-55.35
-50.64
-42.02
-30.53
-17.72
-5.20
5.84
14.78
21.55
26.38
29.51
31.12
31.36
30.41
28.63
26.50
24.48
22.91
21.87
21.18
20.59
19.85
18.85
17.66
16.45
15.32
14.24
13.04
11.42
9.18
6.22
2.68
-1.11
-4.78
-8.06
-10.94
-13.67
-16.70
-20.53
-25.48
-31.59
-38.43
-45.10
-50.34
-52.79
-51.37
-45.65
-36.00
-23.59
-10.06
2.90
14.01
22.56
28.45
32.00
33.67
33.94
33.25
31.91
30.19
28.30
26.38
24.47
22.53
20.42
18.08
15.54
12.99
10.69
8.83
7.44
6.26
4.82
2.55
-0.92
-5.63
-11.23
-17.12
-22.64
-27.36
-31.27
-34.72
-38.39
-42.91
-48.67
-55.48
-62.47
-68.25
-71.22
-70.09
-64.29
-54.20
-41.01
-26.43
-12.11
0.63
11.07
19.06
24.83
28.79
31.38
32.94
33.79
34.10
33.97
33.40
32.31
30.62
28.27
25.32
22.02
18.78
16.03
14.10
12.99
12.30
11.41
9.63
6.57
2.22
-3.01
-8.56
-13.89
-18.68
-22.92
-26.91
-31.07
-35.92
-41.81
-48.72
-56.05
-62.52
-66.42
-66.04
-60.19
-48.70
-32.53
-13.52
6.11
24.32
39.76
51.94
61.15
68.17
73.83
78.77
83.25
87.32
90.86
93.82
96.26
98.34
100.30
102.50
105.41
109.67
115.74
123.50
131.96
139.31
143.37
142.39
135.70
123.95
108.87
92.49
76.54
62.08
49.48
38.72
29.59
21.85
15.08
8.75
2.22
-4.91
-12.63
-20.38
-27.26
-32.29
-34.83
-34.83
-32.87
-29.92
-26.95
-24.62
-23.13
-22.18
-21.23
-19.66
-17.11
-13.59
-9.62
-6.07
-3.98
-4.21
-7.09
-12.32
-19.06
-26.12
-32.43
-37.27
-40.45
-42.32
-43.69
-45.71
-49.67
-56.69
-67.19
-80.58
-95.26
-109.16
-120.45
-128.36
-133.33
-136.67
-139.86
-143.89
-148.86
-154.16
-158.78
-161.66
-161.90
-158.96
-152.73
-143.65
-132.70
-121.30
-110.87
-102.54
-96.89
-94.01
-93.65
-95.33
-98.37
-101.96
-105.17
-107.28
-107.98
-107.51
-106.51
-105.63
-105.23
-105.26
-105.25
-104.74
-103.48
-101.61
-99.39
-97.01
-94.32
-90.94
-86.53
-81.09
-75.05
-69.09
-63.67
-58.69
-53.44
-46.81
-37.85
-26.16
-12.13
3.33
19.24
34.90
50.13
65.04
79.77
94.11
107.41
118.78
127.35
132.70
135.10
135.34
134.55
133.78
133.70
134.36
135.37
135.99
135.48
133.47
130.11
126.02
122.04
118.78
116.26
113.86
110.57
105.41
97.97
88.51
78.00
67.87
59.64
54.68
53.96
57.86
65.99
77.24
89.91
102.26
112.93
121.33
127.62
132.46
136.48
139.89
142.47
143.57
142.50
138.71
131.88
121.87
108.72
92.72
74.49
55.12
35.97
18.47
3.70
-7.89
-16.46
-22.73
-27.73
-32.68
-38.83
-47.38
-59.17
-74.40
-92.34
-111.29
-128.85
-142.44
-149.85
-149.72
-141.62
-125.95
-103.73
-76.41
-45.82
-14.07
16.53
43.86
66.57
84.38
98.10
109.21
119.12
128.60
137.43
144.62
148.93
149.39
145.77
138.68
129.41
119.63
110.80
103.65
97.95
92.56
86.01
77.30
66.50
54.77
43.85
35.06
28.60
23.42
17.89
10.71
1.76
-7.67
-15.56
-20.05
-20.39
-17.28
-12.53
-8.34
-6.58
-8.32
-13.69
-22.09
-32.28
-42.63
-51.42
-57.23
-59.50
-58.84
-56.88
-55.66
-56.75
-60.61
-66.51
-72.98
-78.61
-82.72
-85.49
-87.63
-89.88
-92.60
-95.60
-98.51
-101.00
-103.06
-105.00
-107.22
-110.12
-113.87
-118.38
-123.16
-127.25
-129.21
-127.37
-120.21
-106.89
-87.74
-64.33
-39.17
-15.01
5.87
22.12
33.51
40.57
44.30
45.63
45.32
43.91
41.80
39.43
37.14
35.24
33.77
32.63
31.62
30.63
29.68
28.86
28.20
27.49
26.35
24.36
21.29
17.24
12.61
7.93
3.47
-0.83
-5.47
-11.23
-18.90
-28.78
-40.42
-52.30
-62.06
-67.09
-65.37
-56.23
-40.68
-21.19
-0.84
17.62
32.44
43.10
50.04
54.12
56.25
57.07
57.02
56.42
55.50
54.35
52.99
51.29
49.19
46.69
44.02
41.49
39.39
37.85
36.69
35.61
34.19
32.20
29.52
26.22
22.36
17.90
12.70
6.54
-0.76
-9.26
-18.79
-28.83
-38.36
-45.99
-50.07
-49.17
-42.53
-30.44
-14.24
3.92
21.68
37.03
48.71
56.23
59.82
60.15
58.19
55.07
51.81
49.17
47.46
46.44
45.50
43.92
41.22
37.33
32.68
27.92
23.66
20.22
17.52
14.95
11.48
5.80
-3.29
-16.38
-33.22
-52.57
-72.59
-91.42
-107.90
-121.91
-134.16
-145.43
-155.80
-164.18
-168.53
-166.66
-157.28
-140.64
-118.64
-94.17
-70.17
-48.68
-30.42
-15.02
-1.54
10.65
21.67
31.04
38.18
42.77
44.96
45.18
43.93
41.51
38.09
33.90
29.45
25.48
22.54
20.73
19.57
18.25
16.17
13.15
9.57
5.94
2.51
-0.93
-4.94
-10.20
-17.22
-26.03
-36.21
-46.76
-56.24
-62.89
-65.03
-61.42
-51.70
-36.54
-17.48
3.37
23.83
42.09
56.99
68.18
76.06
81.49
85.44
88.68
91.45
93.42
93.94
92.24
87.84
80.71
71.28
60.39
49.00
38.01
27.96
19.07
11.19
4.04
-2.63
-8.88
-14.67
-19.85
-24.36
-28.30
-31.94
-35.68
-39.95
-45.05
-51.07
-57.63
-63.77
-68.00
-68.62
-64.16
-53.95
-38.34
-18.76
2.62
23.44
41.65
55.95
65.92
71.92
74.80
75.56
75.07
74.02
72.90
71.94
71.11
70.09
68.32
65.33
61.08
56.19
51.71
48.74
47.65
47.80
47.72
45.78
40.99
33.45
24.29
15.15
7.68
3.10
2.07
4.56
9.77
16.17
21.85
25.14
25.26
22.89
19.90
18.58
20.50
25.68
32.60
38.89
42.49
42.40
38.88
32.85
25.18
16.22
5.83
-6.04
-18.89
-31.45
-42.15
-49.72
-53.83
-55.17
-55.11
-55.01
-55.75
-57.61
-60.48
-64.04
-67.94
-71.56
-73.93
-73.89
-70.53
-63.79
-54.85
-45.88
-39.41
-37.50
-41.14
-50.12
-63.17
-78.11
-92.11
-101.86
-104.12
-96.55
-78.75
-52.74
-22.76
5.74
27.72
39.94
41.72
34.86
22.92
9.96
-0.46
-6.02
-5.96
-0.85
7.80
18.13
28.42
37.42
44.45
49.45
52.76
54.98
56.70
58.33
59.95
61.47
62.60
63.10
62.76
61.47
59.17
55.99
52.11
47.85
43.51
39.28
35.20
31.17
27.15
23.23
19.72
16.92
14.92
13.45
11.91
9.65
6.36
2.30
-1.79
-4.96
-6.57
-6.61
-5.81
-5.25
-5.97
-8.39
-12.12
-16.05
-18.80
-19.12
-16.31
-10.39
-2.03
7.70
17.55
26.21
32.23
34.07
30.17
19.48
2.07
-20.55
-45.56
-69.58
-89.76
-104.53
-113.79
-118.39
-119.21
-116.62
-110.54
-100.94
-88.60
-75.19
-62.84
-53.23
-46.85
-42.97
-40.10
-36.85
-32.56
-27.39
-22.02
-17.04
-12.67
-8.74
-5.02
-1.43
1.77
4.22
5.66
6.12
5.96
5.67
5.66
6.11
6.97
7.94
8.76
9.28
9.56
9.75
9.97
10.10
9.78
8.47
5.77
1.66
-3.36
-8.33
-12.11
-13.74
-12.77
-9.32
-4.03
2.16
8.29
13.56
17.45
19.83
20.85
20.87
20.41
19.92
19.62
19.42
18.95
17.69
15.31
11.80
7.59
3.31
-0.42
-3.29
-5.44
-7.34
-9.58
-12.65
-16.69
-21.51
-26.63
-31.48
-35.66
-39.06
-41.97
-44.90
-48.41
-52.75
-57.82
-63.04
-67.44
-69.80
-68.82
-63.41
-52.98
-37.87
-19.33
0.54
19.39
35.18
46.75
53.93
57.33
57.88
56.51
53.90
50.52
46.73
42.83
39.00
35.39
32.05
28.93
25.93
22.89
19.69
16.23
12.58
8.87
5.27
1.86
-1.48
-5.03
-9.11
-13.87
-19.20
-24.64
-29.59
-33.39
-35.48
-35.44
-32.96
-27.94
-20.48
-11.02
-0.36
10.44
20.23
28.12
33.60
36.68
37.73
37.27
35.79
33.58
30.78
27.43
23.63
19.57
15.52
11.72
8.30
5.15
2.06
-1.27
-5.05
-9.23
-13.56
-17.62
-21.09
-23.84
-26.10
-28.29
-30.87
-34.15
-38.09
-42.29
-46.08
-48.68
-49.31
-47.28
-42.12
-33.71
-22.52
-9.60
3.51
15.23
24.35
30.40
33.72
35.07
35.35
35.07
34.40
33.18
31.25
28.65
25.63
22.55
19.71
17.22
14.88
12.36
9.35
5.73
1.65
-2.59
-6.66
-10.37
-13.70
-16.84
-20.02
-23.49
-27.50
-32.16
-37.47
-43.14
-48.55
-52.67
-54.27
-52.17
-45.66
-34.86
-20.82
-5.33
9.62
22.38
32.05
38.56
42.49
44.57
45.41
45.31
44.36
42.60
40.16
37.27
34.13
30.84
27.47
24.07
20.77
17.71
14.96
12.40
9.71
6.51
2.55
-2.08
-7.04
-11.85
-16.17
-19.97
-23.54
-27.46
-32.23
-38.10
-44.88
-51.88
-57.98
-61.70
-61.59
-56.54
-46.29
-31.63
-14.39
3.09
18.56
30.54
38.61
43.24
45.34
45.78
45.14
43.65
41.47
38.75
35.78
32.80
29.90
27.07
24.20
21.29
18.39
15.66
13.23
11.07
8.97
6.57
3.51
-0.43
-5.24
-10.56
-15.86
-20.55
-24.30
-27.15
-29.59
-32.37
-36.20
-41.44
-47.84
-54.44
-59.73
-61.99
-59.68
-52.08
-39.51
-23.45
-6.12
10.12
23.50
33.21
39.41
42.96
44.76
45.43
45.22
44.16
42.26
39.79
37.09
34.52
32.15
29.82
27.22
24.15
20.64
17.02
13.74
11.08
9.05
7.33
5.33
2.56
-1.24
-5.91
-10.96
-15.76
-19.78
-22.85
-25.21
-27.43
-30.24
-34.22
-39.63
-46.17
-53.00
-58.77
-61.86
-60.74
-54.50
-43.23
-28.16
-11.39
4.74
18.33
28.37
34.90
38.63
40.40
40.82
40.21
38.73
36.65
34.40
32.41
30.89
29.61
28.11
25.91
22.83
19.14
15.46
12.43
10.45
9.42
8.82
7.85
5.85
2.39
-2.42
-8.00
-13.53
-18.19
-21.59
-23.88
-25.74
-28.07
-31.66
-36.81
-43.22
-49.99
-55.73
-58.79
-57.69
-51.53
-40.37
-25.48
-9.04
6.46
18.99
27.55
32.42
34.62
35.39
35.59
35.48
34.96
33.84
32.23
30.49
29.04
28.08
27.42
26.63
25.21
22.94
20.02
16.97
14.32
12.32
10.71
8.85
6.03
1.85
-3.47
-9.25
-14.59
-18.86
-22.01
-24.51
-27.21
-30.86
-35.89
-42.18
-49.24
-56.12
-61.63
-64.33
-62.79
-56.07
-44.15
-28.22
-10.53
6.28
20.06
29.81
35.85
39.28
41.32
42.65
43.33
43.01
41.49
39.00
36.09
33.43
31.41
29.98
28.71
27.16
25.02
22.30
19.30
16.39
13.89
11.88
10.13
8.24
5.72
2.28
-2.14
-7.22
-12.39
-17.02
-20.68
-23.36
-25.48
-27.78
-31.05
-35.83
-42.20
-49.73
-57.49
-64.12
-68.03
-67.70
-62.15
-51.29
-36.16
-18.77
-1.58
13.23
24.43
31.91
36.49
39.31
41.28
42.79
43.72
43.80
42.84
40.97
38.54
35.97
33.54
31.30
29.16
26.91
24.48
21.92
19.42
17.19
15.30
13.64
11.92
9.77
6.86
3.05
-1.57
-6.67
-11.81
-16.54
-20.59
-23.89
-26.65
-29.24
-32.10
-35.65
-40.19
-45.77
-52.09
-58.32
-63.16
-64.93
-62.13
-53.96
-40.75
-24.13
-6.51
9.60
22.43
31.34
36.81
39.85
41.45
42.18
42.11
41.12
39.19
36.59
33.79
31.32
29.50
28.32
27.50
26.59
25.20
23.17
20.58
17.72
14.94
12.41
10.13
7.84
5.19
1.92
-2.02
-6.43
-10.93
-15.07
-18.55
-21.33
-23.61
-25.84
-28.52
-32.05
-36.62
-42.09
-47.99
-53.50
-57.48
-58.63
-55.74
-48.10
-35.91
-20.41
-3.72
11.80
24.26
32.78
37.62
39.82
40.61
40.84
40.77
40.23
38.97
37.00
34.62
32.29
30.37
28.90
27.62
26.11
24.10
21.58
18.80
16.13
13.86
11.94
10.02
7.60
4.21
-0.35
-5.94
-12.05
-18.00
-23.15
-27.18
-30.14
-32.46
-34.85
-37.98
-42.32
-47.95
-54.49
-61.07
-66.43
-69.06
-67.51
-60.81
-48.93
-33.02
-15.25
1.79
15.92
25.94
31.98
35.06
36.39
36.88
36.81
36.04
34.36
31.78
28.63
25.29
21.99
18.67
15.04
10.73
5.57
-0.32
-6.52
-12.52
-17.97
-22.95
-27.92
-33.59
-40.53
-48.91
-58.37
-68.25
-78.04
-87.64
-97.53
-108.33
-120.48
-133.85
-147.75
-161.11
-172.68
-181.15
-185.10
-183.19
-174.35
-158.29
-135.86
-109.07
-80.69
-53.46
-29.33
-9.00
7.94
22.52
35.73
48.09
59.47
69.35
77.17
82.74
86.41
89.00
91.48
94.61
98.65
103.35
107.98
111.60
113.28
112.41
108.76
102.55
94.30
84.65
74.12
63.01
51.51
39.79
28.16
17.13
7.23
-1.27
-8.59
-15.54
-23.33
-33.27
-46.36
-62.66
-81.05
-99.12
-113.69
-121.88
-122.10
-114.80
-102.24
-87.68
-74.03
-62.91
-54.24
-46.82
-39.26
-30.80
-21.63
-12.58
-4.46
2.50
8.77
15.24
22.79
31.93
42.67
54.69
67.61
81.10
94.82
108.32
120.88
131.60
139.62
144.25
145.01
141.63
134.05
122.53
107.85
91.35
74.66
59.26
45.95
34.58
24.16
13.46
1.46
-12.30
-27.68
-44.09
-60.59
-75.90
-88.40
-96.27
-97.88
-92.34
-79.89
-61.90
-40.56
-18.22
3.20
22.53
39.35
53.72
65.87
76.04
84.43
91.11
96.15
99.50
101.10
100.95
99.20
96.15
92.25
87.91
83.31
78.28
72.22
64.39
54.19
41.46
26.76
11.26
-3.55
-16.37
-26.46
-33.87
-39.37
-44.12
-49.30
-55.56
-62.74
-69.81
-75.01
-76.35
-72.25
-62.18
-46.87
-28.22
-8.66
9.53
24.77
36.48
44.83
50.43
53.96
55.99
56.89
56.99
56.52
55.62
54.31
52.48
49.98
46.69
42.66
38.18
33.82
30.17
27.67
26.38
25.82
25.08
23.14
19.23
13.14
5.42
-2.89
-10.67
-17.05
-21.80
-25.29
-28.38
-32.07
-37.32
-44.74
-54.36
-65.37
-75.95
-83.64
-85.90
-81.10
-69.29
-52.34
-33.31
-15.29
-0.41
10.70
18.63
24.40
28.82
32.13
34.17
34.82
34.26
32.96
31.49
30.21
29.23
28.39
27.44
26.17
24.55
22.66
20.65
18.54
16.14
13.03
8.69
2.80
-4.48
-12.54
-20.49
-27.52
-33.36
-38.41
-43.65
-50.27
-59.16
-70.44
-83.29
-95.87
-105.75
-110.50
-108.50
-99.44
-84.53
-66.10
-46.81
-28.91
-13.64
-1.24
8.74
16.93
23.78
29.48
34.06
37.53
39.96
41.48
42.21
42.18
41.38
39.86
37.78
35.40
33.14
31.36
30.28
29.87
29.77
29.36
27.88
24.78
19.85
13.42
6.23
-0.82
-7.00
-12.04
-16.26
-20.45
-25.62
-32.58
-41.59
-52.05
-62.46
-70.66
-74.32
-71.75
-62.47
-47.43
-28.79
-9.21
9.02
24.44
36.65
46.05
53.39
59.30
64.15
68.04
70.91
72.74
73.55
73.46
72.55
70.83
68.26
64.81
60.57
55.80
50.95
46.57
43.03
40.33
37.99
35.16
30.97
24.89
16.97
7.91
-1.28
-9.62
-16.59
-22.28
-27.27
-32.39
-38.50
-46.18
-55.60
-66.35
-77.25
-86.47
-91.81
-91.36
-84.22
-70.87
-53.08
-33.38
-14.22
2.64
16.45
27.26
35.50
41.67
46.12
49.12
50.94
51.89
52.23
52.01
51.11
49.36
46.68
43.24
39.50
36.00
33.16
31.11
29.57
27.97
25.72
22.33
17.61
11.74
5.19
-1.46
-7.66
-13.15
-18.08
-22.97
-28.64
-35.82
-44.83
-55.23
-65.74
-74.34
-78.90
-77.72
-70.22
-57.13
-40.33
-22.22
-5.05
9.65
21.28
30.04
36.52
41.38
45.12
47.98
50.02
51.22
51.54
51.05
49.78
47.82
45.28
42.27
38.99
35.69
32.58
29.75
27.10
24.28
20.87
16.45
10.85
4.22
-3.06
-10.47
-17.56
-24.11
-30.25
-36.44
-43.45
-51.95
-62.13
-73.32
-83.83
-91.23
-93.10
-87.97
-75.85
-58.44
-38.51
-18.94
-1.89
11.72
22.08
30.02
36.39
41.69
46.04
49.33
51.45
52.49
52.64
52.14
51.09
49.44
47.06
43.94
40.31
36.69
33.73
31.85
30.99
30.49
29.26
26.31
21.16
14.06
5.94
-2.02
-8.92
-14.45
-18.97
-23.31
-28.40
-35.04
-43.64
-54.10
-65.62
-76.65
-84.99
-88.38
-85.16
-74.99
-59.11
-39.98
-20.51
-3.06
11.13
22.06
30.45
37.16
42.73
47.24
50.50
52.38
52.93
52.46
51.36
49.94
48.32
46.45
44.24
41.69
38.93
36.22
33.85
31.95
30.37
28.68
26.26
22.50
17.14
10.35
2.73
-4.96
-12.06
-18.27
-23.76
-28.99
-34.58
-41.08
-48.91
-58.14
-68.28
-78.10
-85.69
-88.86
-85.88
-76.23
-60.97
-42.44
-23.46
-6.41
7.47
18.11
26.21
32.62
37.89
42.18
45.43
47.61
48.83
49.34
49.39
49.05
48.26
46.81
44.55
41.58
38.20
34.94
32.27
30.49
29.45
28.63
27.24
24.53
20.10
14.05
6.95
-0.42
-7.35
-13.46
-18.76
-23.54
-28.22
-33.26
-39.12
-46.18
-54.63
-64.09
-73.45
-80.78
-83.92
-81.19
-72.09
-57.69
-40.22
-22.32
-6.17
7.04
17.18
24.73
30.33
34.42
37.23
38.85
39.44
39.28
38.70
38.00
37.28
36.46
35.31
33.62
31.33
28.61
25.83
23.43
21.68
20.52
19.50
17.95
15.18
10.88
5.19
-1.34
-7.91
-13.85
-18.81
-22.90
-26.68
-30.90
-36.36
-43.55
-52.50
-62.43
-71.87
-78.79
-81.16
-77.65
-68.04
-53.50
-36.13
-18.39
-2.34
10.77
20.63
27.53
32.04
34.72
35.99
36.22
35.75
34.91
34.01
33.16
32.32
31.29
29.86
27.92
25.56
23.09
20.88
19.20
17.98
16.84
15.18
12.44
8.36
3.13
-2.69
-8.44
-13.63
-18.23
-22.62
-27.50
-33.60
-41.43
-50.98
-61.53
-71.65
-79.38
-82.69
-80.15
-71.41
-57.51
-40.53
-22.97
-7.00
6.08
16.02
23.27
28.59
32.60
35.63
37.81
39.20
39.94
40.22
40.18
39.81
38.97
37.50
35.28
32.49
29.52
26.86
24.88
23.65
22.82
21.73
19.68
16.10
10.86
4.32
-2.80
-9.63
-15.51
-20.23
-24.10
-27.78
-32.16
-38.00
-45.76
-55.31
-65.78
-75.48
-82.25
-83.97
-79.26
-68.12
-52.03
-33.51
-15.33
0.39
12.69
21.66
28.06
32.74
36.32
39.06
41.09
42.49
43.39
43.93
44.14
43.94
43.15
41.61
39.33
36.55
33.71
31.30
29.70
28.92
28.53
27.77
25.78
21.99
16.34
9.34
1.87
-5.21
-11.31
-16.37
-20.75
-25.10
-30.12
-36.44
-44.32
-53.57
-63.28
-71.93
-77.61
-78.58
-73.86
-63.65
-49.38
-33.18
-17.31
-3.40
7.79
16.33
22.77
27.73
31.67
34.77
37.05
38.54
39.33
39.56
39.36
38.82
37.93
36.62
34.91
32.91
30.90
29.23
28.15
27.59
27.17
26.21
24.01
20.14
14.55
7.68
0.24
-7.04
-13.62
-19.31
-24.30
-29.02
-34.04
-39.89
-46.92
-55.10
-63.81
-71.78
-77.31
-78.69
-74.73
-65.27
-51.34
-34.87
-18.13
-3.04
9.30
18.69
25.52
30.43
33.92
36.28
37.65
38.18
38.11
37.69
37.14
36.47
35.62
34.40
32.70
30.54
28.09
25.62
23.34
21.35
19.54
17.59
15.09
11.67
7.17
1.75
-4.17
-9.97
-15.16
-19.52
-23.25
-26.91
-31.21
-36.77
-43.89
-52.25
-60.89
-68.28
-72.65
-72.54
-67.23
-57.05
-43.34
-28.02
-13.04
0.14
10.78
18.81
24.61
28.64
31.31
32.90
33.64
33.78
33.58
33.26
32.95
32.56
31.87
30.61
28.72
26.41
24.11
22.28
21.10
20.31
19.25
17.15
13.48
8.27
2.04
-4.34
-10.10
-14.82
-18.62
-22.04
-25.81
-30.62
-36.88
-44.62
-53.30
-61.69
-68.10
-70.65
-67.93
-59.57
-46.52
-30.77
-14.73
-0.43
11.00
19.39
25.21
29.07
31.39
32.38
32.18
31.06
29.46
27.88
26.62
25.66
24.66
23.17
20.92
18.00
14.89
12.18
10.26
9.04
7.98
6.32
3.47
-0.70
-5.81
-11.18
-16.17
-20.43
-24.04
-27.40
-31.06
-35.59
-41.43
-48.56
-56.41
-63.70
-68.58
-69.12
-63.93
-52.77
-36.75
-17.99
1.07
18.51
33.42
45.91
56.62
66.26
75.16
83.27
90.33
96.23
101.14
105.53
109.92
114.53
119.05
122.52
123.53
120.74
113.50
102.23
88.45
74.32
61.75
51.82
44.54
39.16
34.78
30.75
26.73
22.44
17.41
11.21
3.84
-3.86
-10.34
-14.00
-14.24
-12.06
-9.80
-9.98
-14.14
-22.02
-31.93
-41.84
-50.51
-58.01
-65.22
-72.78
-80.23
-86.00
-88.34
-86.42
-81.00
-74.17
-68.26
-64.74
-63.76
-64.44
-65.71
-66.98
-68.36
-70.14
-72.25
-73.88
-73.70
-70.56
-64.06
-54.90
-44.65
-35.16
-27.86
-23.27
-20.93
-19.72
-18.49
-16.54
-13.88
-11.16
-9.23
-8.72
-9.67
-11.43
-12.87
-12.80
-10.27
-4.94
2.89
12.37
22.27
31.24
38.00
41.64
41.75
38.43
32.22
23.83
13.93
2.97
-8.83
-21.33
-34.21
-46.91
-58.63
-68.49
-75.79
-80.14
-81.57
-80.56
-77.97
-74.88
-72.39
-71.41
-72.43
-75.52
-80.24
-85.87
-91.74
-97.50
-103.36
-109.99
-118.20
-128.37
-139.88
-151.03
-159.36
-162.33
-158.08
-146.01
-126.76
-101.95
-73.74
-44.46
-16.27
9.12
30.79
48.77
63.80
76.81
88.23
97.62
103.72
105.26
101.80
94.42
85.76
79.32
78.41
85.08
99.59
120.30
144.21
167.54
186.59
198.41
201.38
195.53
182.51
165.21
147.01
130.90
118.56
109.86
102.93
94.89
82.96
65.63
43.31
18.30
-5.98
-26.28
-40.49
-48.23
-50.69
-49.92
-47.92
-45.97
-44.37
-42.65
-40.14
-36.36
-31.38
-25.76
-20.33
-15.96
-13.32
-12.72
-14.05
-16.81
-20.07
-22.71
-23.61
-22.04
-17.98
-12.27
-6.39
-1.84
0.49
0.88
0.57
1.00
3.01
6.27
9.34
10.47
8.42
3.01
-4.77
-13.20
-20.34
-24.40
-24.01
-18.48
-8.01
6.01
21.07
34.05
42.25
44.35
41.09
35.11
29.90
28.66
33.10
43.03
56.65
71.33
84.48
94.11
99.13
99.14
94.28
85.09
72.46
57.59
41.74
26.10
11.50
-1.54
-12.85
-22.43
-30.45
-37.17
-42.97
-48.21
-53.13
-57.67
-61.63
-64.74
-66.90
-68.21
-68.81
-68.66
-67.41
-64.55
-59.61
-52.56
-43.90
-34.52
-25.34
-16.96
-9.54
-2.91
3.09
8.40
12.61
15.17
15.56
13.64
9.84
5.23
1.31
-0.34
1.35
6.59
14.58
23.81
32.60
39.63
44.27
46.49
46.58
44.78
41.17
35.71
28.49
19.85
10.32
0.51
-9.10
-18.32
-27.22
-35.98
-44.64
-52.83
-59.57
-63.50
-63.22
-57.84
-47.42
-33.06
-16.56
0.25
16.08
30.50
43.75
56.42
68.89
81.02
92.18
101.43
107.80
110.69
110.00
106.28
100.49
93.60
86.13
77.82
67.83
55.27
39.93
22.59
4.87
-11.43
-24.95
-35.02
-41.46
-44.11
-42.56
-36.44
-25.90
-12.04
3.11
17.04
27.38
32.64
32.61
28.46
22.43
17.11
14.51
15.39
19.06
23.90
28.21
31.19
33.20
35.46
39.35
45.76
54.63
65.13
75.80
84.67
89.59
88.53
80.26
64.88
44.11
20.83
-1.75
-21.05
-35.76
-45.88
-52.26
-56.00
-58.05
-59.10
-59.63
-60.08
-60.79
-61.96
-63.61
-65.65
-67.88
-70.09
-71.96
-73.06
-72.87
-70.91
-66.96
-61.17
-54.03
-46.05
-37.56
-28.67
-19.41
-9.96
-0.67
8.14
16.45
24.65
33.25
42.46
51.77
60.05
66.04
68.99
68.98
66.75
63.11
58.53
53.03
46.50
39.19
31.82
25.44
20.89
18.35
17.35
17.01
16.48
15.26
13.31
10.83
8.08
5.21
2.22
-1.00
-4.60
-8.73
-13.43
-18.54
-23.82
-28.93
-33.51
-37.03
-38.90
-38.44
-35.31
-29.79
-22.93
-16.30
-11.47
-9.33
-9.89
-12.49
-16.26
-20.65
-25.44
-30.56
-35.68
-40.09
-42.86
-43.25
-41.01
-36.42
-30.04
-22.50
-14.38
-6.26
1.32
7.92
13.31
17.66
21.30
24.55
27.43
29.72
31.13
31.52
31.09
30.18
28.97
27.24
24.48
20.21
14.55
8.38
3.16
0.30
0.47
3.22
7.15
10.41
11.44
9.49
4.75
-1.86
-9.06
-15.61
-20.62
-23.61
-24.58
-23.96
-22.44
-20.85
-19.86
-19.93
-21.21
-23.58
-26.66
-29.98
-33.03
-35.36
-36.74
-37.18
-37.01
-36.74
-37.01
-38.39
-41.09
-44.87
-48.92
-52.06
-53.11
-51.34
-46.85
-40.47
-33.41
-26.77
-20.97
-15.79
-10.58
-4.81
1.60
8.09
13.78
17.77
19.56
19.09
16.66
12.77
7.85
2.25
-3.82
-10.03
-16.04
-21.43
-25.80
-28.97
-30.91
-31.80
-31.81
-31.11
-29.76
-27.80
-25.35
-22.51
-19.52
-16.64
-14.10
-12.11
-10.79
-10.13
-10.00
-10.13
-10.21
-10.06
-9.73
-9.46
-9.56
-10.20
-11.23
-12.13
-12.24
-11.01
-8.27
-4.30
0.25
4.68
8.42
11.15
12.88
13.73
13.95
13.75
13.32
12.82
12.34
11.92
11.51
11.04
10.36
9.41
8.19
6.79
5.39
4.17
3.21
2.43
1.64
0.59
-0.90
-2.86
-5.11
-7.36
-9.35
-10.92
-12.10
-13.05
-14.05
-15.38
-17.20
-19.52
-22.08
-24.33
-25.62
-25.33
-23.19
-19.38
-14.54
-9.45
-4.79
-0.87
2.36
5.17
7.81
10.31
12.45
13.94
14.60
14.48
13.81
12.86
11.81
10.70
9.48
8.13
6.73
5.52
4.71
4.39
4.44
4.50
4.22
3.36
1.94
0.20
-1.55
-3.04
-4.24
-5.28
-6.43
-8.01
-10.24
-13.13
-16.46
-19.75
-22.34
-23.54
-22.87
-20.25
-16.00
-10.84
-5.59
-0.96
2.63
5.11
6.70
7.76
8.60
9.45
10.34
11.14
11.65
11.68
11.11
9.98
8.51
6.97
5.65
4.76
4.34
4.30
4.38
4.26
3.67
2.48
0.76
-1.26
-3.25
-4.95
-6.28
-7.34
-8.37
-9.67
-11.40
-13.64
-16.28
-19.06
-21.61
-23.43
-24.04
-23.04
-20.26
-15.85
-10.30
-4.36
1.16
5.56
8.49
9.99
10.49
10.58
10.78
11.31
12.04
12.61
12.63
11.88
10.40
8.48
6.46
4.68
3.33
2.42
1.89
1.59
1.34
0.95
0.32
-0.63
-1.87
-3.32
-4.92
-6.58
-8.31
-10.16
-12.18
-14.35
-16.59
-18.69
-20.32
-21.09
-20.59
-18.56
-14.98
-10.13
-4.63
0.73
5.22
8.36
10.04
10.58
10.45
10.12
9.86
9.68
9.47
9.14
8.72
8.27
7.92
7.65
7.32
6.76
5.84
4.62
3.30
2.09
1.10
0.36
-0.30
-1.05
-2.02
-3.26
-4.74
-6.38
-8.17
-10.14
-12.32
-14.69
-17.03
-18.94
-19.85
-19.21
-16.74
-12.56
-7.25
-1.68
3.28
7.03
9.37
10.48
10.75
10.55
10.14
9.63
9.05
8.41
7.76
7.14
6.55
5.96
5.31
4.60
3.85
3.15
2.52
1.97
1.42
0.72
-0.26
-1.59
-3.18
-4.84
-6.33
-7.48
-8.30
-8.99
-9.91
-11.46
-13.81
-16.77
-19.82
-22.17
-23.04
-21.91
-18.67
-13.68
-7.67
-1.49
4.10
8.56
11.67
13.47
14.20
14.20
13.84
13.43
13.14
12.94
12.67
12.07
10.98
9.46
7.76
6.27
5.24
4.78
4.69
4.63
4.28
3.45
2.15
0.54
-1.15
-2.81
-4.36
-5.84
-7.36
-9.04
-10.99
-13.27
-15.86
-18.46
-20.64
-21.80
-21.43
-19.25
-15.32
-10.12
-4.34
1.19
5.83
9.19
11.30
12.39
12.87
13.11
13.25
13.33
13.20
12.76
11.95
10.87
9.66
8.46
7.38
6.43
5.62
4.95
4.43
3.98
3.51
2.91
2.08
0.98
-0.34
-1.71
-3.01
-4.09
-4.93
-5.61
-6.23
-7.02
-8.22
-10.10
-12.72
-15.96
-19.33
-22.06
-23.32
-22.52
-19.48
-14.60
-8.69
-2.70
2.54
6.59
9.43
11.30
12.59
13.60
14.48
15.19
15.70
15.92
15.86
15.57
15.03
14.21
13.03
11.56
9.94
8.47
7.40
6.87
6.78
6.83
6.67
5.94
4.46
2.26
-0.42
-3.23
-5.78
-7.80
-9.23
-10.22
-11.07
-12.12
-13.59
-15.60
-18.05
-20.68
-23.04
-24.52
-24.55
-22.76
-19.18
-14.31
-9.00
-4.12
-0.26
2.41
4.09
5.23
6.23
7.28
8.37
9.26
9.74
9.77
9.53
9.33
9.46
9.99
10.68
11.12
10.92
9.93
8.39
6.72
5.35
4.39
3.54
2.25
0.04
-3.22
-7.27
-11.44
-15.08
-17.73
-19.35
-20.34
-21.33
-23.02
-25.88
-30.06
-35.24
-40.70
-45.47
-48.61
-49.60
-48.53
-46.20
-43.79
-42.46
-42.89
-45.00
-47.98
-50.59
-51.71
-50.86
-48.64
-46.78
-47.84
-54.40
-67.96
-87.97
-111.49
-133.83
-150.04
-156.49
-152.02
-138.00
-117.51
-94.10
-70.76
-49.53
-31.57
-17.53
-7.74
-2.15
-0.19
-0.80
-2.80
-5.27
-7.93
-11.14
-15.61
-22.03
-30.79
-41.89
-54.94
-69.06
-82.86
-94.43
-101.55
-102.24
-95.43
-81.50
-62.34
-40.76
-19.60
-0.83
14.81
27.61
38.24
47.23
54.70
60.54
64.76
67.80
70.36
73.10
76.26
79.41
81.72
82.44
81.34
78.96
76.29
74.29
73.25
72.66
71.42
68.49
63.42
56.57
48.82
41.17
34.19
27.93
22.00
15.82
8.85
0.64
-9.09
-20.25
-32.13
-43.18
-51.21
-53.90
-49.70
-38.44
-21.52
-1.59
18.43
36.16
50.32
60.80
68.27
73.66
77.68
80.64
82.49
83.05
82.23
80.11
76.95
73.17
69.14
65.12
61.27
57.64
54.20
50.85
47.38
43.45
38.69
32.72
25.43
17.03
8.06
-0.78
-8.90
-15.99
-22.18
-28.02
-34.28
-41.61
-50.18
-59.44
-68.01
-73.94
-75.22
-70.33
-58.83
-41.54
-20.40
1.99
23.00
40.62
53.74
62.15
66.39
67.42
66.36
64.23
61.87
59.79
58.17
56.89
55.62
54.06
52.08
49.84
47.66
45.81
44.25
42.56
40.08
36.21
30.73
23.88
16.30
8.74
1.76
-4.45
-10.04
-15.42
-21.13
-27.67
-35.41
-44.30
-53.62
-61.96
-67.32
-67.69
-61.68
-49.22
-31.59
-11.24
9.07
26.99
41.14
51.33
58.13
62.45
65.01
66.13
65.74
63.68
59.96
54.93
49.28
43.83
39.21
35.73
33.33
31.66
30.32
28.97
27.35
25.28
22.54
18.96
14.47
9.22
3.54
-2.15
-7.62
-13.04
-18.99
-26.31
-35.59
-46.65
-58.28
-68.24
-73.88
-72.98
-64.52
-49.04
-28.57
-5.95
15.89
34.59
48.91
58.62
64.36
67.17
68.09
67.83
66.61
64.29
60.54
55.27
48.71
41.52
34.55
28.51
23.76
20.26
17.66
15.49
13.33
10.84
7.80
4.09
-0.30
-5.22
-10.43
-15.61
-20.58
-25.48
-30.82
-37.28
-45.33
-54.74
-64.30
-71.97
-75.34
-72.57
-63.05
-47.76
-29.00
-9.58
8.04
22.37
33.04
40.51
45.46
48.53
50.07
50.34
49.57
48.11
46.30
44.34
42.24
39.82
36.92
33.51
29.66
25.53
21.28
17.02
12.82
8.77
4.97
1.43
-1.92
-5.30
-8.93
-13.11
-18.08
-24.13
-31.48
-40.06
-49.23
-57.64
-63.30
-64.12
-58.70
-46.84
-29.77
-9.80
10.40
28.63
43.54
54.84
62.90
68.26
71.36
72.34
71.23
68.15
63.58
58.27
53.17
49.14
46.65
45.63
45.48
45.22
43.83
40.45
34.75
26.94
17.76
8.18
-0.90
-8.91
-15.77
-21.85
-27.84
-34.64
-43.14
-53.88
-66.62
-79.95
-91.37
-97.88
-97.00
-87.76
-71.29
-50.40
-28.62
-9.00
6.73
18.37
26.75
33.02
38.12
42.50
46.24
49.23
51.33
52.46
52.62
51.87
50.38
48.36
45.97
43.28
40.17
36.32
31.32
24.87
16.99
8.03
-1.28
-10.25
-18.37
-25.62
-32.48
-39.69
-48.01
-57.97
-69.45
-81.56
-92.53
-99.95
-101.31
-94.95
-80.75
-60.53
-37.59
-15.68
2.32
15.12
23.10
27.62
30.11
31.43
31.69
30.69
28.42
25.31
22.13
19.60
18.12
17.49
17.13
16.35
14.72
12.34
9.81
7.98
7.56
8.72
10.89
12.93
13.55
11.80
7.39
0.84
-6.72
-13.78
-18.82
-20.55
-18.03
-10.94
0.34
14.65
30.18
44.84
56.77
64.78
68.71
69.24
67.57
64.86
61.91
59.02
56.18
53.30
50.43
47.72
45.27
42.98
40.53
37.56
33.83
29.35
24.29
18.91
13.31
7.49
1.44
-4.82
-11.03
-16.79
-21.63
-25.15
-27.29
-28.43
-29.47
-31.64
-36.12
-43.36
-52.73
-62.35
-69.56
-71.64
-66.83
-54.98
-37.63
-17.60
2.02
18.89
32.01
41.73
49.23
55.75
62.06
68.34
74.50
80.51
86.62
92.97
99.24
104.35
106.65
104.59
97.49
85.95
71.77
57.37
44.88
35.59
29.62
26.03
23.30
19.82
14.33
6.14
-4.72
-17.67
-31.67
-45.47
-57.70
-67.10
-72.76
-74.36
-72.34
-67.79
-62.15
-56.58
-51.72
-47.54
-43.72
-40.06
-36.81
-34.52
-33.69
-34.33
-35.75
-36.87
-36.68
-34.78
-31.54
-27.90
-24.91
-23.32
-23.32
-24.72
-27.04
-29.83
-32.65
-35.08
-36.69
-37.20
-36.53
-34.96
-33.09
-31.63
-31.14
-31.92
-33.87
-36.66
-39.75
-42.49
-44.21
-44.32
-42.37
-38.30
-32.51
-25.74
-18.88
-12.72
-7.67
-3.80
-0.96
1.08
2.41
2.90
2.36
0.66
-2.13
-5.65
-9.36
-12.75
-15.44
-17.32
-18.46
-18.98
-19.03
-18.69
-18.13
-17.62
-17.55
-18.30
-20.07
-22.76
-25.92
-28.97
-31.38
-32.94
-33.78
-34.40
-35.31
-36.84
-39.01
-41.41
-43.40
-44.31
-43.65
-41.25
-37.19
-31.74
-25.26
-18.11
-10.65
-3.34
3.36
8.95
13.02
15.33
15.85
14.78
12.51
9.51
6.17
2.77
-0.57
-3.80
-6.86
-9.62
-11.87
-13.43
-14.28
-14.60
-14.87
-15.72
-17.89
-21.98
-28.27
-36.57
-46.22
-56.34
-66.14
-75.31
-84.11
-93.17
-103.07
-113.88
-124.81
-134.21
-139.77
-139.06
-130.14
-112.29
-86.49
-55.46
-23.03
6.91
31.52
49.63
61.72
69.16
73.31
74.91
74.06
70.68
65.06
58.10
51.11
45.33
41.48
39.54
38.88
38.59
37.80
35.90
32.62
27.97
22.16
15.50
8.32
0.96
-6.35
-13.50
-20.64
-28.08
-36.30
-45.77
-56.68
-68.65
-80.48
-90.19
-95.42
-94.11
-85.20
-69.14
-47.81
-24.01
-0.55
20.44
37.85
51.56
61.98
69.75
75.33
79.02
80.94
81.14
79.65
76.55
72.03
66.36
59.88
53.08
46.43
40.46
35.60
32.07
29.77
28.15
26.24
22.97
17.49
9.56
-0.30
-10.98
-21.19
-29.89
-36.74
-42.12
-46.95
-52.26
-58.66
-66.03
-73.37
-79.04
-81.27
-78.72
-71.03
-58.99
-44.38
-29.49
-16.42
-6.59
-0.44
2.45
3.03
2.31
1.06
-0.31
-1.65
-2.88
-3.83
-4.23
-3.84
-2.55
-0.51
1.99
4.58
6.99
9.10
10.91
12.47
13.74
14.55
14.62
13.62
11.27
7.32
1.51
-6.44
-16.78
-29.47
-43.86
-58.40
-70.65
-77.81
-77.55
-68.79
-52.25
-30.19
-5.74
18.04
38.90
55.79
68.64
78.03
84.77
89.61
93.10
95.53
97.02
97.49
96.76
94.66
91.17
86.46
80.98
75.36
70.25
66.12
63.00
60.42
57.53
53.40
47.49
39.81
31.02
22.11
13.95
6.95
0.89
-5.05
-11.99
-20.90
-32.15
-45.13
-58.11
-68.53
-73.72
-71.79
-62.41
-46.98
-28.21
-9.13
7.86
21.49
31.65
38.90
43.92
47.16
48.80
48.81
47.16
43.91
39.14
32.97
25.56
17.12
7.97
-1.50
-10.84
-19.53
-26.95
-32.42
-35.24
-34.94
-31.45
-25.35
-17.97
-11.22
-7.15
-7.41
-12.73
-22.72
-36.06
-51.10
-66.47
-81.34
-95.25
-107.46
-116.69
-121.18
-119.44
-110.97
-96.68
-78.68
-59.35
-40.50
-22.92
-6.54
8.87
23.15
35.57
45.30
52.07
56.61
60.60
65.97
74.10
85.13
97.87
110.17
119.73
124.77
124.51
119.05
109.12
95.65
79.66
62.27
44.68
28.24
14.16
3.26
-4.31
-9.17
-12.44
-15.51
-19.69
-25.88
-34.40
-44.85
-56.04
-66.16
-73.16
-75.17
-71.11
-60.95
-45.82
-27.59
-8.44
9.70
25.36
37.66
46.25
51.28
53.24
52.99
51.58
50.05
49.29
49.83
51.65
54.08
55.71
54.74
49.51
39.28
24.75
8.10
-7.75
-20.34
-28.59
-33.42
-37.16
-42.50
-51.20
-63.37
-77.40
-90.79
-101.12
-106.92
-107.90
-104.59
-97.70
-87.84
-75.51
-61.43
-47.01
-34.19
-24.84
-19.90
-18.74
-19.25
-18.65
-14.60
-6.07
6.41
21.22
36.42
50.42
62.30
71.82
79.15
84.64
88.55
90.95
91.69
90.50
87.08
81.25
73.16
63.16
51.81
39.69
27.39
15.50
4.63
-4.64
-11.93
-17.22
-20.98
-24.09
-27.70
-32.87
-40.33
-50.15
-61.50
-72.70
-81.46
-85.43
-82.97
-73.61
-58.31
-39.12
-18.60
0.98
18.07
32.02
42.90
51.15
57.33
61.93
65.28
67.61
69.04
69.52
68.92
67.10
63.94
59.48
54.02
48.05
42.12
36.67
31.84
27.40
22.88
17.70
11.44
4.01
-4.41
-13.39
-22.51
-31.52
-40.44
-49.53
-59.31
-70.31
-82.88
-96.81
-111.14
-124.17
-133.86
-138.37
-136.73
-129.30
-117.66
-104.17
-91.24
-80.59
-72.97
-68.14
-65.18
-62.78
-59.58
-54.37
-46.22
-34.61
-19.43
-1.03
19.86
42.19
64.72
86.18
105.41
121.50
133.89
142.34
146.84
147.58
144.77
138.73
129.91
118.98
106.82
94.32
82.25
70.94
60.25
49.64
38.38
25.90
12.22
-1.84
-14.72
-24.48
-29.30
-28.12
-20.90
-8.75
6.44
22.49
37.47
50.06
59.63
66.11
69.77
71.04
70.42
68.50
65.82
62.94
60.15
57.54
54.98
52.21
49.07
45.49
41.65
37.80
34.13
30.69
27.25
23.48
18.98
13.50
7.04
-0.17
-7.71
-15.15
-22.21
-28.94
-35.68
-42.99
-51.40
-61.01
-71.23
-80.73
-87.69
-90.25
-87.18
-78.27
-64.48
-47.59
-29.70
-12.65
2.28
14.45
23.81
30.57
35.20
38.18
40.01
41.06
41.52
41.42
40.64
39.09
36.68
33.46
29.60
25.37
21.12
17.21
13.85
11.09
8.68
6.16
3.07
-0.89
-5.71
-11.07
-16.55
-21.79
-26.68
-31.41
-36.46
-42.42
-49.72
-58.37
-67.62
-76.03
-81.69
-82.76
-78.17
-68.00
-53.52
-36.77
-19.91
-4.55
8.48
19.07
27.51
34.19
39.38
43.26
45.96
47.69
48.75
49.41
49.82
49.94
49.50
48.25
46.09
43.23
40.16
37.41
35.27
33.66
32.05
29.72
26.04
20.81
14.28
7.11
0.05
-6.30
-11.76
-16.62
-21.57
-27.47
-34.96
-44.12
-54.26
-63.97
-71.36
-74.72
-72.93
-65.90
-54.51
-40.33
-25.21
-10.76
1.95
12.47
20.84
27.42
32.57
36.61
39.71
41.99
43.59
44.67
45.38
45.76
45.68
44.87
43.10
40.38
37.00
33.47
30.29
27.70
25.50
23.19
20.16
16.02
10.84
5.13
-0.41
-5.16
-8.89
-11.84
-14.64
-18.07
-22.86
-29.36
-37.37
-46.03
-53.86
-59.02
-59.87
-55.44
-45.81
-32.19
-16.48
-0.78
13.24
24.58
32.97
38.59
41.77
42.85
42.10
39.79
36.24
31.89
27.19
22.61
18.49
15.00
12.20
10.10
8.73
8.19
8.58
9.82
11.49
12.80
12.82
10.75
6.30
-0.18
-7.79
-15.40
-22.07
-27.40
-31.58
-35.33
-39.54
-44.85
-51.38
-58.45
-64.73
-68.52
-68.33
-63.31
-53.64
-40.44
-25.43
-10.48
2.96
14.06
22.70
29.16
33.92
37.32
39.59
40.78
41.02
40.54
39.69
38.79
38.08
37.50
36.87
35.92
34.49
32.58
30.40
28.17
26.11
24.27
22.48
20.39
17.51
13.46
8.07
1.55
-5.59
-12.71
-19.25
-24.99
-30.04
-34.82
-39.92
-45.85
-52.95
-61.20
-70.08
-78.51
-85.00
-87.92
-86.03
-78.87
-67.06
-52.06
-35.86
-20.26
-6.51
4.90
14.11
21.51
27.48
32.20
35.70
37.96
39.02
39.04
38.21
36.70
34.55
31.77
28.45
24.82
21.22
18.13
15.89
14.61
14.07
13.66
12.61
10.13
5.77
-0.48
-8.10
-16.16
-23.66
-29.83
-34.44
-37.90
-41.05
-44.91
-50.21
-57.11
-65.02
-72.64
-78.26
-80.18
-77.21
-69.02
-56.31
-40.53
-23.52
-6.97
7.90
20.58
31.06
39.67
46.78
52.64
57.31
60.69
62.63
63.03
61.88
59.32
55.54
50.73
45.06
38.77
32.21
25.95
20.61
16.67
14.30
13.19
12.68
11.98
10.48
7.88
4.31
0.05
-4.53
-9.19
-13.88
-18.68
-23.78
-29.43
-35.92
-43.47
-52.08
-61.28
-70.08
-76.99
-80.38
-79.03
-72.57
-61.64
-47.65
-32.39
-17.47
-4.05
7.34
16.60
23.92
29.56
33.82
36.94
39.07
40.31
40.71
40.33
39.35
37.99
36.48
35.01
33.66
32.42
31.29
30.33
29.62
29.15
28.77
28.13
26.79
24.36
20.70
16.06
10.87
5.69
0.93
-3.25
-6.91
-10.27
-13.57
-16.99
-20.67
-24.73
-29.22
-33.96
-38.47
-41.87
-43.17
-41.53
-36.67
-28.98
-19.45
-9.33
0.25
8.57
15.46
21.07
25.76
29.78
33.19
35.90
37.77
38.73
38.88
38.49
37.80
36.89
35.65
33.82
31.31
28.23
25.00
22.13
19.95
18.37
16.91
14.91
11.84
7.62
2.60
-2.56
-7.21
-10.96
-13.82
-16.18
-18.63
-21.83
-26.22
-31.91
-38.47
-44.98
-50.11
-52.48
-51.02
-45.28
-35.63
-23.20
-9.52
3.81
15.56
25.00
31.99
36.72
39.56
40.84
40.85
39.85
38.12
35.98
33.75
31.67
29.74
27.83
25.76
23.42
20.92
18.44
16.21
14.21
12.15
9.48
5.65
0.38
-6.14
-13.29
-20.30
-26.46
-31.53
-35.70
-39.56
-43.86
-49.20
-55.87
-63.57
-71.43
-78.07
-81.92
-81.68
-76.66
-67.11
-54.19
-39.60
-25.13
-12.21
-1.64
6.44
12.33
16.53
19.52
21.68
23.24
24.39
25.25
25.88
26.27
26.26
25.65
24.28
22.27
19.91
17.72
16.13
15.34
15.10
14.83
13.82
11.54
7.88
3.14
-2.07
-7.13
-11.61
-15.42
-18.79
-22.18
-26.11
-31.04
-37.24
-44.54
-52.25
-59.12
-63.55
-64.07
-59.88
-51.17
-39.10
-25.47
-12.07
-0.23
9.46
17.05
22.98
27.72
31.58
34.66
36.99
38.59
39.53
39.91
39.80
39.12
37.72
35.49
32.47
28.96
25.48
22.52
20.35
18.78
17.26
15.10
11.73
7.03
1.25
-5.02
-11.15
-16.69
-21.48
-25.68
-29.75
-34.24
-39.72
-46.51
-54.48
-62.87
-70.35
-75.30
-76.28
-72.53
-64.31
-52.77
-39.59
-26.48
-14.67
-4.79
3.14
9.38
14.29
18.12
21.08
23.40
25.33
27.11
28.91
30.67
32.16
33.06
33.15
32.41
31.03
29.45
28.03
26.96
26.20
25.42
24.19
22.15
19.14
15.24
10.72
5.96
1.27
-3.11
-7.10
-10.79
-14.43
-18.39
-23.12
-28.90
-35.59
-42.47
-48.26
-51.40
-50.59
-45.29
-35.96
-23.96
-11.07
1.01
11.15
18.97
24.67
28.71
31.57
33.52
34.68
35.16
35.11
34.73
34.25
33.75
33.17
32.31
30.97
29.10
26.89
24.65
22.67
21.04
19.54
17.74
15.15
11.45
6.65
1.12
-4.57
-9.79
-14.17
-17.71
-20.78
-24.06
-28.24
-33.76
-40.54
-47.93
-54.65
-59.19
-60.16
-56.74
-49.01
-37.92
-25.06
-12.13
-0.51
9.08
16.52
22.14
26.37
29.50
31.71
33.02
33.54
33.47
33.03
32.41
31.60
30.49
28.88
26.76
24.33
22.01
20.25
19.33
19.20
19.35
19.04
17.52
14.30
9.41
3.28
-3.38
-9.89
-15.81
-21.09
-26.05
-31.24
-37.25
-44.43
-52.64
-61.11
-68.47
-73.00
-73.23
-68.36
-58.66
-45.38
-30.30
-15.24
-1.55
10.09
19.56
27.08
32.98
37.57
41.05
43.60
45.28
46.14
46.23
45.67
44.63
43.35
42.05
40.83
39.77
38.86
38.18
37.79
37.64
37.49
36.83
34.96
31.25
25.44
17.75
8.89
-0.26
-8.88
-16.52
-23.14
-29.04
-34.73
-40.73
-47.40
-54.68
-62.01
-68.32
-72.25
-72.58
-68.69
-60.85
-50.08
-37.86
-25.62
-14.33
-4.46
3.92
10.88
16.46
20.66
23.49
25.05
25.54
25.27
24.58
23.77
23.01
22.29
21.47
20.32
18.66
16.49
14.02
11.60
9.46
7.62
5.77
3.46
0.29
-3.82
-8.63
-13.64
-18.31
-22.37
-25.85
-29.12
-32.65
-36.97
-42.46
-49.25
-57.09
-65.21
-72.38
-77.00
-77.64
-73.40
-64.41
-51.76
-37.28
-22.87
-10.01
0.65
9.17
16.02
21.68
26.40
30.17
32.87
34.58
35.56
36.20
36.87
37.64
38.30
38.45
37.81
36.36
34.38
32.29
30.40
28.74
27.03
24.78
21.56
17.18
11.77
5.79
-0.15
-5.54
-10.08
-13.82
-17.12
-20.56
-24.75
-30.20
-36.95
-44.54
-51.85
-57.35
-59.48
-57.13
-50.08
-39.21
-26.20
-13.08
-1.58
7.35
13.59
17.61
20.12
21.60
22.27
22.12
21.16
19.51
17.54
15.65
14.08
12.82
11.60
10.10
8.15
5.82
3.37
1.05
-1.11
-3.33
-6.02
-9.51
-13.91
-18.99
-24.22
-28.99
-32.89
-35.81
-38.05
-40.18
-42.90
-46.75
-51.92
-58.05
-64.21
-69.00
-70.93
-68.79
-62.06
-51.15
-37.35
-22.42
-8.09
4.35
14.31
21.86
27.47
31.75
35.17
37.98
40.29
42.15
43.64
44.96
46.28
47.63
48.89
49.82
50.23
50.09
49.57
48.91
48.26
47.52
46.37
44.44
41.47
37.49
32.71
27.49
22.09
16.55
10.64
3.99
-3.70
-12.40
-21.51
-29.85
-35.83
-37.86
-34.97
-27.10
-15.26
-1.20
13.14
26.18
37.05
45.54
51.86
56.35
59.30
60.86
61.20
60.51
59.08
57.15
54.85
52.14
48.91
45.10
40.79
36.26
31.89
27.91
24.29
20.63
16.39
11.05
4.44
-3.17
-11.15
-18.81
-25.62
-31.44
-36.50
-41.27
-46.33
-52.13
-58.76
-65.83
-72.33
-76.84
-77.84
-74.33
-66.19
-54.38
-40.62
-26.87
-14.70
-4.96
2.29
7.43
10.99
13.45
15.09
16.14
16.79
17.20
17.45
17.54
17.32
16.61
15.30
13.44
11.20
8.82
6.49
4.20
1.77
-1.14
-4.87
-9.58
-15.13
-21.10
-26.89
-31.98
-36.15
-39.59
-42.86
-46.74
-51.89
-58.63
-66.55
-74.57
-81.07
-84.29
-82.88
-76.39
-65.48
-51.63
-36.76
-22.49
-9.85
0.84
9.68
16.99
22.99
27.80
31.53
34.39
36.63
38.42
39.79
40.54
40.43
39.34
37.44
35.15
32.97
31.27
30.16
29.38
28.47
26.90
24.29
20.51
15.74
10.41
5.00
-0.06
-4.62
-8.86
-13.27
-18.45
-24.86
-32.53
-40.86
-48.68
-54.40
-56.53
-54.08
-46.88
-35.77
-22.24
-8.08
5.16
16.48
25.52
32.43
37.57
41.39
44.20
46.24
47.64
48.52
48.89
48.78
48.20
47.16
45.70
43.87
41.76
39.48
37.18
34.91
32.69
30.35
27.61
24.20
19.94
14.95
9.53
4.09
-1.02
-5.65
-9.92
-14.17
-18.87
-24.46
-31.15
-38.71
-46.31
-52.58
-55.90
-54.96
-49.24
-39.23
-26.38
-12.60
0.34
11.26
19.69
25.78
30.00
32.86
34.80
36.10
36.98
37.52
37.75
37.60
36.95
35.66
33.66
31.02
27.93
24.69
21.54
18.56
15.53
11.99
7.47
1.68
-5.23
-12.70
-19.91
-26.08
-30.73
-33.89
-36.03
-37.92
-40.38
-43.95
-48.71
-54.03
-58.72
-61.23
-60.14
-54.61
-44.76
-31.61
-16.82
-2.15
10.96
21.76
30.12
36.36
40.89
44.09
46.19
47.37
47.84
47.87
47.71
47.48
47.12
46.47
45.41
44.02
42.64
41.72
41.55
42.11
42.91
43.26
42.56
40.58
37.66
34.55
32.05
30.68
30.41
30.69
30.69
29.66
27.11
23.06
17.95
12.60
8.05
5.48
6.03
10.60
19.64
32.97
49.91
69.29
89.74
109.72
127.70
142.23
152.14
156.89
156.59
152.16
144.98
136.45
127.58
118.80
109.99
100.73
90.76
80.05
68.96
58.16
48.45
40.65
35.21
32.04
30.19
28.04
23.73
15.77
3.70
-11.70
-28.77
-45.78
-61.82
-77.56
-95.25
-117.83
-147.25
-182.72
-219.97
-252.23
-272.84
-278.11
-269.05
-250.78
-229.83
-211.00
-195.41
-181.02
-164.75
-145.14
-123.38
-102.70
-86.24
-75.34
-69.06
-64.97
-60.79
-55.37
-48.92
-42.48
-37.08
-33.08
-30.13
-27.44
-24.32
-20.71
-17.40
-15.76
-17.22
-22.52
-31.21
-41.66
-51.69
-59.46
-64.19
-66.50
-68.00
-70.57
-75.56
-83.33
-93.14
-103.45
-112.39
-118.19
-119.53
-115.77
-107.06
-94.17
-78.32
-60.94
-43.36
-26.69
-11.78
0.80
10.74
17.98
22.76
25.61
27.27
28.55
30.13
32.43
35.55
39.30
43.35
47.45
51.46
55.37
59.17
62.68
65.56
67.30
67.47
65.89
62.81
58.81
54.68
51.18
48.78
47.47
46.75
45.84
44.00
40.98
37.30
34.17
33.24
36.01
43.24
54.77
69.49
85.86
102.37
117.97
132.20
145.14
157.04
168.24
178.94
189.09
198.29
205.64
209.75
209.04
202.41
189.67
171.91
151.06
129.18
107.50
86.01
63.75
39.65
13.59
-13.18
-38.40
-59.82
-76.32
-88.41
-97.79
-106.29
-114.83
-123.04
-129.65
-133.36
-133.54
-130.47
-124.94
-117.74
-109.27
-99.68
-89.32
-79.02
-69.92
-62.88
-57.80
-53.30
-47.18
-37.37
-23.06
-5.31
13.16
28.91
39.01
42.07
38.58
30.43
20.05
9.52
0.15
-7.56
-13.63
-18.32
-21.87
-24.60
-26.89
-29.16
-31.79
-35.06
-38.95
-43.20
-47.47
-51.52
-55.40
-59.44
-63.96
-68.93
-73.69
-76.92
-77.02
-72.76
-63.80
-50.97
-36.06
-21.23
-8.28
1.77
8.83
13.45
16.49
18.62
20.20
21.30
21.83
21.75
21.10
20.05
18.79
17.48
16.15
14.78
13.27
11.52
9.51
7.24
4.72
1.95
-1.11
-4.54
-8.38
-12.58
-17.07
-21.75
-26.66
-31.97
-37.88
-44.35
-50.83
-56.21
-59.02
-57.97
-52.50
-43.01
-30.84
-17.74
-5.34
5.32
13.92
20.60
25.66
29.34
31.70
32.79
32.65
31.51
29.64
27.37
24.94
22.51
20.12
17.75
15.36
12.89
10.32
7.64
4.84
1.92
-1.14
-4.35
-7.75
-11.42
-15.45
-19.94
-25.03
-30.82
-37.30
-44.18
-50.77
-55.99
-58.53
-57.22
-51.46
-41.63
-28.99
-15.34
-2.50
8.32
16.69
22.88
27.42
30.80
33.15
34.40
34.48
33.48
31.76
29.77
27.91
26.34
25.08
23.93
22.70
21.17
19.23
16.83
14.01
10.86
7.44
3.74
-0.33
-4.87
-9.97
-15.66
-21.95
-28.86
-36.38
-44.25
-51.76
-57.73
-60.73
-59.52
-53.59
-43.43
-30.42
-16.40
-3.09
8.36
17.53
24.63
30.14
34.50
37.94
40.43
41.85
42.14
41.46
40.17
38.63
37.11
35.65
34.03
32.00
29.33
26.02
22.22
18.19
14.16
10.27
6.47
2.58
-1.67
-6.53
-12.20
-18.72
-26.00
-33.74
-41.33
-47.80
-51.95
-52.54
-48.76
-40.57
-28.86
-15.21
-1.42
11.07
21.52
29.89
36.55
41.85
45.96
48.81
50.27
50.32
49.09
46.92
44.21
41.31
38.44
35.70
33.07
30.44
27.65
24.55
21.11
17.38
13.48
9.49
5.40
1.11
-3.62
-9.04
-15.34
-22.64
-30.78
-39.27
-47.16
-53.19
-56.04
-54.76
-49.05
-39.49
-27.34
-14.21
-1.60
9.44
18.42
25.38
30.60
34.48
37.30
39.20
40.17
40.22
39.40
37.86
35.89
33.80
31.84
30.11
28.55
26.89
24.85
22.19
18.86
15.04
11.04
7.12
3.34
-0.46
-4.55
-9.15
-14.41
-20.34
-26.89
-33.96
-41.17
-47.75
-52.51
-54.02
-51.14
-43.56
-31.94
-17.87
-3.29
10.09
21.19
29.68
35.76
39.83
42.28
43.40
43.44
42.61
41.19
39.41
37.48
35.51
33.53
31.52
29.45
27.26
24.90
22.28
19.29
15.87
12.01
7.76
3.28
-1.26
-5.75
-10.14
-14.53
-19.19
-24.50
-30.79
-38.13
-46.11
-53.73
-59.57
-62.11
-60.20
-53.59
-42.98
-29.88
-16.13
-3.41
7.21
15.35
21.16
25.13
27.72
29.27
29.97
29.91
29.21
27.95
26.31
24.44
22.56
20.84
19.37
18.17
17.07
15.87
14.28
12.07
9.10
5.38
1.05
-3.70
-8.66
-13.67
-18.66
-23.72
-29.05
-34.94
-41.55
-48.70
-55.70
-61.33
-64.19
-63.02
-57.24
-47.17
-33.97
-19.38
-5.17
7.34
17.49
25.24
30.99
35.24
38.45
40.90
42.70
43.89
44.44
44.26
43.28
41.48
38.96
35.99
32.93
30.05
27.49
25.15
22.71
19.85
16.31
12.06
7.24
2.15
-2.92
-7.74
-12.23
-16.59
-21.18
-26.57
-33.22
-41.27
-50.19
-58.73
-65.14
-67.63
-65.04
-57.25
-45.25
-30.84
-16.00
-2.34
9.23
18.53
25.79
31.42
35.69
38.74
40.63
41.45
41.41
40.76
39.73
38.43
36.87
34.97
32.75
30.39
28.16
26.31
24.84
23.49
21.75
19.11
15.32
10.53
5.21
-0.05
-4.79
-8.88
-12.48
-16.05
-20.09
-25.07
-31.20
-38.35
-45.94
-52.97
-58.11
-59.97
-57.55
-50.49
-39.33
-25.42
-10.54
3.57
15.62
25.07
32.03
37.04
40.68
43.36
45.19
46.13
46.14
45.29
43.74
41.71
39.28
36.52
33.47
30.28
27.22
24.53
22.31
20.46
18.64
16.39
13.30
9.09
3.77
-2.38
-8.84
-14.99
-20.36
-24.83
-28.73
-32.79
-37.83
-44.38
-52.30
-60.67
-67.94
-72.41
-72.79
-68.61
-60.35
-49.20
-36.69
-24.21
-12.74
-2.73
5.67
12.53
17.89
21.80
24.31
25.54
25.75
25.26
24.38
23.36
22.29
21.10
19.71
18.03
16.11
14.07
12.09
10.24
8.42
6.32
3.60
0.01
-4.41
-9.34
-14.29
-18.82
-22.75
-26.25
-29.73
-33.77
-38.81
-44.96
-51.94
-58.95
-64.84
-68.30
-68.16
-63.79
-55.33
-43.71
-30.42
-17.06
-4.94
5.23
13.34
19.73
24.88
29.15
32.72
35.54
37.48
38.44
38.49
37.83
36.72
35.39
33.92
32.36
30.73
29.11
27.58
26.15
24.62
22.62
19.73
15.67
10.53
4.73
-1.10
-6.44
-11.10
-15.29
-19.58
-24.62
-30.84
-38.21
-46.06
-53.13
-57.86
-58.84
-55.23
-47.09
-35.34
-21.57
-7.48
5.48
16.46
25.24
32.08
37.47
41.85
45.47
48.38
50.47
51.62
51.77
51.00
49.47
47.46
45.20
42.96
40.99
39.55
38.78
38.70
39.10
39.53
39.56
38.87
37.49
35.71
33.99
32.73
32.13
32.09
32.30
32.37
31.90
30.68
28.74
26.61
25.25
25.96
30.06
38.42
51.18
67.73
86.84
107.00
126.47
143.37
155.89
162.54
162.49
155.83
143.31
126.04
105.10
81.39
55.89
29.88
5.00
-17.14
-35.25
-48.61
-56.93
-60.02
-57.74
-50.21
-38.35
-24.11
-10.25
0.53
6.37
6.72
2.16
-6.21
-17.36
-30.59
-45.56
-62.09
-80.01
-99.15
-119.18
-139.45
-158.77
-175.30
-186.81
-191.22
-187.31
-175.08
-155.81
-131.68
-105.19
-78.68
-54.07
-32.78
-15.77
-3.36
4.87
10.18
14.34
19.11
25.46
33.10
40.56
45.73
46.80
43.06
35.25
25.24
15.33
7.41
2.40
0.16
-0.18
0.32
0.83
0.83
0.10
-1.56
-4.36
-8.35
-13.18
-17.94
-21.42
-22.63
-21.48
-18.89
-16.38
-15.33
-16.16
-18.15
-19.81
-19.79
-17.60
-13.90
-9.99
-7.01
-5.28
-4.21
-2.80
-0.31
3.28
7.27
10.64
12.59
12.84
11.60
9.38
6.55
3.37
0.03
-3.16
-5.70
-7.16
-7.46
-7.16
-7.27
-8.99
-13.16
-19.93
-28.71
-38.34
-47.42
-54.62
-58.96
-60.10
-58.59
-55.85
-53.69
-53.48
-55.29
-57.71
-58.30
-54.79
-46.24
-33.56
-19.11
-5.55
5.09
12.09
15.68
16.53
15.19
12.01
7.28
1.57
-4.33
-9.62
-13.72
-16.54
-18.39
-19.78
-21.18
-22.84
-24.76
-26.75
-28.58
-30.07
-31.22
-32.17
-33.15
-34.42
-36.08
-38.00
-39.88
-41.35
-42.11
-42.18
-41.95
-42.07
-43.20
-45.61
-48.93
-52.16
-53.91
-52.87
-48.20
-39.86
-28.47
-15.13
-1.07
12.61
25.07
35.76
44.42
51.03
55.78
58.98
61.01
62.16
62.59
62.35
61.42
59.81
57.62
55.02
52.23
49.40
46.61
43.83
40.91
37.65
33.84
29.35
24.16
18.47
12.59
6.88
1.64
-3.00
-7.14
-11.12
-15.42
-20.51
-26.59
-33.37
-39.99
-45.14
-47.39
-45.66
-39.69
-30.13
-18.37
-5.98
5.76
16.16
25.10
32.78
39.39
44.90
49.12
51.83
52.93
52.56
51.04
48.77
46.11
43.25
40.26
37.14
33.87
30.55
27.36
24.46
21.88
19.41
16.66
13.23
8.96
4.00
-1.18
-6.05
-10.32
-14.05
-17.66
-21.69
-26.57
-32.44
-39.01
-45.66
-51.41
-55.20
-55.98
-53.10
-46.50
-36.82
-25.25
-13.17
-1.75
8.31
16.79
23.79
29.42
33.74
36.73
38.45
39.11
39.06
38.57
37.72
36.33
34.13
31.01
27.23
23.37
20.07
17.71
16.18
14.89
13.07
10.13
5.87
0.60
-5.16
-10.82
-16.01
-20.64
-24.81
-28.78
-32.91
-37.56
-43.02
-49.29
-55.86
-61.71
-65.43
-65.68
-61.64
-53.39
-41.85
-28.58
-15.16
-2.83
7.74
16.41
23.42
29.06
33.56
37.02
39.45
40.88
41.43
41.23
40.46
39.20
37.41
35.07
32.22
29.03
25.77
22.70
19.93
17.39
14.83
11.97
8.54
4.48
-0.17
-5.15
-10.13
-14.78
-18.88
-22.52
-26.12
-30.35
-35.83
-42.82
-50.86
-58.78
-64.90
-67.58
-65.72
-59.16
-48.64
-35.59
-21.59
-7.92
4.63
15.73
25.35
33.47
40.02
44.91
48.12
49.78
50.20
49.75
48.69
47.12
45.01
42.29
39.00
35.35
31.75
28.60
26.16
24.37
22.85
21.00
18.29
14.43
9.54
4.05
-1.47
-6.56
-11.01
-14.85
-18.35
-21.83
-25.73
-30.42
-36.14
-42.81
-49.83
-56.09
-60.09
-60.53
-56.67
-48.67
-37.59
-24.99
-12.33
-0.59
9.81
18.95
26.93
33.73
39.11
42.79
44.68
44.95
44.13
42.78
41.40
40.20
39.04
37.60
35.58
32.96
29.98
27.14
24.80
23.03
21.52
19.67
16.92
12.99
8.07
2.67
-2.59
-7.29
-11.33
-15.01
-18.80
-23.20
-28.54
-34.83
-41.75
-48.64
-54.58
-58.53
-59.55
-57.04
-50.91
-41.62
-30.15
-17.68
-5.38
5.84
15.45
23.23
29.18
33.40
36.07
37.36
37.55
36.90
35.67
34.08
32.23
30.08
27.62
24.85
21.90
19.01
16.48
14.49
12.93
11.46
9.61
6.98
3.45
-0.76
-5.26
-9.62
-13.64
-17.43
-21.25
-25.47
-30.38
-36.12
-42.62
-49.44
-55.81
-60.59
-62.61
-60.97
-55.42
-46.46
-35.27
-23.18
-11.39
-0.62
8.83
16.93
23.69
29.03
32.87
35.25
36.36
36.56
36.22
35.59
34.71
33.46
31.71
29.46
26.92
24.40
22.16
20.28
18.60
16.81
14.53
11.54
7.81
3.53
-0.97
-5.29
-9.21
-12.67
-15.92
-19.41
-23.62
-28.96
-35.55
-43.12
-50.92
-57.84
-62.59
-63.98
-61.32
-54.63
-44.67
-32.72
-20.18
-8.20
2.54
11.78
19.56
25.94
31.05
34.90
37.56
39.12
39.73
39.61
38.92
37.81
36.33
34.48
32.23
29.66
26.94
24.33
22.04
20.09
18.21
15.99
13.00
9.03
4.26
-0.89
-5.88
-10.30
-14.02
-17.25
-20.39
-24.03
-28.63
-34.46
-41.30
-48.45
-54.71
-58.74
-59.41
-56.22
-49.43
-39.93
-28.88
-17.40
-6.31
3.89
12.93
20.61
26.85
31.61
34.99
37.15
38.34
38.77
38.58
37.86
36.68
35.14
33.26
31.16
28.96
26.78
24.71
22.75
20.83
18.75
16.31
13.29
9.60
5.25
0.37
-4.85
-10.18
-15.39
-20.37
-25.10
-29.80
-34.78
-40.34
-46.40
-52.37
-57.12
-59.30
-57.90
-52.64
-44.21
-33.89
-23.18
-13.28
-4.92
1.47
5.47
6.63
4.61
-0.57
-8.31
-17.46
-26.78
-35.28
-42.53
-48.54
-53.49
-57.39
-60.04
-61.09
-60.42
-58.30
-55.43
-52.74
-51.00
-50.61
-51.45
-53.00
-54.68
-56.08
-57.10
-57.88
-58.78
-60.05
-61.96
-64.62
-68.06
-72.11
-76.26
-79.63
-81.02
-79.26
-73.52
-63.66
-50.39
-35.11
-19.52
-5.13
7.13
17.10
25.29
32.57
39.74
47.13
54.54
61.33
66.79
70.39
72.12
72.45
72.15
71.94
72.22
72.92
73.50
73.34
71.98
69.39
65.97
62.24
58.58
55.08
51.66
48.16
44.68
41.36
38.32
35.38
32.20
28.58
24.73
21.47
19.99
21.47
26.48
34.70
45.08
56.31
67.47
78.32
89.19
100.52
112.20
123.29
132.21
137.36
137.84
133.85
126.58
117.55
107.89
97.94
87.34
75.51
62.19
47.62
32.57
17.88
4.12
-8.61
-20.68
-32.53
-44.41
-56.19
-67.38
-77.36
-85.76
-92.67
-98.61
-104.42
-110.88
-118.39
-126.73
-135.05
-141.97
-145.89
-145.46
-139.86
-129.14
-114.11
-96.16
-76.85
-57.54
-39.23
-22.52
-7.76
4.96
15.65
24.46
31.62
37.41
42.07
45.70
48.29
49.76
50.00
49.02
47.05
44.51
41.93
39.78
38.26
37.20
36.12
34.41
31.63
27.63
22.63
17.12
11.59
6.38
1.52
-3.26
-8.45
-14.56
-21.98
-30.62
-39.79
-48.17
-54.14
-56.17
-53.35
-45.70
-34.16
-20.32
-5.91
7.64
19.41
29.03
36.51
42.10
46.09
48.80
50.49
51.34
51.46
50.83
49.43
47.26
44.45
41.26
38.04
35.09
32.57
30.43
28.38
26.01
22.96
19.00
14.18
8.76
3.14
-2.31
-7.36
-12.01
-16.48
-21.13
-26.36
-32.53
-39.68
-47.45
-54.89
-60.59
-63.07
-61.22
-54.71
-44.21
-31.13
-17.12
-3.60
8.53
19.00
27.76
34.87
40.29
43.95
45.88
46.30
45.60
44.16
42.33
40.19
37.76
35.03
32.11
29.21
26.59
24.38
22.45
20.49
18.01
14.65
10.23
4.86
-1.13
-7.28
-13.24
-18.80
-24.07
-29.35
-35.11
-41.74
-49.39
-57.67
-65.59
-71.71
-74.52
-72.92
-66.64
-56.30
-43.23
-29.01
-15.00
-2.05
9.48
19.58
28.38
35.95
42.32
47.57
51.82
55.30
58.26
60.84
63.01
64.62
65.47
65.46
64.70
63.58
62.61
62.24
62.65
63.72
65.04
66.15
66.66
66.34
65.10
62.88
59.59
55.05
49.02
41.32
31.82
20.58
7.84
-5.95
-20.07
-33.58
-45.35
-54.24
-59.29
-59.97
-56.26
-48.72
-38.27
-25.93
-12.64
0.91
14.09
26.16
36.17
43.15
46.46
46.29
43.67
40.30
37.85
37.34
38.65
40.49
40.85
37.78
30.26
18.86
5.78
-5.76
-12.74
-13.68
-9.31
-2.42
3.42
5.38
2.56
-3.79
-11.18
-17.26
-20.84
-22.25
-22.80
-23.78
-25.82
-28.68
-31.67
-34.21
-36.29
-38.36
-41.03
-44.55
-48.60
-52.38
-54.97
-55.76
-54.71
-52.19
-48.66
-44.41
-39.33
-33.02
-25.17
-15.78
-5.44
4.84
13.91
20.89
25.41
27.66
28.23
27.79
26.88
25.75
24.44
22.89
21.03
18.84
16.32
13.48
10.34
6.91
3.18
-0.86
-5.28
-10.12
-15.32
-20.73
-26.07
-31.08
-35.61
-39.79
-44.00
-48.77
-54.48
-61.04
-67.78
-73.34
-76.15
-74.86
-68.92
-58.77
-45.78
-31.76
-18.35
-6.69
2.76
10.03
15.39
19.09
21.37
22.41
22.53
22.06
21.37
20.73
20.26
20.02
19.95
19.92
19.76
19.20
18.01
16.15
13.77
11.18
8.67
6.35
4.02
1.34
-1.96
-5.88
-10.10
-14.13
-17.51
-20.13
-22.16
-23.98
-26.07
-28.80
-32.43
-37.11
-42.82
-49.16
-55.29
-59.92
-61.55
-58.94
-51.60
-40.03
-25.70
-10.59
3.41
14.98
23.60
29.43
33.05
35.10
36.11
36.41
36.25
35.76
35.07
34.30
33.45
32.55
31.49
30.21
28.66
26.83
24.79
22.63
20.50
18.47
16.52
14.50
12.18
9.30
5.73
1.54
-3.09
-7.84
-12.46
-16.72
-20.54
-23.93
-27.01
-30.06
-33.47
-37.71
-43.07
-49.45
-56.11
-61.66
-64.42
-62.94
-56.54
-45.64
-31.66
-16.61
-2.46
9.42
18.46
24.79
28.95
31.57
33.12
33.90
34.10
33.82
33.14
32.13
30.84
29.36
27.82
26.33
24.98
23.73
22.46
21.04
19.35
17.43
15.33
13.12
10.74
8.05
4.85
0.99
-3.49
-8.43
-13.47
-18.29
-22.59
-26.22
-29.23
-31.85
-34.49
-37.64
-41.77
-47.09
-53.37
-59.76
-64.85
-66.98
-64.75
-57.52
-45.75
-30.91
-15.06
-0.22
12.21
21.67
28.32
32.72
35.43
36.81
37.07
36.42
35.17
33.70
32.43
31.56
31.06
30.67
30.05
28.96
27.35
25.36
23.18
21.00
18.88
16.79
14.60
12.13
9.25
5.81
1.81
-2.68
-7.47
-12.30
-16.89
-21.04
-24.68
-27.91
-30.98
-34.25
-38.17
-43.13
-49.30
-56.35
-63.31
-68.65
-70.57
-67.65
-59.31
-46.19
-30.03
-13.15
2.27
14.75
23.79
29.72
33.29
35.30
36.29
36.61
36.42
35.83
34.97
33.95
32.87
31.75
30.63
29.52
28.43
27.32
26.15
24.79
23.15
21.17
18.88
16.35
13.59
10.49
6.89
2.66
-2.21
-7.52
-12.87
-17.85
-22.11
-25.61
-28.53
-31.36
-34.73
-39.22
-45.18
-52.42
-60.13
-66.86
-70.86
-70.53
-64.97
-54.29
-39.69
-23.12
-6.69
7.81
19.33
27.64
33.12
36.39
38.06
38.50
37.88
36.34
34.10
31.60
29.33
27.68
26.75
26.34
26.09
25.64
24.87
23.83
22.67
21.45
20.08
18.31
15.84
12.49
8.20
3.08
-2.62
-8.53
-14.23
-19.34
-23.65
-27.21
-30.33
-33.60
-37.59
-42.84
-49.54
-57.40
-65.47
-72.26
-75.96
-74.97
-68.51
-56.87
-41.53
-24.60
-8.26
5.86
16.93
24.87
30.03
32.90
33.93
33.48
31.90
29.62
27.10
24.85
23.27
22.47
22.24
22.07
21.40
19.86
17.55
14.88
12.43
10.52
9.00
7.39
5.07
1.66
-2.81
-7.93
-13.18
-18.11
-22.52
-26.45
-30.12
-33.86
-38.16
-43.52
-50.29
-58.37
-66.90
-74.28
-78.49
-77.71
-71.03
-58.84
-42.77
-25.13
-8.22
6.39
18.02
26.79
33.25
37.97
41.36
43.71
45.22
46.22
47.01
47.74
48.39
48.63
48.02
46.19
43.12
39.16
34.97
31.26
28.40
26.29
24.43
22.12
18.84
14.46
9.29
3.88
-1.17
-5.50
-9.05
-12.07
-15.07
-18.70
-23.54
-29.93
-37.70
-46.06
-53.54
-58.34
-58.79
-53.91
-43.84
-29.87
-14.05
1.38
14.72
25.11
32.56
37.60
40.84
42.71
43.44
43.14
42.03
40.48
38.90
37.63
36.73
35.99
35.08
33.78
32.08
30.19
28.33
26.57
24.62
21.95
18.02
12.58
5.84
-1.58
-8.88
-15.37
-20.80
-25.39
-29.74
-34.65
-40.74
-48.25
-56.72
-64.98
-71.27
-73.72
-70.91
-62.43
-49.12
-32.85
-15.99
-0.66
11.74
20.76
26.69
30.26
32.20
33.06
33.19
32.76
31.84
30.49
28.80
26.87
24.86
22.92
21.16
19.71
18.53
17.52
16.41
14.84
12.44
8.91
4.14
-1.68
-8.06
-14.39
-20.11
-24.95
-29.05
-32.97
-37.48
-43.29
-50.73
-59.47
-68.38
-75.67
-79.30
-77.62
-69.89
-56.66
-39.60
-21.01
-3.14
12.41
24.89
34.27
40.97
45.55
48.47
50.10
50.72
50.59
49.92
48.83
47.39
45.60
43.43
40.93
38.23
35.53
33.05
30.86
28.88
26.74
24.01
20.26
15.40
9.68
3.68
-1.98
-6.86
-10.91
-14.59
-18.63
-23.93
-31.16
-40.41
-50.96
-61.22
-69.06
-72.28
-69.37
-59.98
-45.21
-27.14
-8.34
8.98
23.44
34.58
42.68
48.31
52.06
54.33
55.38
55.49
54.99
54.29
53.74
53.50
53.46
53.34
52.86
51.87
50.46
48.86
47.31
45.82
44.14
41.80
38.39
33.72
28.03
21.86
15.91
10.72
6.51
3.06
-0.19
-3.91
-8.52
-13.92
-19.25
-23.01
-23.38
-18.76
-8.37
7.42
27.10
48.39
68.82
86.37
99.89
109.13
114.67
117.51
118.73
119.21
119.41
119.28
118.34
115.87
111.15
103.77
93.80
81.86
68.92
56.11
44.38
34.34
26.24
20.01
15.40
11.96
9.07
5.89
1.57
-4.47
-12.23
-21.13
-30.31
-39.09
-47.39
-55.56
-63.86
-71.94
-78.64
-82.39
-81.96
-77.07
-68.53
-57.84
-46.53
-35.79
-26.31
-18.51
-12.64
-8.79
-6.78
-6.11
-6.13
-6.29
-6.37
-6.49
-6.97
-8.11
-10.15
-13.20
-17.27
-22.22
-27.63
-32.88
-37.37
-40.86
-43.66
-46.73
-51.10
-57.49
-65.94
-75.82
-86.23
-96.49
-106.48
-116.56
-127.26
-138.91
-151.40
-164.11
-175.78
-184.48
-187.79
-183.41
-169.92
-147.64
-118.97
-87.77
-58.10
-32.88
-13.19
1.54
12.58
20.88
26.64
29.59
29.75
27.96
25.82
25.04
26.67
30.58
35.56
39.85
41.95
41.21
37.93
33.10
27.89
23.04
18.67
14.32
9.19
2.63
-5.71
-15.71
-26.92
-38.50
-49.28
-57.83
-62.68
-62.61
-57.02
-46.23
-31.47
-14.65
2.17
17.25
29.53
38.75
45.29
49.85
53.04
55.19
56.33
56.26
54.87
52.25
48.74
44.87
41.13
37.85
35.16
32.95
30.97
28.86
26.28
22.92
18.65
13.55
7.89
2.01
-3.82
-9.46
-15.01
-20.75
-27.11
-34.49
-43.07
-52.46
-61.57
-68.66
-71.78
-69.42
-61.10
-47.66
-31.04
-13.64
2.39
15.78
26.20
34.07
40.06
44.77
48.47
51.11
52.61
52.85
51.93
50.03
47.40
44.23
40.71
36.99
33.24
29.71
26.54
23.66
20.75
17.24
12.54
6.32
-1.35
-9.93
-18.59
-26.56
-33.41
-39.25
-44.67
-50.48
-57.31
-65.24
-73.56
-80.74
-84.87
-84.16
-77.54
-65.14
-48.26
-29.00
-9.63
8.00
22.93
34.95
44.48
52.15
58.52
63.90
68.42
71.96
74.30
75.16
74.28
71.58
67.26
61.79
55.88
50.24
45.41
41.55
38.48
35.63
32.33
27.99
22.33
15.48
7.88
0.20
-7.03
-13.55
-19.55
-25.58
-32.39
-40.62
-50.43
-61.23
-71.62
-79.59
-83.07
-80.53
-71.57
-57.05
-38.93
-19.65
-1.44
14.20
26.71
36.29
43.58
49.22
53.67
57.11
59.54
60.93
61.26
60.61
59.07
56.78
53.85
50.50
46.96
43.53
40.38
37.51
34.71
31.59
27.74
22.89
17.01
10.36
3.33
-3.69
-10.42
-16.84
-23.18
-29.88
-37.45
-46.13
-55.68
-65.03
-72.50
-76.17
-74.45
-66.73
-53.63
-36.83
-18.61
-1.14
14.08
26.39
35.89
43.06
48.48
52.53
55.38
57.06
57.58
57.00
55.47
53.18
50.30
46.99
43.48
40.03
36.91
34.26
31.95
29.59
26.59
22.40
16.74
9.79
2.06
-5.75
-13.02
-19.50
-25.29
-30.96
-37.24
-44.85
-54.06
-64.40
-74.50
-82.38
-85.91
-83.53
-74.84
-60.78
-43.34
-24.89
-7.56
7.29
19.23
28.57
35.95
42.00
47.11
51.36
54.62
56.69
57.40
56.73
54.74
51.62
47.63
43.18
38.75
34.85
31.81
29.64
27.92
25.86
22.68
17.90
11.57
4.30
-3.06
-9.80
-15.60
-20.68
-25.68
-31.36
-38.42
-47.14
-57.24
-67.66
-76.72
-82.40
-82.87
-77.12
-65.43
-49.28
-30.96
-12.86
3.27
16.56
27.04
35.25
41.82
47.18
51.49
54.75
56.88
57.87
57.77
56.65
54.56
51.52
47.60
42.99
38.07
33.32
29.15
25.75
22.92
20.18
16.87
12.44
6.73
-0.02
-7.18
-14.08
-20.22
-25.57
-30.50
-35.80
-42.26
-50.39
-60.08
-70.44
-79.83
-86.27
-88.01
-84.03
-74.44
-60.42
-43.79
-26.54
-10.26
4.08
16.10
25.79
33.34
38.99
43.04
45.80
47.59
48.63
48.98
48.64
47.56
45.79
43.44
40.71
37.86
35.08
32.54
30.25
28.01
25.39
21.85
16.94
10.56
3.09
-4.72
-12.00
-18.18
-23.18
-27.46
-31.82
-37.13
-44.02
-52.58
-62.14
-71.36
-78.30
-81.00
-78.09
-69.23
-55.32
-38.24
-20.19
-3.10
11.82
24.14
33.96
41.59
47.30
51.28
53.65
54.58
54.36
53.37
51.95
50.34
48.58
46.52
43.99
40.90
37.43
33.93
30.82
28.32
26.28
24.18
21.36
17.29
11.80
5.24
-1.67
-8.20
-13.82
-18.48
-22.56
-26.68
-31.51
-37.61
-45.22
-54.08
-63.30
-71.38
-76.43
-76.73
-71.25
-60.15
-44.80
-27.35
-10.10
5.16
17.50
26.81
33.51
38.24
41.53
43.78
45.25
46.11
46.46
46.31
45.59
44.15
41.92
38.99
35.72
32.59
30.06
28.28
27.05
25.78
23.84
20.70
16.21
10.60
4.33
-2.09
-8.28
-14.06
-19.50
-24.85
-30.59
-37.25
-45.15
-54.18
-63.45
-71.46
-76.30
-76.32
-70.71
-59.77
-44.94
-28.28
-11.93
2.51
14.17
22.89
28.97
32.91
35.16
36.07
35.93
34.97
33.47
31.66
29.73
27.77
25.83
23.95
22.19
20.64
19.30
18.04
16.56
14.41
11.24
6.87
1.44
-4.65
-10.87
-16.77
-22.13
-27.06
-31.96
-37.41
-43.92
-51.61
-60.02
-67.93
-73.70
-75.60
-72.38
-63.81
-50.70
-34.79
-18.19
-2.86
9.89
19.51
26.15
30.49
33.25
35.04
36.16
36.62
36.31
35.09
32.98
30.12
26.75
23.17
19.68
16.61
14.15
12.38
11.10
9.88
8.19
5.57
1.86
-2.77
-7.88
-13.04
-18.00
-22.78
-27.74
-33.42
-40.39
-48.90
-58.57
-68.31
-76.35
-80.71
-79.78
-72.87
-60.52
-44.36
-26.58
-9.34
5.78
17.98
27.23
33.93
38.76
42.31
45.01
46.98
48.19
48.51
47.88
46.40
44.33
42.01
39.73
37.62
35.59
33.40
30.71
27.21
22.74
17.31
11.14
4.63
-1.77
-7.64
-12.79
-17.33
-21.63
-26.34
-32.13
-39.53
-48.48
-58.16
-66.89
-72.59
-73.30
-67.99
-56.95
-41.78
-24.84
-8.48
5.61
16.75
25.09
31.29
36.05
39.90
43.03
45.40
46.88
47.29
46.51
44.57
41.61
37.88
33.78
29.73
26.20
23.51
21.74
20.61
19.53
17.76
14.72
10.25
4.65
-1.45
-7.46
-13.05
-18.30
-23.63
-29.58
-36.66
-45.05
-54.46
-63.98
-72.13
-77.12
-77.30
-71.76
-60.73
-45.62
-28.59
-11.92
2.64
14.24
22.82
28.86
33.02
35.79
37.51
38.36
38.50
38.11
37.38
36.40
35.19
33.63
31.61
29.18
26.51
23.87
21.51
19.44
17.37
14.85
11.43
6.91
1.46
-4.47
-10.33
-15.67
-20.36
-24.66
-29.12
-34.44
-41.12
-49.21
-58.02
-66.10
-71.47
-72.27
-67.34
-56.72
-41.72
-24.52
-7.51
7.44
19.34
28.10
34.23
38.44
41.30
43.12
44.02
44.06
43.30
41.87
39.87
37.38
34.47
31.25
27.92
24.77
22.05
19.80
17.76
15.47
12.38
8.19
2.96
-2.93
-8.97
-14.73
-20.10
-25.27
-30.63
-36.70
-43.84
-52.14
-61.07
-69.49
-75.64
-77.63
-74.10
-64.73
-50.52
-33.45
-15.91
0.07
13.26
23.40
30.89
36.41
40.58
43.80
46.26
48.04
49.17
49.61
49.34
48.30
46.48
43.99
41.07
38.12
35.51
33.50
32.09
30.90
29.31
26.62
22.42
16.64
9.67
2.11
-5.41
-12.50
-19.13
-25.59
-32.37
-39.96
-48.60
-58.03
-67.34
-74.97
-79.09
-78.10
-71.33
-59.34
-43.83
-27.12
-11.33
2.14
12.91
21.26
27.81
33.06
37.25
40.50
42.84
44.40
45.31
45.59
45.14
43.78
41.40
38.05
34.03
29.81
25.86
22.52
19.84
17.52
15.08
12.02
8.03
3.18
-2.18
-7.55
-12.51
-16.94
-21.11
-25.56
-31.00
-38.00
-46.64
-56.32
-65.64
-72.69
-75.53
-72.82
-64.35
-51.18
-35.27
-18.83
-3.73
8.95
18.94
26.50
32.12
36.31
39.49
41.96
43.95
45.47
46.38
46.45
45.42
43.21
39.96
36.09
32.12
28.55
25.67
23.52
21.87
20.23
18.01
14.72
10.15
4.45
-1.86
-8.10
-13.64
-18.20
-21.97
-25.60
-29.93
-35.72
-43.26
-52.15
-61.19
-68.63
-72.55
-71.48
-64.89
-53.39
-38.60
-22.61
-7.42
5.60
15.79
23.18
28.19
31.37
33.21
34.13
34.47
34.45
34.25
33.96
33.54
32.87
31.78
30.19
28.21
26.02
23.86
21.82
19.80
17.50
14.57
10.84
6.34
1.39
-3.61
-8.29
-12.55
-16.53
-20.55
-25.12
-30.71
-37.66
-45.83
-54.50
-62.22
-67.17
-67.63
-62.63
-52.34
-38.15
-22.17
-6.57
7.02
17.90
26.12
32.18
36.56
39.58
41.38
42.04
41.72
40.67
39.10
37.20
35.04
32.71
30.35
28.18
26.32
24.80
23.41
21.80
19.53
16.32
12.07
6.96
1.36
-4.34
-9.81
-14.92
-19.81
-24.86
-30.61
-37.54
-45.82
-55.02
-64.01
-71.07
-74.32
-72.36
-64.76
-52.33
-36.87
-20.64
-5.65
6.86
16.52
23.65
28.85
32.64
35.34
37.07
37.92
38.00
37.46
36.42
34.90
32.84
30.20
27.08
23.75
20.60
17.94
15.86
14.11
12.19
9.54
5.78
0.89
-4.81
-10.77
-16.52
-21.79
-26.73
-31.82
-37.76
-45.14
-54.06
-63.97
-73.48
-80.73
-83.79
-81.31
-73.04
-59.92
-43.85
-27.01
-11.31
2.12
12.96
21.49
28.23
33.60
37.88
41.19
43.62
45.23
46.04
46.04
45.17
43.38
40.80
37.73
34.58
31.78
29.52
27.73
26.04
23.94
20.93
16.76
11.49
5.42
-0.88
-6.91
-12.29
-17.00
-21.35
-25.90
-31.30
-38.01
-45.97
-54.49
-62.12
-67.03
-67.45
-62.37
-51.90
-37.30
-20.70
-4.35
10.02
21.53
30.20
36.58
41.36
45.06
47.91
49.93
51.05
51.22
50.49
48.96
46.79
44.10
41.03
37.75
34.39
31.15
28.23
25.73
23.59
21.55
19.15
15.89
11.50
6.04
0.01
-5.89
-11.03
-15.13
-18.45
-21.66
-25.65
-31.16
-38.46
-47.10
-55.90
-63.12
-66.90
-65.80
-59.31
-48.07
-33.65
-18.13
-3.42
9.12
18.91
26.06
30.98
34.17
36.05
36.95
37.12
36.74
35.91
34.65
32.89
30.53
27.58
24.20
20.80
17.82
15.63
14.29
13.43
12.41
10.55
7.39
2.88
-2.56
-8.33
-13.79
-18.54
-22.59
-26.29
-30.22
-34.98
-41.03
-48.34
-56.30
-63.65
-68.69
-69.78
-65.88
-56.96
-44.07
-29.04
-13.89
-0.25
10.99
19.70
26.20
30.94
34.21
36.14
36.79
36.23
34.66
32.38
29.78
27.22
25.00
23.23
21.92
20.93
20.06
19.09
17.82
16.09
13.74
10.60
6.64
1.94
-3.20
-8.38
-13.24
-17.64
-21.79
-26.25
-31.67
-38.51
-46.66
-55.28
-62.85
-67.56
-67.87
-63.02
-53.35
-40.16
-25.29
-10.57
2.69
13.84
22.80
29.76
34.94
38.50
40.58
41.49
41.64
41.54
41.57
41.88
42.30
42.43
41.86
40.34
37.92
34.91
31.75
28.83
26.31
24.05
21.63
18.51
14.22
8.50
1.43
-6.62
-15.08
-23.47
-31.47
-39.07
-46.46
-53.85
-61.17
-67.85
-72.79
-74.69
-72.43
-65.52
-54.42
-40.39
-25.22
-10.64
2.10
12.43
20.43
26.51
31.19
34.80
37.57
39.59
40.96
41.81
42.19
42.10
41.43
40.05
37.92
35.20
32.24
29.49
27.27
25.56
23.99
21.91
18.70
14.00
7.94
1.04
-5.94
-12.32
-17.75
-22.31
-26.45
-30.83
-36.12
-42.70
-50.46
-58.65
-65.89
-70.48
-70.88
-66.27
-56.87
-43.93
-29.33
-14.94
-2.21
8.23
16.38
22.65
27.52
31.30
34.14
36.03
37.01
37.19
36.77
35.96
34.91
33.62
32.03
30.12
27.98
25.84
23.92
22.37
21.07
19.73
17.87
15.15
11.42
6.83
1.72
-3.43
-8.24
-12.54
-16.45
-20.41
-25.06
-31.02
-38.64
-47.65
-57.02
-65.07
-69.90
-69.93
-64.48
-54.01
-39.98
-24.38
-9.18
4.14
14.82
22.75
28.26
31.92
34.29
35.83
36.84
37.44
37.63
37.39
36.67
35.50
33.83
31.67
29.03
26.04
22.93
19.99
17.41
15.14
12.88
10.15
6.60
2.17
-2.85
-7.91
-12.55
-16.54
-20.07
-23.63
-27.85
-33.32
-40.25
-48.37
-56.74
-63.90
-68.07
-67.76
-62.20
-51.72
-37.66
-22.04
-6.86
6.41
17.06
25.13
30.99
35.09
37.75
39.18
39.55
39.17
38.39
37.56
36.84
36.17
35.27
33.83
31.73
29.11
26.37
23.93
22.05
20.64
19.26
17.29
14.19
9.72
3.98
-2.50
-9.10
-15.24
-20.64
-25.39
-29.93
-34.91
-40.83
-47.82
-55.33
-62.11
-66.46
-66.71
-61.75
-51.47
-36.82
-19.54
-1.66
15.09
29.61
41.59
51.32
59.41
66.48
72.98
79.07
84.61
89.36
93.08
95.71
97.44
98.60
99.48
100.27
101.01
101.66
102.25
102.89
103.67
104.60
105.53
106.19
106.30
105.59
103.80
100.58
95.50
88.10
78.08
65.37
50.16
32.84
13.96
-5.79
-25.56
-44.31
-60.76
-73.51
-81.24
-83.04
-78.80
-69.36
-56.56
-42.70
-29.93
-19.55
-11.74
-5.93
-1.26
2.73
6.04
8.48
10.18
11.90
14.78
19.79
27.14
36.09
45.12
52.64
57.46
59.17
58.00
54.52
49.37
43.01
35.83
28.16
20.44
13.09
6.43
0.52
-4.90
-10.22
-15.73
-21.53
-27.50
-33.43
-39.22
-44.84
-50.26
-55.30
-59.58
-62.71
-64.52
-65.26
-65.50
-65.93
-67.03
-68.94
-71.51
-74.49
-77.82
-81.52
-85.68
-90.14
-94.50
-98.20
-100.87
-102.62
-104.16
-106.64
-111.15
-118.20
-127.42
-137.61
-147.19
-154.83
-160.03
-163.28
-165.83
-169.14
-174.34
-181.75
-190.69
-199.52
-205.88
-207.18
-201.35
-187.67
-167.16
-142.66
-117.98
-96.65
-80.65
-69.75
-61.84
-53.88
-43.31
-28.90
-11.07
8.64
28.33
46.40
61.91
74.47
84.05
90.67
94.41
95.49
94.39
91.90
88.90
86.17
84.06
82.42
80.68
78.25
74.84
70.58
66.06
61.88
58.43
55.56
52.62
48.78
43.39
36.35
28.16
19.74
12.02
5.61
0.51
-3.85
-8.41
-14.16
-21.63
-30.73
-40.46
-49.18
-54.91
-55.99
-51.53
-41.79
-28.12
-12.60
2.62
15.85
26.17
33.48
38.25
41.17
42.92
43.94
44.46
44.53
44.09
43.11
41.59
39.59
37.23
34.70
32.19
29.85
27.69
25.62
23.38
20.72
17.39
13.26
8.36
2.85
-3.06
-9.10
-15.08
-20.93
-26.81
-33.11
-40.25
-48.47
-57.42
-65.95
-72.29
-74.47
-71.05
-61.67
-47.31
-29.93
-11.94
4.59
18.43
29.34
37.82
44.73
50.82
56.43
61.46
65.51
68.15
69.17
68.76
67.32
65.39
63.39
61.52
59.80
58.14
56.44
54.61
52.54
50.06
46.99
43.20
38.70
33.59
27.99
21.91
15.18
7.39
-1.90
-12.95
-25.54
-38.72
-50.89
-60.12
-64.67
-63.54
-56.81
-45.62
-31.80
-17.32
-3.76
8.03
17.92
26.33
33.87
41.00
47.78
53.87
58.58
61.20
61.26
58.78
54.23
48.40
42.19
36.32
31.19
26.83
22.94
19.06
14.67
9.44
3.30
-3.59
-10.92
-18.33
-25.66
-32.94
-40.44
-48.57
-57.62
-67.46
-77.31
-85.72
-90.85
-90.96
-85.00
-73.04
-56.28
-36.76
-16.70
2.07
18.41
31.97
42.90
51.65
58.68
64.37
68.91
72.39
74.71
75.71
75.24
73.29
70.04
65.87
61.32
56.93
53.14
50.09
47.64
45.31
42.47
38.54
33.19
26.49
18.93
11.23
4.09
-2.12
-7.43
-12.41
-17.86
-24.59
-33.03
-42.92
-53.19
-62.13
-67.70
-68.14
-62.57
-51.29
-35.74
-18.04
-0.34
15.71
29.29
40.27
48.99
55.79
60.91
64.41
66.31
66.69
65.80
63.97
61.55
58.87
56.09
53.24
50.32
47.24
44.01
40.71
37.53
34.53
31.68
28.69
25.18
20.75
15.18
8.57
1.27
-6.15
-13.18
-19.46
-24.94
-29.81
-34.44
-39.42
-45.27
-52.37
-60.64
-69.40
-77.23
-82.28
-82.83
-77.78
-67.15
-52.06
-34.44
-16.40
0.33
14.71
26.39
35.51
42.40
47.37
50.69
52.59
53.31
53.09
52.22
50.98
49.60
48.25
46.92
45.53
43.95
42.11
40.03
37.85
35.70
33.64
31.55
29.17
26.18
22.34
17.57
12.03
6.00
-0.12
-5.96
-11.29
-16.02
-20.29
-24.47
-29.00
-34.36
-40.81
-48.20
-55.80
-62.36
-66.31
-66.24
-61.36
-51.82
-38.68
-23.62
-8.42
5.45
17.11
26.23
32.87
37.24
39.60
40.26
39.53
37.83
35.64
33.37
31.36
29.75
28.51
27.50
26.53
25.41
24.08
22.54
20.79
18.88
16.75
14.33
11.46
7.99
3.85
-0.86
-5.87
-10.75
-15.12
-18.76
-21.69
-24.21
-26.73
-29.69
-33.45
-38.19
-43.83
-49.91
-55.55
-59.53
-60.54
-57.56
-50.29
-39.28
-25.91
-11.92
1.07
11.91
20.15
25.82
29.26
30.87
31.01
30.01
28.26
26.19
24.18
22.51
21.24
20.21
19.15
17.83
16.14
14.20
12.26
10.59
9.37
8.59
7.99
7.15
5.67
3.25
-0.11
-4.19
-8.54
-12.73
-16.47
-19.72
-22.66
-25.65
-29.06
-33.20
-38.12
-43.50
-48.64
-52.42
-53.62
-51.28
-45.08
-35.54
-23.94
-11.95
-1.10
7.62
13.93
18.11
20.67
22.00
22.27
21.53
19.86
17.52
14.97
12.69
11.03
10.06
9.58
9.30
9.01
8.68
8.46
8.51
8.94
9.60
10.17
10.17
9.19
7.02
3.73
-0.30
-4.52
-8.38
-11.54
-14.01
-16.15
-18.53
-21.69
-25.88
-30.88
-36.01
-40.26
-42.53
-42.00
-38.35
-31.85
-23.28
-13.74
-4.34
4.01
10.78
15.78
19.16
21.20
22.18
22.36
21.90
20.99
19.82
18.60
17.52
16.65
15.95
15.20
14.22
12.90
11.35
9.80
8.51
7.60
6.93
6.21
5.01
3.05
0.26
-3.17
-6.86
-10.41
-13.48
-15.94
-17.86
-19.53
-21.38
-23.86
-27.23
-31.38
-35.77
-39.45
-41.35
-40.58
-36.84
-30.43
-22.18
-13.16
-4.33
3.63
10.36
15.70
19.59
21.98
22.96
22.71
21.60
20.05
18.47
17.14
16.17
15.58
15.20
14.85
14.32
13.39
12.05
10.37
8.63
7.06
5.78
4.66
3.38
1.58
-0.99
-4.27
-7.93
-11.48
-14.50
-16.76
-18.36
-19.69
-21.31
-23.71
-27.15
-31.48
-36.11
-40.16
-42.61
-42.63
-39.73
-33.98
-25.97
-16.69
-7.28
1.17
7.94
12.78
15.88
17.63
18.44
18.56
18.09
17.08
15.67
14.13
12.77
11.81
11.28
11.02
10.81
10.48
9.94
9.16
8.16
6.96
5.57
4.04
2.42
0.68
-1.27
-3.55
-6.22
-9.22
-12.34
-15.28
-17.78
-19.75
-21.31
-22.81
-24.68
-27.32
-30.88
-35.17
-39.57
-43.16
-44.95
-44.10
-40.23
-33.51
-24.65
-14.71
-4.90
3.75
10.62
15.50
18.61
20.42
21.40
21.95
22.29
22.49
22.59
22.60
22.57
22.50
22.42
22.36
22.36
22.46
22.68
22.95
23.18
23.25
23.12
22.83
22.47
22.04
21.57
20.99
20.34
19.75
19.41
19.49
20.08
21.09
22.39
23.76
25.00
25.99
26.81
27.80
29.66
33.32
39.73
49.48
62.51
78.02
94.65
110.77
124.77
135.35
141.64
143.34
140.82
135.03
127.29
118.87
110.70
103.07
95.77
88.28
80.08
70.77
60.20
48.42
35.71
22.59
9.82
-1.79
-11.67
-19.64
-26.05
-31.54
-36.78
-42.13
-47.57
-52.83
-57.61
-61.76
-65.39
-68.78
-72.20
-75.78
-79.48
-83.12
-86.59
-89.83
-93.02
-96.33
-99.86
-103.44
-106.56
-108.52
-108.69
-106.86
-103.46
-99.49
-96.29
-95.00
-96.20
-99.69
-104.72
-110.25
-115.40
-119.68
-123.10
-126.00
-128.89
-132.29
-136.56
-141.72
-147.29
-152.07
-154.25
-151.83
-143.29
-128.26
-107.87
-84.49
-61.02
-40.07
-23.19
-10.80
-2.44
2.71
5.39
6.15
5.44
3.76
1.64
-0.53
-2.67
-5.13
-8.55
-13.53
-20.26
-28.27
-36.38
-43.07
-46.76
-46.43
-41.81
-33.51
-22.72
-10.92
0.54
10.72
19.13
25.65
30.36
33.39
34.87
35.00
34.10
32.59
30.96
29.62
28.77
28.31
27.98
27.49
26.67
25.56
24.35
23.20
22.12
20.89
19.14
16.52
12.89
8.39
3.38
-1.66
-6.32
-10.35
-13.78
-16.83
-19.94
-23.69
-28.54
-34.71
-41.84
-48.99
-54.68
-57.33
-55.71
-49.38
-38.91
-25.65
-11.34
2.35
14.24
23.78
30.96
36.11
39.66
41.94
43.18
43.56
43.25
42.51
41.60
40.69
39.87
39.07
38.17
37.12
35.95
34.74
33.56
32.30
30.72
28.51
25.38
21.24
16.22
10.64
4.92
-0.54
-5.48
-9.87
-14.00
-18.41
-23.73
-30.36
-38.24
-46.64
-54.23
-59.40
-60.67
-57.19
-49.00
-37.00
-22.71
-7.82
6.18
18.30
28.07
35.47
40.78
44.37
46.66
48.00
48.71
49.01
49.07
48.93
48.56
47.91
46.93
45.63
44.11
42.45
40.70
38.80
36.60
33.93
30.63
26.59
21.84
16.49
10.77
4.92
-0.81
-6.28
-11.59
-17.10
-23.31
-30.60
-38.82
-47.07
-53.77
-57.06
-55.48
-48.60
-37.12
-22.70
-7.33
7.22
19.81
30.00
37.85
43.72
47.98
51.01
53.11
54.50
55.30
55.49
55.03
53.94
52.31
50.33
48.23
46.19
44.28
42.44
40.51
38.26
35.45
31.94
27.66
22.72
17.37
11.87
6.45
1.18
-4.11
-9.82
-16.43
-24.25
-33.17
-42.40
-50.50
-55.65
-56.21
-51.31
-41.19
-27.18
-11.29
4.48
18.55
30.08
38.89
45.16
49.23
51.45
52.17
51.74
50.57
48.96
47.13
45.14
42.94
40.47
37.77
35.01
32.39
30.04
27.90
25.72
23.14
19.82
15.60
10.59
5.11
-0.42
-5.63
-10.35
-14.68
-18.95
-23.71
-29.48
-36.52
-44.55
-52.65
-59.34
-62.98
-62.20
-56.37
-45.80
-31.74
-15.97
-0.42
13.35
24.40
32.48
37.91
41.29
43.23
44.22
44.56
44.37
43.72
42.63
41.18
39.40
37.34
35.07
32.73
30.48
28.42
26.51
24.55
22.21
19.12
15.10
10.20
4.71
-0.96
-6.38
-11.29
-15.67
-19.73
-23.92
-28.75
-34.68
-41.82
-49.71
-57.25
-62.83
-64.76
-61.86
-53.84
-41.49
-26.46
-10.78
3.76
15.97
25.44
32.35
37.19
40.45
42.49
43.47
43.49
42.64
41.09
39.04
36.73
34.34
31.93
29.53
27.13
24.74
22.41
20.13
17.79
15.18
12.02
8.15
3.60
-1.38
-6.34
-10.87
-14.85
-18.49
-22.33
-26.97
-32.87
-40.09
-48.17
-56.12
-62.58
-66.11
-65.43
-59.96
-49.92
-36.44
-21.24
-6.20
7.19
18.09
26.38
32.35
36.49
39.20
40.71
41.23
40.96
40.18
39.16
38.10
37.00
35.74
34.18
32.28
30.15
28.03
26.19
24.76
23.66
22.62
21.16
18.84
15.36
10.73
5.23
-0.58
-6.17
-11.13
-15.41
-19.33
-23.50
-28.61
-35.09
-42.90
-51.28
-58.95
-64.33
-66.01
-63.19
-55.90
-44.98
-31.78
-17.79
-4.28
7.85
18.07
26.15
32.09
36.09
38.45
39.57
39.84
39.61
39.09
38.35
37.39
36.11
34.45
32.40
30.06
27.57
25.18
23.06
21.23
19.52
17.58
15.01
11.49
7.00
1.74
-3.86
-9.30
-14.19
-18.38
-21.99
-25.46
-29.34
-34.17
-40.23
-47.36
-54.78
-61.21
-65.13
-65.16
-60.55
-51.43
-38.84
-24.39
-9.80
3.55
14.90
24.01
31.02
36.22
39.82
41.96
42.73
42.34
41.04
39.17
37.08
35.00
33.03
31.16
29.37
27.60
25.91
24.32
22.83
21.33
19.63
17.51
14.76
11.28
7.10
2.42
-2.44
-7.17
-11.53
-15.50
-19.30
-23.28
-27.83
-33.21
-39.49
-46.50
-53.73
-60.34
-65.21
-67.09
-64.92
-58.24
-47.48
-33.91
-19.29
-5.40
6.56
16.13
23.45
29.01
33.18
36.18
37.96
38.54
38.10
37.07
35.90
34.94
34.24
33.59
32.62
31.05
28.87
26.34
23.88
21.80
20.21
18.84
17.22
14.82
11.33
6.81
1.67
-3.50
-8.19
-12.14
-15.45
-18.49
-21.69
-25.48
-30.07
-35.46
-41.36
-47.11
-51.76
-54.18
-53.36
-48.79
-40.66
-29.88
-17.74
-5.62
5.38
14.57
21.67
26.63
29.57
30.77
30.57
29.41
27.74
25.92
24.24
22.91
22.04
21.63
21.60
21.73
21.77
21.57
21.04
20.22
19.14
17.70
15.71
12.93
9.23
4.70
-0.32
-5.35
-9.97
-13.99
-17.49
-20.78
-24.32
-28.53
-33.58
-39.20
-44.64
-48.71
-50.14
-47.95
-41.85
-32.39
-20.84
-8.73
2.52
11.96
19.16
24.12
27.00
28.05
27.60
26.06
23.95
21.76
19.85
18.33
17.12
15.99
14.79
13.50
12.26
11.24
10.50
9.89
9.07
7.61
5.23
1.85
-2.31
-6.88
-11.47
-15.85
-19.93
-23.81
-27.72
-31.99
-36.91
-42.57
-48.69
-54.46
-58.64
-59.88
-57.12
-50.05
-39.25
-26.07
-12.24
0.68
11.56
19.91
25.75
29.38
31.22
31.70
31.21
30.08
28.56
26.85
25.08
23.30
21.53
19.78
18.10
16.56
15.19
13.99
12.81
11.40
9.43
6.63
2.92
-1.53
-6.35
-11.09
-15.38
-19.03
-22.15
-25.07
-28.27
-32.22
-37.17
-42.92
-48.76
-53.47
-55.57
-53.83
-47.68
-37.44
-24.30
-9.89
4.21
16.85
27.49
36.08
42.86
48.12
52.15
55.26
57.74
59.93
62.13
64.53
67.17
69.88
72.41
74.49
76.01
77.14
78.28
79.96
82.54
86.02
89.94
93.67
96.57
98.38
99.22
99.57
100.08
101.54
104.74
110.32
118.44
128.22
137.55
143.50
143.18
134.97
119.08
97.50
73.03
48.23
24.81
3.73
-14.34
-28.74
-38.98
-45.19
-48.40
-50.21
-52.07
-54.68
-57.82
-60.85
-63.41
-65.68
-68.28
-71.69
-75.90
-80.33
-84.29
-87.29
-89.24
-90.27
-90.43
-89.58
-87.38
-83.63
-78.38
-71.99
-65.01
-57.88
-50.89
-44.08
-37.44
-30.97
-24.83
-19.34
-14.95
-12.06
-10.85
-11.01
-11.64
-11.40
-8.85
-2.99
6.19
17.49
28.72
37.34
41.40
40.18
34.33
25.49
15.64
6.40
-1.35
-7.44
-12.14
-15.80
-18.61
-20.63
-21.88
-22.52
-22.82
-23.15
-23.78
-24.83
-26.31
-28.16
-30.38
-33.02
-36.13
-39.69
-43.55
-47.39
-50.81
-53.41
-54.83
-54.82
-53.32
-50.59
-47.20
-43.96
-41.77
-41.29
-42.79
-46.03
-50.31
-54.48
-57.12
-56.72
-52.03
-42.48
-28.41
-11.27
6.87
23.72
37.54
47.46
53.53
56.45
57.15
56.43
54.84
52.66
50.11
47.29
44.31
41.14
37.63
33.54
28.70
23.08
16.94
10.77
5.11
0.42
-3.23
-6.15
-8.92
-12.14
-16.10
-20.66
-25.31
-29.38
-32.34
-34.06
-34.80
-35.14
-35.80
-37.36
-40.17
-44.19
-49.05
-54.05
-58.31
-60.90
-60.90
-57.58
-50.51
-39.72
-25.84
-10.04
6.13
21.11
33.65
43.04
49.14
52.23
52.83
51.53
49.01
45.91
42.88
40.43
38.86
38.21
38.31
38.84
39.40
39.64
39.30
38.29
36.72
34.80
32.75
30.63
28.42
25.92
22.96
19.47
15.60
11.63
7.83
4.37
1.24
-1.72
-4.71
-7.79
-10.89
-13.79
-16.21
-17.98
-19.11
-19.74
-20.14
-20.60
-21.35
-22.51
-24.09
-25.97
-28.03
-30.12
-32.21
-34.28
-36.29
-38.12
-39.53
-40.27
-40.24
-39.61
-38.84
-38.46
-38.87
-40.12
-41.95
-43.98
-45.99
-48.01
-50.28
-53.10
-56.60
-60.65
-64.95
-69.13
-72.93
-76.21
-78.98
-81.18
-82.66
-83.21
-82.66
-81.02
-78.58
-75.67
-72.51
-69.04
-64.91
-59.79
-53.69
-47.18
-41.34
-37.39
-36.14
-37.63
-41.07
-45.21
-48.83
-51.22
-52.44
-53.20
-54.64
-57.87
-63.65
-72.12
-82.68
-93.91
-103.69
-109.59
-109.48
-102.23
-88.22
-69.41
-48.82
-29.53
-13.90
-3.02
3.04
4.80
2.64
-3.23
-12.54
-24.33
-36.68
-46.91
-52.31
-51.08
-43.00
-29.52
-13.16
3.32
17.83
29.34
37.83
43.90
48.29
51.44
53.43
54.08
53.22
50.94
47.66
44.04
40.72
38.15
36.37
35.11
33.91
32.28
29.94
26.75
22.73
17.99
12.68
7.02
1.21
-4.55
-10.19
-15.80
-21.72
-28.42
-36.34
-45.56
-55.43
-64.51
-70.73
-71.97
-66.79
-55.02
-37.92
-17.80
2.65
21.19
36.44
48.07
56.49
62.51
66.84
69.99
72.15
73.29
73.32
72.25
70.20
67.42
64.22
60.92
57.73
54.80
52.11
49.55
46.88
43.79
39.90
34.91
28.75
21.56
13.75
5.79
-1.96
-9.53
-17.34
-26.03
-35.99
-46.87
-57.35
-65.30
-68.48
-65.26
-55.33
-39.81
-20.92
-1.21
17.15
32.80
45.31
54.87
61.99
67.26
71.19
74.15
76.40
78.00
78.89
78.95
78.07
76.28
73.79
70.88
67.83
64.79
61.74
58.50
54.84
50.53
45.41
39.48
32.88
25.87
18.78
11.91
5.33
-1.21
-8.21
-16.15
-25.10
-34.39
-42.54
-47.59
-47.67
-41.74
-29.95
-13.70
4.80
23.13
39.33
52.30
61.77
68.18
72.25
74.67
75.90
76.13
75.34
73.47
70.51
66.65
62.18
57.48
52.95
48.82
45.19
41.93
38.79
35.40
31.50
26.91
21.62
15.79
9.62
3.27
-3.16
-9.69
-16.52
-23.97
-32.33
-41.68
-51.55
-60.79
-67.64
-70.18
-66.94
-57.53
-42.86
-24.86
-5.96
11.70
26.61
38.20
46.60
52.35
56.13
58.56
60.11
61.08
61.53
61.35
60.35
58.38
55.41
51.62
47.39
43.10
39.05
35.34
31.86
28.31
24.39
19.81
14.47
8.42
1.89
-4.77
-11.20
-17.18
-22.72
-28.13
-34.04
-41.14
-49.77
-59.58
-69.25
-76.75
-79.88
-77.03
-67.82
-53.33
-35.69
-17.36
-0.43
13.97
25.58
34.77
42.07
47.84
52.20
55.18
56.81
57.27
56.82
55.75
54.26
52.46
50.28
47.64
44.48
40.89
37.11
33.48
30.30
27.67
25.36
22.85
19.51
14.89
8.96
2.08
-5.08
-11.87
-17.87
-23.05
-27.64
-32.08
-36.85
-42.38
-48.98
-56.60
-64.62
-71.80
-76.42
-76.77
-71.70
-61.15
-46.21
-28.84
-11.23
4.80
18.18
28.67
36.59
42.51
46.91
50.17
52.41
53.70
54.04
53.50
52.19
50.32
48.09
45.73
43.42
41.17
38.95
36.68
34.30
31.82
29.28
26.69
23.88
20.62
16.68
11.98
6.62
0.90
-4.86
-10.40
-15.61
-20.51
-25.17
-29.69
-34.20
-38.90
-44.11
-50.13
-57.07
-64.56
-71.66
-76.89
-78.61
-75.58
-67.37
-54.68
-39.13
-22.77
-7.50
5.44
15.58
23.10
28.51
32.43
35.28
37.29
38.54
39.07
38.94
38.28
37.27
36.05
34.71
33.25
31.61
29.77
27.76
25.72
23.78
22.00
20.26
18.33
15.97
13.01
9.46
5.47
1.30
-2.80
-6.71
-10.37
-13.83
-17.14
-20.33
-23.46
-26.70
-30.36
-34.77
-40.10
-46.11
-51.93
-56.19
-57.37
-54.35
-46.86
-35.67
-22.33
-8.72
3.58
13.64
21.22
26.59
30.22
32.54
33.86
34.42
34.49
34.33
34.13
33.99
33.78
33.28
32.19
30.37
27.94
25.20
22.53
20.23
18.35
16.72
15.03
12.88
9.99
6.22
1.65
-3.48
-8.73
-13.65
-17.84
-21.18
-23.85
-26.34
-29.32
-33.37
-38.74
-45.12
-51.69
-57.18
-60.26
-59.82
-55.39
-47.26
-36.45
-24.40
-12.57
-2.09
6.45
12.99
17.81
21.27
23.67
25.16
25.84
25.80
25.21
24.30
23.29
22.27
21.24
20.09
18.72
17.10
15.33
13.55
11.85
10.22
8.48
6.37
3.62
0.13
-4.01
-8.50
-12.98
-17.15
-20.80
-24.00
-26.92
-29.83
-33.07
-36.95
-41.62
-46.95
-52.43
-57.07
-59.65
-59.04
-54.63
-46.59
-35.93
-24.13
-12.74
-2.94
4.78
10.45
14.47
17.36
19.48
21.04
22.14
22.83
23.16
23.26
23.20
22.99
22.59
21.86
20.74
19.26
17.58
15.99
14.71
13.76
12.96
11.86
9.98
7.04
3.06
-1.56
-6.27
-10.57
-14.22
-17.29
-20.09
-23.04
-26.55
-30.88
-36.13
-42.05
-48.02
-53.03
-55.86
-55.44
-51.19
-43.31
-32.80
-21.09
-9.66
0.35
8.36
14.33
18.52
21.36
23.20
24.30
24.81
24.84
24.51
23.96
23.33
22.69
22.02
21.16
19.99
18.45
16.67
14.84
13.22
11.85
10.54
8.93
6.56
3.18
-1.14
-6.05
-10.99
-15.49
-19.38
-22.86
-26.41
-30.62
-35.93
-42.47
-49.97
-57.72
-64.60
-69.21
-70.20
-66.70
-58.65
-46.92
-33.13
-19.14
-6.43
4.25
12.97
20.22
26.60
32.41
37.66
42.24
46.09
49.29
52.08
54.65
56.91
58.53
58.93
57.56
54.08
48.59
41.64
34.12
27.04
21.27
17.19
14.64
12.96
11.26
8.88
5.58
1.54
-2.82
-7.19
-11.58
-16.33
-21.84
-28.31
-35.57
-43.04
-49.90
-55.19
-58.00
-57.59
-53.57
-46.05
-35.71
-23.74
-11.50
-0.22
9.25
16.53
21.69
24.96
26.71
27.30
27.13
26.61
26.13
25.97
26.23
26.80
27.44
27.81
27.63
26.69
24.96
22.54
19.58
16.27
12.67
8.76
4.46
-0.23
-5.19
-10.06
-14.39
-17.88
-20.52
-22.72
-25.20
-28.78
-33.99
-40.86
-48.67
-56.13
-61.62
-63.66
-61.39
-54.75
-44.59
-32.31
-19.52
-7.56
2.68
10.90
17.19
21.87
25.32
27.84
29.63
30.89
31.79
32.52
33.19
33.84
34.31
34.39
33.88
32.72
31.10
29.30
27.56
25.92
24.19
22.06
19.27
15.79
11.77
7.38
2.76
-2.13
-7.40
-13.12
-19.28
-25.74
-32.43
-39.26
-46.04
-52.34
-57.31
-59.76
-58.60
-53.25
-44.00
-32.02
-18.98
-6.49
4.29
12.83
19.10
23.36
25.90
27.06
27.10
26.36
25.16
23.74
22.31
20.96
19.68
18.40
16.97
15.25
13.21
10.97
8.74
6.75
5.05
3.40
1.40
-1.36
-5.06
-9.57
-14.44
-19.16
-23.32
-26.76
-29.67
-32.42
-35.55
-39.55
-44.74
-51.09
-58.06
-64.51
-68.95
-69.91
-66.40
-58.33
-46.59
-32.76
-18.65
-5.72
5.22
14.04
21.06
26.74
31.42
35.26
38.25
40.32
41.48
41.76
41.28
40.15
38.43
36.22
33.63
30.90
28.25
26.00
24.30
23.15
22.31
21.35
19.75
17.10
13.20
8.17
2.40
-3.63
-9.42
-14.68
-19.39
-23.82
-28.45
-33.80
-40.23
-47.69
-55.53
-62.54
-67.20
-68.19
-64.82
-57.32
-46.76
-34.71
-22.68
-11.80
-2.65
4.69
10.41
14.83
18.21
20.78
22.72
24.18
25.28
26.07
26.57
26.82
26.81
26.60
26.24
25.80
25.34
24.92
24.60
24.33
23.98
23.34
22.10
20.06
17.14
13.55
9.67
5.96
2.77
0.18
-2.02
-4.25
-7.05
-10.87
-15.94
-22.12
-28.76
-34.76
-38.70
-39.18
-35.27
-26.79
-14.56
-0.02
15.07
29.21
41.39
51.18
58.54
63.64
66.80
68.36
68.82
68.71
68.57
68.75
69.27
69.86
70.06
69.50
68.08
66.12
64.26
63.22
63.52
65.20
67.81
70.62
72.98
74.53
75.37
75.89
76.49
77.30
78.16
78.71
78.61
77.68
75.85
73.03
69.04
63.61
56.68
48.66
40.49
33.46
28.68
26.62
26.80
27.93
28.38
26.62
21.68
13.29
1.99
-11.06
-24.23
-35.81
-44.45
-49.49
-51.16
-50.46
-48.71
-47.11
-46.22
-45.94
-45.45
-43.52
-38.91
-30.76
-19.02
-4.84
9.42
20.56
25.55
22.60
12.01
-3.75
-20.88
-35.53
-45.03
-48.59
-47.11
-42.36
-36.16
-29.75
-23.66
-17.87
-12.11
-6.04
0.51
7.48
14.45
20.67
25.32
27.91
28.60
28.17
27.73
28.09
29.45
31.30
32.78
33.16
32.10
29.63
25.85
20.80
14.40
6.86
-1.10
-8.30
-13.48
-15.92
-15.93
-14.86
-14.51
-16.43
-21.20
-28.31
-36.38
-43.80
-49.27
-52.09
-52.13
-49.55
-44.63
-37.69
-29.19
-19.82
-10.55
-2.45
3.56
7.07
8.28
7.89
6.83
5.90
5.48
5.56
5.78
5.70
5.01
3.62
1.66
-0.61
-2.91
-5.06
-6.97
-8.65
-10.11
-11.30
-12.19
-12.70
-12.88
-12.81
-12.74
-12.89
-13.46
-14.56
-16.18
-18.24
-20.61
-23.16
-25.74
-28.25
-30.55
-32.48
-33.81
-34.29
-33.74
-32.08
-29.48
-26.32
-23.13
-20.37
-18.26
-16.78
-15.61
-14.40
-12.89
-11.09
-9.27
-7.80
-7.01
-7.05
-7.83
-9.09
-10.52
-11.81
-12.76
-13.16
-12.95
-12.11
-10.79
-9.31
-8.11
-7.62
-8.14
-9.66
-11.93
-14.52
-16.98
-18.90
-20.13
-20.73
-21.01
-21.37
-22.20
-23.64
-25.55
-27.50
-28.87
-29.18
-28.22
-26.12
-23.30
-20.32
-17.67
-15.61
-14.27
-13.51
-13.18
-13.08
-13.05
-13.08
-13.24
-13.73
-14.73
-16.34
-18.50
-21.00
-23.49
-25.61
-27.09
-27.74
-27.52
-26.47
-24.75
-22.57
-20.19
-17.89
-15.96
-14.62
-14.02
-14.20
-15.11
-16.62
-18.58
-20.82
-23.23
-25.67
-28.07
-30.28
-32.13
-33.32
-33.56
-32.68
-30.70
-27.89
-24.68
-21.53
-18.74
-16.35
-14.16
-11.96
-9.61
-7.14
-4.70
-2.41
-0.28
1.66
3.37
4.68
5.34
5.17
4.19
2.68
1.05
-0.24
-0.97
-1.15
-1.01
-0.86
-0.94
-1.36
-2.15
-3.20
-4.40
-5.62
-6.77
-7.70
-8.37
-8.77
-8.96
-9.16
-9.63
-10.64
-12.31
-14.56
-17.08
-19.37
-20.90
-21.18
-20.00
-17.44
-13.84
-9.74
-5.73
-2.26
0.39
2.16
3.24
3.83
4.15
4.37
4.60
4.90
5.38
6.09
7.06
8.28
9.59
10.81
11.76
12.29
12.33
11.88
10.95
9.57
7.78
5.66
3.29
0.83
-1.58
-3.74
-5.49
-6.69
-7.26
-7.19
-6.62
-5.77
-4.91
-4.38
-4.45
-5.25
-6.82
-8.93
-11.20
-13.09
-14.00
-13.45
-11.32
-7.85
-3.66
0.49
3.91
6.22
7.37
7.57
7.22
6.69
6.27
6.21
6.56
7.30
8.26
9.18
9.84
10.03
9.68
8.84
7.67
6.36
5.14
4.17
3.50
3.05
2.57
1.88
0.87
-0.43
-1.91
-3.40
-4.79
-6.06
-7.21
-8.29
-9.30
-10.26
-11.17
-12.11
-13.14
-14.30
-15.53
-16.62
-17.25
-17.01
-15.57
-12.82
-8.92
-4.37
0.15
3.99
6.74
8.25
8.67
8.31
7.48
6.45
5.42
4.59
4.06
3.84
3.88
4.02
4.10
4.03
3.85
3.61
3.39
3.24
3.20
3.25
3.36
3.44
3.34
2.91
2.06
0.83
-0.64
-2.17
-3.60
-4.86
-5.96
-6.89
-7.65
-8.28
-8.84
-9.46
-10.19
-10.98
-11.60
-11.66
-10.82
-8.95
-6.19
-2.94
0.33
3.18
5.38
6.92
7.97
8.75
9.44
10.09
10.64
10.94
10.87
10.40
9.57
8.48
7.23
5.87
4.43
2.96
1.57
0.39
-0.45
-0.90
-1.07
-1.17
-1.41
-1.94
-2.78
-3.80
-4.78
-5.47
-5.76
-5.64
-5.25
-4.85
-4.73
-5.13
-6.17
-7.76
-9.58
-11.16
-12.00
-11.72
-10.17
-7.48
-3.97
-0.12
3.60
6.75
9.02
10.26
10.54
10.07
9.20
8.30
7.64
7.39
7.54
7.95
8.42
8.75
8.70
8.16
7.13
5.76
4.33
3.20
2.61
2.59
2.91
3.20
3.09
2.36
1.08
-0.55
-2.21
-3.66
-4.86
-5.83
-6.73
-7.72
-8.92
-10.36
-11.95
-13.37
-14.23
-14.13
-12.82
-10.36
-7.06
-3.43
0.08
3.16
5.69
7.69
9.27
10.52
11.51
12.24
12.66
12.70
12.29
11.46
10.31
9.02
7.74
6.55
5.41
4.25
3.04
1.84
0.84
0.19
-0.09
-0.14
-0.23
-0.55
-1.20
-2.09
-3.09
-4.03
-4.84
-5.49
-6.09
-6.70
-7.46
-8.53
-10.01
-11.88
-13.91
-15.62
-16.39
-15.72
-13.46
-9.95
-5.85
-1.96
1.09
3.07
4.11
4.59
4.95
5.49
6.33
7.39
8.44
9.26
9.68
9.70
9.44
9.04
8.64
8.29
7.98
7.67
7.29
6.80
6.16
5.27
4.06
2.52
0.78
-0.93
-2.35
-3.30
-3.77
-3.90
-3.96
-4.18
-4.74
-5.71
-7.10
-8.87
-10.94
-13.19
-15.33
-16.94
-17.59
-16.92
-14.89
-11.76
-8.06
-4.37
-1.16
1.43
3.45
5.14
6.66
8.05
9.20
9.98
10.32
10.25
9.91
9.45
8.98
8.52
8.02
7.43
6.70
5.84
4.84
3.79
2.75
1.87
1.28
0.99
0.92
0.88
0.61
-0.10
-1.28
-2.79
-4.35
-5.66
-6.53
-6.96
-7.18
-7.49
-8.25
-9.56
-11.28
-12.93
-13.86
-13.47
-11.45
-7.86
-3.19
1.82
6.44
10.07
12.45
13.62
13.79
13.31
12.44
11.40
10.28
9.12
7.97
6.93
6.11
5.62
5.48
5.53
5.57
5.34
4.73
3.79
2.70
1.66
0.80
0.16
-0.34
-0.81
-1.35
-2.05
-2.95
-4.07
-5.34
-6.60
-7.65
-8.38
-8.81
-9.17
-9.76
-10.79
-12.21
-13.63
-14.46
-14.12
-12.32
-9.17
-5.18
-0.99
2.85
6.01
8.40
10.08
11.20
11.89
12.26
12.40
12.42
12.41
12.36
12.23
11.90
11.30
10.39
9.22
7.93
6.66
5.56
4.73
4.20
3.90
3.69
3.46
3.09
2.55
1.77
0.74
-0.55
-2.01
-3.52
-4.89
-5.95
-6.67
-7.11
-7.50
-8.03
-8.88
-10.08
-11.52
-12.95
-14.02
-14.35
-13.62
-11.68
-8.64
-4.79
-0.59
3.47
6.95
9.63
11.41
12.37
12.67
12.46
11.95
11.35
10.82
10.50
10.41
10.45
10.43
10.17
9.47
8.34
6.94
5.52
4.36
3.61
3.31
3.35
3.60
3.91
4.08
3.93
3.29
2.11
0.49
-1.31
-2.98
-4.24
-5.03
-5.44
-5.71
-6.13
-6.89
-8.12
-9.82
-11.85
-13.85
-15.34
-15.74
-14.68
-12.09
-8.33
-4.01
0.20
3.75
6.44
8.31
9.57
10.44
11.05
11.45
11.69
11.76
11.74
11.65
11.49
11.17
10.56
9.50
7.94
6.00
3.92
2.07
0.70
-0.10
-0.42
-0.43
-0.30
-0.07
0.26
0.62
0.92
0.97
0.59
-0.24
-1.33
-2.48
-3.47
-4.26
-4.99
-5.83
-7.01
-8.62
-10.64
-12.91
-15.03
-16.52
-16.85
-15.66
-12.92
-8.95
-4.39
0.08
3.91
6.84
8.88
10.18
10.91
11.23
11.27
11.09
10.77
10.38
9.95
9.56
9.29
9.14
9.06
8.86
8.36
7.42
6.18
4.92
4.01
3.66
3.88
4.42
4.93
5.10
4.73
3.79
2.35
0.58
-1.30
-3.05
-4.51
-5.65
-6.56
-7.52
-8.82
-10.62
-12.91
-15.39
-17.59
-18.92
-18.87
-17.18
-13.92
-9.51
-4.64
0.00
3.90
6.83
8.85
10.16
11.01
11.47
11.52
11.14
10.37
9.33
8.23
7.28
6.62
6.35
6.46
6.95
7.73
8.63
9.48
10.05
10.15
9.72
8.79
7.47
5.89
4.12
2.16
0.02
-2.27
-4.62
-6.87
-8.80
-10.21
-10.96
-11.06
-10.74
-10.39
-10.40
-11.08
-12.39
-14.03
-15.40
-15.85
-14.96
-12.59
-9.03
-4.84
-0.68
2.98
5.86
7.95
9.40
10.40
11.14
11.70
12.13
12.50
12.79
12.95
12.83
12.28
11.22
9.74
8.03
6.38
5.00
4.00
3.37
3.04
2.94
3.00
3.16
3.27
3.22
2.87
2.13
1.04
-0.30
-1.76
-3.29
-4.88
-6.54
-8.25
-9.95
-11.60
-13.17
-14.66
-16.09
-17.39
-18.33
-18.53
-17.64
-15.43
-11.97
-7.63
-2.95
1.51
5.33
8.27
10.34
11.64
12.37
12.67
12.73
12.65
12.45
12.14
11.63
10.91
9.99
8.96
7.96
7.05
6.23
5.44
4.65
3.88
3.30
3.03
3.07
3.26
3.30
2.95
2.08
0.82
-0.59
-1.85
-2.80
-3.46
-3.94
-4.42
-5.08
-6.12
-7.62
-9.66
-12.06
-14.41
-16.12
-16.62
-15.57
-13.03
-9.46
-5.52
-1.85
1.17
3.49
5.22
6.57
7.64
8.46
9.06
9.50
9.85
10.14
10.37
10.43
10.31
10.03
9.72
9.48
9.35
9.27
9.08
8.68
8.06
7.32
6.60
5.94
5.30
4.49
3.33
1.69
-0.36
-2.61
-4.82
-6.71
-8.22
-9.38
-10.38
-11.39
-12.57
-13.98
-15.56
-17.14
-18.38
-18.88
-18.21
-16.12
-12.60
-8.06
-3.08
1.70
5.77
8.89
11.05
12.39
13.05
13.19
13.00
12.62
12.23
11.94
11.80
11.75
11.70
11.55
11.24
10.80
10.26
9.72
9.21
8.83
8.61
8.57
8.65
8.75
8.72
8.36
7.53
6.17
4.37
2.34
0.30
-1.54
-3.07
-4.32
-5.39
-6.41
-7.52
-8.84
-10.49
-12.58
-15.10
-17.89
-20.63
-22.76
-23.69
-22.95
-20.44
-16.47
-11.66
-6.76
-2.36
1.23
4.00
6.15
7.95
9.54
11.00
12.25
13.24
13.91
14.24
14.32
14.23
14.07
13.87
13.56
13.02
12.15
10.97
9.62
8.38
7.46
6.98
6.82
6.70
6.32
5.41
3.89
1.91
-0.23
-2.19
-3.72
-4.78
-5.44
-5.92
-6.40
-7.02
-7.87
-9.07
-10.76
-13.00
-15.64
-18.24
-20.03
-20.22
-18.32
-14.38
-9.03
-3.25
2.05
6.33
9.56
12.01
14.01
15.75
17.19
18.14
18.43
18.04
17.07
15.71
14.16
12.57
11.04
9.63
8.44
7.50
6.74
6.13
5.56
5.00
4.43
3.82
3.19
2.49
1.70
0.80
-0.23
-1.37
-2.60
-3.78
-4.84
-5.67
-6.19
-6.45
-6.67
-7.15
-8.20
-9.97
-12.26
-14.48
-15.92
-15.94
-14.28
-11.13
-7.14
-3.11
0.36
3.00
4.93
6.47
7.84
9.11
10.15
10.69
10.56
9.75
8.41
6.78
5.12
3.56
2.17
1.02
0.18
-0.29
-0.38
-0.13
0.32
0.78
1.08
1.10
0.80
0.28
-0.37
-1.02
-1.68
-2.42
-3.30
-4.35
-5.50
-6.60
-7.63
-8.62
-9.76
-11.21
-12.92
-14.54
-15.54
-15.32
-13.56
-10.40
-6.34
-2.10
1.65
4.54
6.50
7.66
8.27
8.49
8.38
7.95
7.25
6.43
5.76
5.49
5.73
6.41
7.20
7.73
7.76
7.33
6.72
6.27
6.15
6.22
6.14
5.46
3.97
1.82
-0.58
-2.68
-4.08
-4.66
-4.62
-4.37
-4.37
-5.02
-6.52
-8.88
-11.83
-14.91
-17.51
-18.96
-18.73
-16.60
-12.76
-7.76
-2.38
2.58
6.59
9.48
11.36
12.49
13.12
13.39
13.35
13.03
12.52
11.96
11.50
11.19
10.98
10.74
10.31
9.64
8.77
7.85
7.04
6.45
6.10
5.91
5.71
5.33
4.69
3.74
2.51
1.07
-0.52
-2.18
-3.88
-5.62
-7.47
-9.57
-12.02
-14.78
-17.50
-19.50
-20.02
-18.53
-14.93
-9.70
-3.76
1.94
6.64
10.00
12.03
12.99
13.15
12.81
12.15
11.34
10.51
9.79
9.22
8.82
8.51
8.22
7.91
7.50
7.00
6.45
5.96
5.64
5.55
5.66
5.77
5.63
4.97
3.68
1.85
-0.22
-2.18
-3.76
-4.93
-5.91
-7.03
-8.65
-10.96
-13.88
-17.14
-20.27
-22.67
-23.73
-22.97
-20.18
-15.56
-9.72
-3.51
2.22
6.92
10.48
13.07
15.04
16.60
17.75
18.25
17.91
16.68
14.75
12.47
10.22
8.23
6.61
5.26
4.05
2.90
1.76
0.70
-0.26
-1.11
-1.89
-2.71
-3.68
-4.91
-6.40
-8.15
-10.02
-11.90
-13.66
-15.20
-16.50
-17.63
-18.80
-20.23
-22.22
-24.92
-28.26
-31.90
-35.22
-37.49
-38.12
-36.85
-33.91
-30.01
-26.11
-23.17
-21.88
-22.53
-25.08
-29.19
-34.44
-40.39
-46.71
-53.20
-59.71
-66.19
-72.55
-78.65
-84.31
-89.30
-93.46
-96.72
-99.11
-100.83
-102.16
-103.37
-104.63
-105.99
-107.27
-108.02
-107.64
-105.54
-101.35
-95.20
-87.78
-80.21
-73.76
-69.50
-68.13
-69.83
-74.46
-81.69
-91.15
-102.47
-115.36
-129.48
-144.54
-160.27
-176.39
-192.67
-208.84
-224.48
-238.90
-251.19
-260.34
-265.38
-265.68
-261.03
-251.74
-238.61
-222.76
-205.40
-187.68
-170.51
-154.51
-140.05
-127.30
-116.33
-107.05
-99.30
-92.66
-86.54
-80.20
-72.89
-64.10
-53.63
-41.70
-28.82
-15.59
-2.47
10.44
23.50
37.32
52.44
69.13
87.16
105.98
124.87
143.32
161.19
178.72
196.51
215.37
236.19
259.74
286.19
314.61
342.70
367.04
383.98
390.89
387.14
374.38
355.74
334.60
313.35
292.94
273.26
253.96
235.14
217.42
201.55
187.80
175.70
164.30
152.69
140.43
127.62
114.73
102.18
90.04
78.21
66.47
54.77
43.14
31.56
19.93
8.18
-3.52
-14.50
-23.55
-29.32
-30.70
-27.30
-19.56
-8.56
4.32
17.73
30.61
42.21
52.06
59.97
65.88
69.91
72.17
72.80
71.95
69.81
66.63
62.72
58.40
53.92
49.46
45.17
41.12
37.37
33.93
30.70
27.49
24.10
20.36
16.24
11.77
6.97
1.77
-4.07
-10.94
-19.14
-28.65
-38.93
-48.78
-56.56
-60.65
-59.90
-54.09
-44.00
-31.07
-17.03
-3.34
9.00
19.55
28.23
35.13
40.42
44.15
46.37
47.11
46.38
44.26
40.88
36.45
31.23
25.57
19.80
14.22
9.00
4.19
-0.27
-4.54
-8.78
-13.07
-17.39
-21.60
-25.52
-29.04
-32.23
-35.42
-39.21
-44.20
-50.73
-58.56
-66.75
-73.81
-78.01
-77.89
-72.72
-62.70
-48.90
-32.88
-16.25
-0.29
14.20
26.97
37.95
47.14
54.38
59.43
62.07
62.36
60.66
57.60
53.91
50.22
46.97
44.38
42.45
41.07
40.01
38.96
37.56
35.43
32.28
28.02
22.74
16.67
10.09
3.20
-3.94
-11.42
-19.32
-27.59
-35.87
-43.42
-49.19
-51.97
-50.75
-44.98
-34.83
-21.22
-5.57
10.56
25.87
39.57
51.34
61.17
69.13
75.14
79.00
80.52
79.65
76.61
71.83
65.88
59.32
52.64
46.29
40.63
35.94
32.34
29.69
27.55
25.39
22.71
19.28
15.14
10.56
5.84
1.13
-3.65
-8.76
-14.58
-21.39
-29.18
-37.51
-45.41
-51.55
-54.48
-53.07
-46.94
-36.56
-23.24
-8.69
5.36
17.59
27.25
34.19
38.74
41.53
43.30
44.58
45.63
46.33
46.30
45.12
42.58
38.83
34.30
29.66
25.50
22.21
19.86
18.23
16.94
15.52
13.56
10.83
7.22
2.90
-1.86
-6.70
-11.35
-15.74
-20.18
-25.14
-31.19
-38.49
-46.54
-54.09
-59.42
-60.89
-57.49
-49.30
-37.36
-23.35
-8.99
4.42
16.14
25.93
33.81
39.89
44.27
47.08
48.46
48.60
47.65
45.71
42.88
39.32
35.34
31.41
28.13
26.01
25.35
26.16
28.03
30.31
32.26
33.21
32.74
30.78
27.47
23.15
18.12
12.54
6.34
-0.74
-8.99
-18.57
-29.26
-40.41
-50.99
-59.75
-65.67
-68.18
-67.40
-64.01
-59.02
-53.42
-47.91
-42.78
-38.06
-33.67
-29.65
-26.27
-23.92
-23.03
-23.84
-26.34
-30.23
-35.10
-40.45
-45.81
-50.81
-55.12
-58.48
-60.74
-61.86
