1675319062
64
0
0
0
0
0
0
0
0
0
0
0
0.01
0.01
0
-0.03
-0.05
-0.05
0
0.13
0.36
0.66
1.01
1.37
1.72
2.06
2.4
2.79
3.24
3.8
4.42
5.06
5.66
6.2
6.68
7.15
7.68
8.31
9.14
10.09
11.04
11.88
12.56
13.14
13.76
14.65
15.96
17.91
20.32
22.9
25.38
27.58
29.57
31.68
34.32
37.81
42.54
48.15
54.1
59.83
64.97
69.58
74.14
79.34
85.71
93.76
103
112.62
121.73
129.77
136.75
143.3
150.75
157.77
166.64
177.95
191.79
206.97
220.57
228.25
225.36
208.53
176.87
132.76
80.05
23.07
-34.94
-92.44
-149.16
-205.23
-260.37
-313.74
-363.87
-409.83
-450.91
-486.5
-515.74
-537.23
-549.22
-549.96
-538.37
-514.21
-478.67
-433.88
-382.45
-327.02
-269.84
-212.63
-156.66
-102.95
-52.37
-5.9
35.58
71.43
101.35
125.5
144.38
158.69
169.15
176.37
180.75
182.57
182.07
179.51
175.23
169.65
163.18
156.15
148.81
141.3
133.69
126.02
118.33
110.69
103.16
95.8
88.68
81.83
75.25
68.95
62.95
57.25
51.86
46.78
42.03
37.59
33.45
29.61
26.07
22.81
19.83
17.11
14.67
12.48
10.54
8.83
7.35
6.07
4.97
4.05
3.27
2.62
2.09
1.65
1.3
1.01
0.79
0.61
0.48
0.37
0.29
0.24
0.2
0.17
0.16
0.16
0.18
0.2
0.22
0.25
0.29
0.33
0.37
0.41
0.45
0.5
0.55
0.6
0.65
0.71
0.77
0.83
0.9
0.98
1.06
1.16
1.27
1.39
1.52
1.67
1.84
2.03
2.24
2.47
2.73
3.01
3.32
3.66
4.03
4.44
4.88
5.36
5.87
6.43
7.02
7.66
8.34
9.06
9.83
10.64
11.49
12.4
13.34
14.34
15.41
16.55
17.75
19.02
20.28
21.51
22.61
23.47
24.01
24.11
23.7
22.7
21.05
18.72
15.72
12.06
7.88
3.36
-1.26
-5.75
-9.88
-13.47
-16.42
-18.74
-20.44
-21.59
-22.23
-22.37
-22.05
-21.28
-20.16
-18.88
-17.63
-16.61
-15.91
-15.5
-15.2
-14.79
-14.09
-13.08
-11.94
-10.99
-10.58
-10.85
-11.75
-12.9
-13.87
-14.29
-14.07
-13.5
-13.11
-13.43
-14.73
-16.9
-19.43
-21.68
-23.15
-23.72
-23.72
-23.74
-24.43
-26.34
-29.95
-35.41
-42.29
-49.32
-54.35
-54.91
-49.11
-36.62
-19.06
0.37
18.11
31.51
39.63
43.04
43.09
40.98
37.2
32.14
25.95
19.09
12.39
6.8
3.04
1.31
1.24
2.16
3.41
4.64
5.88
7.46
9.71
12.7
16.15
19.45
22.01
23.49
23.96
23.82
23.65
23.89
24.69
25.84
26.97
27.66
27.69
27.03
25.94
24.77
23.9
23.51
23.53
23.68
23.62
23.09
22.03
20.52
18.77
16.98
15.29
13.85
12.7
11.89
11.32
10.79
10.01
8.76
6.93
4.63
2.11
-0.38
-2.64
-4.66
-6.49
-8.31
-10.34
-12.81
-16.02
-20.16
-25.22
-30.85
-36.34
-40.76
-43.28
-43.37
-41.07
-36.86
-31.48
-25.67
-19.91
-14.45
-9.35
-4.62
-0.27
3.71
7.37
10.81
14.14
17.4
20.53
23.39
25.8
27.67
28.95
29.7
29.95
29.78
29.22
28.35
27.27
26.12
25.02
23.99
22.96
21.77
20.23
18.23
15.82
13.16
10.42
7.64
4.8
1.74
-1.58
-5.1
-8.62
-11.92
-14.94
-17.84
-20.93
-24.57
-28.9
-33.85
-39.12
-44.38
-49.47
-54.4
-59.41
-64.83
-70.94
-77.94
-85.79
-94.25
-102.8
-110.72
-117.23
-121.73
-123.93
-123.93
-122.1
-118.91
-114.65
-109.38
-102.92
-94.88
-84.83
-72.46
-57.6
-40.42
-21.41
-1.34
18.89
38.38
56.42
72.48
86.25
97.52
106.21
112.31
115.99
117.45
116.97
114.81
111.18
106.33
100.52
94.15
87.64
81.37
75.52
70.03
64.69
59.2
53.39
47.27
40.99
34.77
28.77
23.05
17.55
12.19
6.88
1.62
-3.62
-8.85
-14.13
-19.6
-25.39
-31.58
-38.16
-45.03
-52.01
-58.86
-65.27
-70.77
-74.71
-76.38
-75.14
-70.77
-63.56
-54.35
-44.19
-34.04
-24.48
-15.63
-7.27
0.83
8.75
16.33
23.28
29.3
34.22
38.06
40.99
43.26
45.11
46.67
47.97
48.9
49.28
49.03
48.21
47.06
45.9
44.95
44.26
43.61
42.66
41.17
39.09
36.57
33.85
31.07
28.2
25.18
21.99
18.79
15.85
13.33
11.17
9.08
6.65
3.6
-0.11
-4.33
-8.84
-13.56
-18.57
-24.01
-29.83
-35.72
-41.05
-45.1
-47.35
-47.58
-46
-43.06
-39.23
-34.85
-30.03
-24.7
-18.82
-12.48
-6.03
0.12
5.52
9.95
13.41
16.07
18.26
20.17
21.98
23.63
25.06
26.15
26.81
27.03
26.89
26.48
25.88
25.14
24.28
23.32
22.32
21.37
20.56
19.92
19.38
18.81
18.04
17
15.7
14.26
12.77
11.33
9.95
8.61
7.27
5.91
4.53
3.09
1.55
-0.17
-2.13
-4.37
-6.84
-9.46
-12.17
-14.95
-17.9
-21.15
-24.88
-29.15
-33.92
-38.93
-43.8
-48.01
-51.04
-52.48
-52.04
-49.75
-45.86
-40.81
-35.12
-29.25
-23.54
-18.18
-13.25
-8.67
-4.37
-0.27
3.63
7.25
10.4
12.89
14.65
15.73
16.41
17
17.74
18.63
19.53
20.19
20.47
20.4
20.04
19.48
18.68
17.52
15.91
13.93
11.78
9.69
7.68
5.6
3.2
0.35
-2.79
-5.81
-8.29
-10
-11.06
-11.82
-12.66
-13.79
-15.21
-16.81
-18.48
-20.21
-21.96
-23.64
-25.04
-25.89
-25.96
-25.24
-23.94
-22.45
-21.22
-20.58
-20.6
-21.01
-21.26
-20.71
-18.8
-15.31
-10.41
-4.61
1.43
7.14
12.17
16.46
20.16
23.59
27.08
30.89
35.14
39.73
44.32
48.33
51.14
52.11
50.95
47.74
42.94
37.28
31.49
26.16
21.62
18.01
15.21
13.02
11.07
8.93
6.22
2.72
-1.45
-5.86
-9.84
-12.86
-14.67
-15.43
-15.48
-15.11
-14.36
-12.98
-10.68
-7.39
-3.38
0.88
4.99
8.87
12.89
17.44
22.57
27.61
31.26
31.99
28.74
21.45
11.09
-0.66
-12.12
-22
-29.78
-35.52
-39.61
-42.44
-44.27
-45.22
-45.33
-44.59
-42.98
-40.39
-36.72
-31.9
-26.01
-19.37
-12.5
-6
-0.4
4.03
7.34
9.91
12.24
14.75
17.63
20.71
23.57
25.66
26.52
25.92
23.97
21.11
17.97
15.17
13.18
12.11
11.72
11.5
10.91
9.58
7.46
4.86
2.27
0.17
-1.15
-1.66
-1.56
-1.15
-0.8
-0.8
-1.38
-2.66
-4.56
-6.79
-8.91
-10.49
-11.26
-11.19
-10.49
-9.52
-8.7
-8.4
-8.96
-10.59
-13.33
-16.89
-20.77
-24.33
-27.07
-28.81
-29.75
-30.28
-30.7
-31.09
-31.19
-30.72
-29.44
-27.39
-24.71
-21.56
-18.06
-14.29
-10.45
-6.83
-3.79
-1.52
0.08
1.41
2.99
5.19
7.97
10.85
13.14
14.31
14.37
13.95
14.1
15.85
19.66
25.13
31.13
36.23
39.34
40.19
39.36
38.1
37.81
39.61
44.03
50.76
58.69
65.93
70.26
69.67
63.08
50.91
35.2
18.95
5.22
-4.03
-8.64
-10.18
-11.13
-13.71
-18.8
-25.58
-31.92
-35.5
-35.05
-31.02
-25.54
-21.45
-21
-24.93
-32.17
-40.38
-46.92
-49.79
-48.12
-42.18
-32.99
-21.88
-10.11
1.35
11.89
21.35
29.95
38.15
46.47
55.03
63.24
69.44
70.86
64.11
46.24
16.27
-23.72
-68.49
-111.01
-144.76
-165.95
-174.39
-172.74
-164.44
-151.84
-135.48
-114.99
-90.55
-64.06
-38.82
-18.17
-3.96
4.23
8.53
11.39
14.32
17.3
19.25
19.02
16.22
11.59
6.62
2.88
1.34
1.95
3.66
4.84
3.79
-0.73
-9.12
-20.97
-35.1
-50.02
-64.17
-76.35
-86.02
-93.42
-99.46
-105.38
-112.1
-119.81
-127.76
-134.5
-138.42
-138.35
-134
-125.87
-115.01
-102.46
-88.8
-73.89
-56.86
-36.36
-11.18
19.08
53.41
89.35
123.45
152.14
172.75
184.23
187.34
184.34
178.52
173.34
171.84
175.89
185.73
199.73
214.69
226.59
231.66
227.45
213.46
191.14
163.38
133.61
104.94
79.52
58.35
41.19
26.77
12.98
-2.46
-21.17
-43.05
-65.86
-85.54
-97.84
-100.17
-92.9
-79.35
-64.12
-50.85
-40.64
-31.93
-22.19
-9.95
3.84
16.25
24.07
26.04
24.17
23.58
30.83
51.38
87.47
137.12
194.75
253.07
305.23
346.55
375.08
391.16
396.36
392.51
381.34
364.54
344.02
322.03
300.74
281.57
264.74
249.21
233.31
215.49
195
172.22
148.5
125.64
105.21
88.07
74.17
62.77
52.83
43.45
34.2
24.41
14.02
3.56
-6.14
-14.65
-22.17
-29.32
-36.76
-44.91
-54.61
-66.04
-78.54
-90.81
-101.55
-109.99
-115.94
-119.63
-121.52
-123.81
-127.81
-132.93
-137
-137.84
-134.4
-126.88
-116.51
-105.09
-99.21
-103.15
-116.17
-133.33
-149.62
-162.71
-173.03
-182.66
-194.18
-219.59
-266.02
-330.64
-402.33
-469.33
-524.08
-562.92
-584.43
-588.87
-593.88
-612.67
-646.25
-684.74
-718.06
-741.82
-755.78
-761.19
-760.25
-777.5
-831.76
-925.18
-1043.35
-1168
-1284.9
-1383.94
-1458.45
-1377.59
-1086.15
-637.31
-156.8
254.25
559.86
767.37
898.49
975.29
1017.6
1019.24
985.22
932.93
887.59
866.22
870.11
889.72
912.44
927.86
913.95
856.85
761.2
647.07
535.94
441.49
368.68
316.17
278.98
240.45
187.83
117.74
35.52
-51.27
-136.28
-213.04
-274.1
-312.24
-328.15
-325.41
-308.26
-280.2
-244.77
-205.66
-165.97
-127.94
-93.34
-65.21
-45.06
-31.56
-21.28
-10.82
1.57
15.92
31.4
47.06
62.01
75.31
85.67
91.59
92.19
87.74
79.83
70.64
61.91
54.16
46.89
39.13
29.94
18.63
4.5
-13.13
-34.57
-59.2
-85.05
-109.13
-128.47
-141.18
-147.16
-147.99
-145.98
-143.15
-140.67
-138.75
-137.12
-135.46
-133.67
-131.8
-129.9
-127.94
-125.78
-123.05
-119.01
-112.6
-102.8
-88.97
-71.25
-50.61
-28.33
-5.38
18.13
42.98
70.39
101.45
136.65
175.62
217.08
258.85
297.93
330.82
353.88
364.07
359.62
340.44
308.08
265.4
215.91
163.19
110.32
59.57
12.25
-30.98
-69.71
-103.38
-131.15
-152.38
-167.23
-177.2
-184.79
-192.76
-202.9
-215.41
-228.88
-241.08
-249.87
-253.94
-252.92
-247.13
-237.22
-223.95
-208.27
-191.3
-174.41
-159.01
-146.15
-136.12
-128.06
-119.98
-109.24
-93.69
-72.76
-48.06
-22.89
-0.82
16.12
28.48
39.1
51.63
68.67
90.57
115.51
140.82
164.34
185.4
204.76
223.75
243.57
264.91
288.18
313.71
341.48
370.57
398.54
421.64
435.75
437.88
427.38
406.11
377.64
345.77
313.31
281.73
251.57
223.18
197.16
174.26
154.79
138.31
123.62
109.25
94.09
77.84
60.96
44.39
29.06
15.48
3.68
-6.7
-16.15
-25.03
-33.44
-41.12
-47.61
-52.36
-55.06
-55.64
-54.36
-51.66
-48.02
-43.79
-39.17
-34.3
-29.38
-24.76
-20.79
-17.77
-15.71
-14.4
-13.53
-12.85
-12.31
-11.98
-11.98
-12.24
-12.53
-12.37
-11.24
-8.6
-4.09
2.37
10.53
19.66
28.72
36.48
41.86
44.18
43.31
39.72
34.32
28.23
22.51
17.95
14.91
13.38
13.03
13.45
14.4
15.76
17.53
19.54
21.31
22.18
21.52
19.07
15.11
10.36
5.51
0.94
-3.46
-8.07
-13.11
-18.34
-23.05
-26.47
-28.21
-28.59
-28.49
-28.9
-30.42
-32.92
-35.75
-38.14
-39.65
-40.44
-41.05
-42.09
-43.81
-45.95
-47.86
-48.78
-48.16
-45.83
-41.97
-36.91
-31.01
-24.57
-17.82
-10.97
-4.26
2.09
7.87
12.9
17.07
20.27
22.45
23.62
23.87
23.48
22.83
22.28
22.06
22.19
22.52
22.82
22.91
22.75
22.4
22.03
21.73
21.57
21.46
21.21
20.56
19.23
17.08
14.17
10.81
7.47
4.65
2.6
1.23
0.09
-1.42
-3.85
-7.36
-11.71
-16.3
-20.42
-23.49
-25.17
-25.51
-24.75
-23.28
-21.42
-19.36
-17.1
-14.48
-11.34
-7.61
-3.51
0.52
3.87
6.08
6.99
6.86
6.25
5.77
5.72
6.03
6.29
6.08
5.23
3.95
2.74
2.09
2.2
2.87
3.57
3.65
2.71
0.68
-2.12
-5.13
-7.81
-9.77
-10.93
-11.46
-11.73
-12.1
-12.84
-13.96
-15.34
-16.78
-18.11
-19.33
-20.49
-21.72
-23.03
-24.35
-25.53
-26.39
-26.75
-26.47
-25.47
-23.75
-21.39
-18.65
-15.86
-13.41
-11.54
-10.35
-9.64
-9.14
-8.48
-7.42
-5.87
-3.95
-1.85
0.21
2.12
3.83
5.31
6.51
7.25
7.37
6.82
5.76
4.56
3.68
3.4
3.72
4.28
4.56
4.09
2.7
0.57
-1.91
-4.23
-6.03
-7.14
-7.61
-7.63
-7.45
-7.29
-7.28
-7.44
-7.73
-8.07
-8.4
-8.69
-8.97
-9.23
-9.44
-9.54
-9.52
-9.46
-9.57
-10.08
-11.19
-12.9
-14.92
-16.78
-17.92
-17.98
-16.88
-14.88
-12.46
-10.12
-8.16
-6.69
-5.56
-4.54
-3.45
-2.22
-0.93
0.33
1.48
2.52
3.46
4.3
4.98
5.37
5.4
5.09
4.6
4.16
3.91
3.86
3.82
3.61
3.12
2.43
1.8
1.46
1.49
1.8
2.13
2.21
1.89
1.19
0.26
-0.77
-1.79
-2.78
-3.74
-4.59
-5.21
-5.42
-5.17
-4.58
-3.98
-3.73
-4.07
-5.01
-6.23
-7.35
-8.06
-8.34
-8.4
-8.53
-8.95
-9.71
-10.65
-11.5
-11.96
-11.81
-10.9
-9.22
-6.93
-4.31
-1.73
0.46
2.01
2.86
3.14
3.14
3.22
3.67
4.65
6.08
7.65
8.91
9.44
8.96
7.52
5.38
2.98
0.72
-1.12
-2.37
-2.99
-3.08
-2.85
-2.6
-2.66
-3.25
-4.42
-5.98
-7.56
-8.79
-9.39
-9.32
-8.75
-7.98
-7.34
-7.04
-7.12
-7.48
-7.91
-8.18
-8.19
-7.95
-7.62
-7.41
-7.5
-7.97
-8.77
-9.8
-10.9
-11.96
-12.93
-13.77
-14.51
-15.14
-15.61
-15.85
-15.73
-15.12
-13.96
-12.32
-10.38
-8.36
-6.46
-4.76
-3.17
-1.56
0.21
2.13
4.06
5.78
7.07
7.8
8.02
7.9
7.65
7.45
7.35
7.28
7.09
6.64
5.93
5.03
4.13
3.38
2.87
2.54
2.27
1.97
1.61
1.27
0.99
0.83
0.7
0.52
0.18
-0.31
-0.9
-1.49
-2.05
-2.58
-3.14
-3.82
-4.64
-5.59
-6.54
-7.38
-8
-8.33
-8.4
-8.3
-8.19
-8.23
-8.51
-9.1
-9.92
-10.88
-11.8
-12.56
-13.08
-13.34
-13.39
-13.29
-13.07
-12.68
-12.03
-11.05
-9.74
-8.19
-6.5
-4.73
-2.86
-0.84
1.28
3.35
5.09
6.25
6.76
6.81
6.74
6.92
7.51
8.38
9.17
9.51
9.14
8.11
6.65
5.11
3.81
2.94
2.52
2.46
2.61
2.78
2.83
2.67
2.27
1.68
0.95
0.12
-0.78
-1.71
-2.62
-3.42
-4.06
-4.54
-4.94
-5.33
-5.79
-6.28
-6.77
-7.2
-7.6
-8.03
-8.6
-9.29
-10.05
-10.82
-11.64
-12.7
-14.28
-16.56
-19.54
-22.96
-26.39
-29.41
-31.75
-33.38
-34.41
-35.02
-35.29
-35.19
-34.59
-33.35
-31.39
-28.77
-25.64
-22.18
-18.47
-14.43
-9.87
-4.49
1.97
9.77
19.06
29.88
42.16
55.7
70.12
84.88
99.3
112.54
123.83
132.61
138.75
142.58
144.82
146.43
148.36
151.45
156.3
163.3
172.33
182.45
191.81
197.83
198.01
190.78
176.15
155.53
131.08
104.79
77.96
51.34
25.59
1.74
-18.77
-34.72
-45.69
-52.49
-56.87
-60.77
-65.44
-71.11
-77.13
-82.53
-86.68
-89.58
-91.77
-93.91
-96.45
-99.51
-103.01
-106.89
-111.24
-116.17
-121.61
-127.05
-131.67
-134.53
-134.93
-132.63
-127.78
-120.77
-111.9
-101.42
-89.49
-76.43
-62.85
-49.57
-37.55
-27.63
-20.34
-15.85
-14.01
-14.53
-17.06
-21.3
-27.01
-34.03
-42.28
-51.7
-62.19
-73.37
-84.44
-94.11
-100.91
-103.5
-101.3
-94.65
-84.85
-73.77
-63.29
-54.9
-49.31
-46.52
-45.78
-45.84
-45.25
-42.72
-37.5
-29.69
-20.24
-10.7
-2.77
2.19
3.58
1.65
-2.58
-7.52
-11.32
-12.17
-8.74
-0.51
11.9
26.9
42.26
55.84
66.21
73.01
76.78
78.51
79.13
79.08
78.43
77.17
75.52
74.04
73.42
74.13
76.17
79
81.74
83.5
83.51
81.23
76.3
68.52
58.05
45.41
31.62
17.92
5.5
-4.84
-12.91
-18.95
-23.53
-27.2
-30.43
-33.51
-36.66
-39.99
-43.53
-47.12
-50.41
-52.93
-54.31
-54.39
-53.35
-51.72
-50.06
-48.77
-47.86
-46.89
-45.18
-42.08
-37.36
-31.28
-24.61
-18.27
-12.92
-8.73
-5.36
-2.17
1.39
5.52
9.98
14.26
17.74
19.93
20.54
19.47
16.77
12.73
7.82
2.66
-2.16
-6.31
-9.87
-13.3
-17.22
-22.09
-28.04
-34.69
-41.25
-46.64
-49.8
-49.78
-46.26
-39.8
-31.89
-24.85
-20.94
-21.17
-24.4
-27.39
-26.38
-19.57
-9.03
-0.71
-2.15
-18.93
-51.59
-95.08
-140.75
-179.64
-205.64
-216.51
-213.41
-199.79
-180.7
-162.65
-153.17
-158.71
-181.61
-217.63
-255.73
-281.36
-281.9
-251.79
-195.12
-124.57
-57.08
-8.55
10.77
-1.26
-38.83
-90.49
-142.56
-182.96
-203.98
-203.52
-184.29
-151.94
-112.62
-71.18
-30.78
6.93
40.87
70.04
93.6
111.22
123.56
132.25
139.29
146.26
153.55
160.2
164.41
164.65
160.67
153.83
146.49
140.78
137.36
135.09
131.63
124.84
113.93
99.82
84.58
70.3
58.1
47.89
38.84
30.15
21.71
14.15
8.45
5.39
5.26
7.68
11.88
16.91
21.88
26.08
29.16
31.12
32.3
33.18
34.16
35.44
36.99
38.76
40.72
42.87
45.15
47.36
49.2
50.46
51.15
51.43
51.47
51.17
50.12
47.76
43.83
38.6
32.91
27.81
24.03
21.52
19.45
16.46
11.35
3.66
-6.09
-16.63
-26.45
-34.48
-40.39
-44.51
-47.42
-49.45
-50.41
-49.78
-47.07
-42.23
-35.76
-28.57
-21.47
-14.86
-8.59
-2.11
5.1
13.23
22
30.8
38.97
46.17
52.48
58.28
64.14
70.47
77.41
84.74
91.96
98.47
103.85
108.01
111.19
113.76
116
117.88
119.13
119.41
118.68
117.27
115.75
114.54
113.63
112.43
110.05
105.71
99.05
90.29
79.92
68.49
56.37
43.65
30.31
16.36
1.94
-12.66
-27.06
-40.83
-53.53
-64.65
-73.59
-79.68
-82.37
-81.33
-76.73
-69.21
-59.69
-49.19
-38.41
-27.66
-16.88
-5.77
5.96
18.52
31.91
45.97
60.2
73.84
85.85
95.2
101.16
103.63
103.19
100.91
97.96
95.21
92.99
91.13
89.14
86.49
82.72
77.59
70.99
63
53.87
44.02
34.03
24.5
15.87
8.37
1.93
-3.74
-9
-14.24
-19.74
-25.68
-32.06
-38.78
-45.62
-52.28
-58.55
-64.38
-69.88
-75.24
-80.53
-85.44
-89.34
-91.37
-90.77
-87.17
-80.86
-72.64
-63.68
-55.11
-47.7
-41.71
-36.89
-32.61
-28.22
-23.31
-17.8
-11.98
-6.29
-1.13
3.29
6.98
10.11
12.88
15.52
18.24
21.22
24.51
27.96
31.12
33.46
34.54
34.25
32.91
31.06
29.24
27.7
26.32
24.81
22.89
20.51
17.82
15.19
12.93
11.31
10.43
10.27
10.66
11.33
11.98
12.29
12.06
11.19
9.73
7.89
5.97
4.26
2.89
1.76
0.54
-1.01
-2.8
-4.19
-4.15
-1.84
2.94
9.47
16.45
22.67
27.66
31.89
36.38
41.99
48.86
56.35
63.44
69.36
73.99
77.77
81.34
84.99
88.53
91.31
92.64
92.09
89.77
86.27
82.4
78.91
76.17
74.14
72.44
70.6
68.26
65.27
61.64
57.41
52.65
47.45
42.01
36.73
32.09
28.47
25.84
23.75
21.4
18.07
13.46
7.9
2.21
-2.76
-6.5
-9.09
-11.13
-13.33
-16.18
-19.79
-23.91
-28.26
-32.67
-37.07
-41.38
-45.26
-48.18
-49.55
-49.08
-46.94
-43.76
-40.41
-37.72
-36.29
-36.51
-38.67
-42.97
-49.55
-58.24
-68.4
-78.91
-88.31
-95.14
-98.35
-97.52
-92.9
-85.32
-75.76
-65.13
-54.03
-42.81
-31.64
-20.83
-10.84
-2.22
4.58
9.48
12.85
15.31
17.52
19.89
22.46
24.95
26.97
28.2
28.5
27.96
26.74
25.14
23.4
21.75
20.35
19.25
18.42
17.7
16.9
15.8
14.22
11.99
9.06
5.33
0.78
-4.59
-10.69
-17.23
-23.72
-29.56
-34.26
-37.67
-40.12
-42.35
-45.15
-49.02
-53.87
-59.09
-63.73
-66.96
-68.3
-67.72
-65.53
-62.2
-58.22
-54.07
-50.19
-46.95
-44.59
-42.99
-41.76
-40.35
-38.27
-35.42
-32.15
-29.05
-26.64
-25.05
-23.83
-22.21
-19.42
-15.09
-9.39
-2.85
4.03
11.03
18.26
25.95
34.24
43
52.1
61.44
71.02
80.58
89.28
95.65
97.99
95.21
87.52
76.55
64.76
54.29
46.04
39.39
32.68
24.31
13.47
0.51
-13.47
-27.25
-39.91
-50.95
-60.04
-66.75
-70.54
-71.01
-68.21
-62.85
-56.26
-49.86
-44.73
-41.25
-39.09
-37.39
-35.16
-31.59
-26.25
-19.12
-10.59
-1.33
7.82
16.07
22.9
28.19
32.21
35.49
38.5
41.48
44.33
46.69
48.17
48.46
47.34
44.66
40.33
34.35
26.98
18.81
10.66
3.31
-2.86
-7.98
-12.58
-17.19
-22.05
-26.88
-31.16
-34.35
-36.23
-36.94
-36.78
-36.05
-34.9
-33.49
-32.06
-31
-30.62
-30.97
-31.64
-31.97
-31.44
-29.96
-28.02
-26.34
-25.41
-25.11
-24.76
-23.5
-20.87
-17.12
-13.17
-10.23
-9.25
-10.6
-13.93
-18.37
-22.79
-26.06
-27.28
-25.99
-22.17
-16.28
-9.07
-1.44
5.8
12
16.7
19.63
20.69
20.06
18.13
15.4
12.27
8.85
4.95
0.16
-5.78
-12.88
-20.75
-28.75
-36.18
-42.51
-47.43
-50.9
-53.04
-54.08
-54.27
-53.81
-52.86
-51.51
-49.81
-47.76
-45.38
-42.61
-39.41
-35.72
-31.51
-26.83
-21.86
-16.82
-11.97
-7.49
-3.43
0.3
3.92
7.73
12.06
17.12
22.94
29.28
35.61
41.28
45.68
48.46
49.64
49.61
48.96
48.23
47.69
47.27
46.66
45.52
43.54
40.57
36.54
31.39
25.12
17.9
10.06
2.12
-5.41
-12.22
-18.33
-24.06
-29.81
-35.87
-42.3
-48.95
-55.6
-62.02
-67.98
-73.13
-77.04
-79.24
-79.45
-77.66
-74.21
-69.57
-64.21
-58.36
-52.05
-45.17
-37.66
-29.61
-21.27
-13.04
-5.37
1.35
6.87
11.1
14.23
16.62
18.72
20.92
23.44
26.23
29.08
31.66
33.63
34.74
34.9
34.3
33.35
32.57
32.32
32.61
32.94
32.5
30.53
26.77
21.64
16.17
11.55
8.63
7.59
7.93
8.76
9.19
8.66
6.97
4.21
0.55
-3.91
-9.11
-14.95
-21.25
-27.78
-34.31
-40.7
-46.97
-53.13
-59.02
-64.23
-68.12
-69.93
-69.13
-65.54
-59.46
-51.56
-42.63
-33.38
-24.22
-15.29
-6.59
1.88
10.05
17.82
25.11
31.91
38.18
43.78
48.44
51.78
53.58
53.96
53.4
52.63
52.26
52.51
53.2
53.84
53.85
52.86
50.7
47.42
43.13
38.09
32.62
27.26
22.66
19.47
18.17
18.8
20.92
23.69
26.05
27
25.88
22.48
17.01
10.01
2.05
-6.36
-14.89
-23.25
-31.08
-37.87
-42.93
-45.61
-45.48
-42.54
-37.25
-30.42
-22.95
-15.58
-8.76
-2.59
3.12
8.7
14.47
20.61
27.08
33.63
39.84
45.23
49.41
52.2
53.66
54.06
53.86
53.46
53.16
53
52.87
52.49
51.62
50.03
47.63
44.4
40.45
35.98
31.32
26.81
22.77
19.41
16.75
14.65
12.95
11.46
10.01
8.42
6.46
3.93
0.74
-2.99
-6.96
-10.78
-14.14
-16.93
-19.22
-21.19
-23.1
-25.22
-27.8
-31.02
-34.85
-39.03
-42.96
-45.85
-46.95
-45.68
-41.9
-35.79
-27.87
-18.81
-9.35
-0.16
8.24
15.6
21.98
27.78
33.59
40
47.41
55.92
65.37
75.45
85.9
96.54
107.25
117.73
127.42
135.48
141.09
143.86
144.02
142.42
140.06
137.67
135.45
133.19
130.65
128
125.85
124.85
125.18
126.24
126.79
125.49
121.34
114.04
103.75
91
76.52
61.44
47.39
36.41
30.32
30.08
35.27
44.25
54.81
65.11
74.29
82.59
90.88
99.87
109.47
118.57
125.4
128.31
126.34
119.66
109.32
96.55
82.18
66.27
48.24
27.48
3.85
-21.9
-48.13
-72.44
-92
-104.2
-107.41
-101.97
-90.62
-78.04
-69.44
-68.55
-76.1
-89.62
-104.53
-115.97
-120.48
-116.72
-105.19
-87.49
-65.64
-41.55
-16.88
6.98
28.89
47.81
62.68
72.48
76.5
74.67
67.69
56.63
42.16
23.97
0.96
-27.64
-60.96
-95.83
-127.43
-151.19
-164.99
-170.41
-172.26
-176.58
-188.09
-208.42
-235.85
-266.32
-295.06
-317.79
-331.4
-334
-324.92
-304.88
-276.06
-241.78
-205.65
-170.49
-137.6
-106.82
-77.4
-48.98
-22.2
1.69
21.62
37.47
50.02
60.52
69.9
78.52
86.39
93.38
99.58
105.15
110.17
114.42
117.51
118.92
118.18
114.83
108.35
98.35
84.81
68.16
49.33
29.39
9.21
-10.78
-30.29
-48.98
-66.14
-80.99
-93.15
-103.09
-112.05
-121.53
-132.55
-145.21
-158.73
-171.87
-183.47
-192.86
-199.86
-204.62
-207.44
-208.57
-208.01
-205.39
-199.96
-190.74
-176.95
-158.45
-135.99
-111.08
-85.52
-60.87
-38.11
-17.64
0.36
15.63
27.69
36.09
40.69
42.06
41.43
40.36
40.17
41.42
43.83
46.45
48.26
48.67
47.82
46.29
44.74
43.39
42.02
40.11
37.35
33.84
30.16
27.15
25.5
25.58
27.35
30.38
33.97
37.25
39.26
39.15
36.39
30.92
23.12
13.72
3.56
-6.6
-16.1
-24.37
-30.87
-35.18
-37.13
-36.91
-35.06
-32.3
-29.17
-25.9
-22.33
-18.06
-12.77
-6.4
0.82
8.36
15.58
21.9
26.84
30.18
31.93
32.41
32.17
31.86
32.06
32.98
34.51
36.24
37.78
38.86
39.49
39.79
39.87
39.67
39.05
37.82
35.99
33.78
31.52
29.53
27.98
26.76
25.57
24.06
21.96
19.19
15.86
12.18
8.37
4.58
0.87
-2.79
-6.38
-9.87
-13.21
-16.41
-19.58
-22.89
-26.42
-30.14
-33.76
-36.85
-38.92
-39.63
-38.86
-36.73
-33.56
-29.71
-25.54
-21.26
-16.97
-12.7
-8.39
-4
0.49
5.06
9.65
14.11
18.23
21.76
24.44
26.13
26.82
26.71
26.12
25.42
24.9
24.74
24.97
25.47
26.09
26.65
27
27.06
26.73
25.93
24.58
22.64
20.18
17.37
14.51
11.92
9.84
8.36
7.46
6.99
6.81
6.78
6.77
6.66
6.28
5.47
4.2
2.56
0.76
-0.96
-2.52
-3.99
-5.62
-7.72
-10.54
-14.08
-18.13
-22.27
-25.94
-28.53
-29.53
-28.64
-25.84
-21.47
-16.1
-10.43
-5.03
-0.22
4.04
7.95
11.77
15.69
19.7
23.67
27.37
30.56
33.06
34.73
35.53
35.49
34.8
33.75
32.67
31.81
31.3
31.07
30.9
30.53
29.74
28.52
26.95
25.23
23.53
21.98
20.58
19.32
18.15
17.04
15.86
14.49
12.85
10.97
9.04
7.32
6
5.09
4.38
3.52
2.22
0.38
-1.92
-4.49
-7.12
-9.69
-12.17
-14.56
-16.9
-19.25
-21.66
-24.22
-26.87
-29.36
-31.24
-31.94
-30.96
-28.06
-23.38
-17.41
-10.82
-4.25
1.81
7.17
11.89
16.14
20.08
23.76
27.07
29.87
32.02
33.46
34.22
34.35
33.9
32.91
31.48
29.78
28.08
26.69
25.83
25.54
25.62
25.74
25.55
24.74
23.18
20.97
18.42
15.94
13.81
12.08
10.45
8.43
5.55
1.65
-3.03
-7.92
-12.43
-16.19
-19.2
-21.73
-24.15
-26.71
-29.46
-32.3
-35.11
-37.85
-40.52
-43.15
-45.69
-48
-49.89
-51.15
-51.55
-50.84
-48.76
-45.02
-39.5
-32.32
-23.95
-15.05
-6.29
1.85
9.23
15.9
21.93
27.2
31.36
33.97
34.71
33.63
31.11
27.81
24.4
21.41
19.17
17.82
17.37
17.77
18.89
20.53
22.4
24.14
25.48
26.17
26.16
25.48
24.22
22.46
20.2
17.44
14.2
10.57
6.75
3
-0.43
-3.36
-5.76
-7.7
-9.39
-11.09
-13.04
-15.47
-18.51
-22.13
-26.08
-29.8
-32.5
-33.38
-31.89
-27.94
-22.04
-15.12
-8.21
-2.17
2.59
6.08
8.62
10.65
12.53
14.48
16.54
18.68
20.86
23.02
25.17
27.37
29.67
32.05
34.35
36.36
37.83
38.58
38.52
37.63
35.91
33.3
29.8
25.45
20.59
15.77
11.63
8.66
7
6.35
6.05
5.43
3.95
1.47
-1.84
-5.66
-9.68
-13.76
-17.89
-22.16
-26.58
-31.09
-35.49
-39.5
-42.72
-44.63
-44.69
-42.39
-37.53
-30.36
-21.63
-12.38
-3.72
3.53
9.08
13.13
16.21
18.84
21.38
23.89
26.2
28.07
29.27
29.71
29.39
28.49
27.19
25.75
24.37
23.25
22.51
22.25
22.46
23.04
23.78
24.44
24.81
24.74
24.22
23.3
22.01
20.4
18.46
16.16
13.58
10.84
8.09
5.46
3.04
0.85
-1.09
-2.76
-4.16
-5.35
-6.41
-7.49
-8.77
-10.44
-12.62
-15.34
-18.46
-21.67
-24.54
-26.56
-27.38
-26.78
-24.8
-21.73
-17.96
-13.93
-9.99
-6.38
-3.18
-0.31
2.4
5.14
8.02
11.03
13.99
16.64
18.65
19.85
20.21
19.91
19.26
18.67
18.43
18.63
19.19
19.77
20
19.59
18.45
16.74
14.84
13.13
11.88
11.1
10.62
10.22
9.7
9.03
8.26
7.5
6.76
6
5.2
4.32
3.48
2.84
2.55
2.64
2.95
3.16
2.98
2.17
0.65
-1.51
-4.2
-7.33
-10.82
-14.61
-18.48
-22.12
-25.07
-26.97
-27.62
-27.04
-25.49
-23.34
-20.89
-18.33
-15.76
-13.25
-10.9
-8.85
-7.2
-5.97
-4.99
-4.01
-2.81
-1.31
0.4
2.03
3.32
4.07
4.21
3.83
3.14
2.37
1.75
1.33
1.07
0.79
0.35
-0.27
-0.97
-1.58
-1.99
-2.27
-2.6
-3.16
-3.98
-4.94
-5.76
-6.24
-6.32
-6.12
-5.86
-5.71
-5.8
-6.13
-6.72
-7.56
-8.68
-10.11
-11.83
-13.78
-15.84
-17.87
-19.76
-21.42
-22.79
-23.8
-24.31
-24.09
-22.97
-20.9
-18.01
-14.6
-11.06
-7.66
-4.54
-1.66
1.06
3.64
6.07
8.23
10.05
11.48
12.54
13.23
13.55
13.49
13.02
12.18
11.01
9.67
8.35
7.3
6.65
6.39
6.29
6.04
5.42
4.41
3.25
2.29
1.8
1.8
2.11
2.42
2.49
2.19
1.48
0.36
-1.18
-3.11
-5.27
-7.39
-9.16
-10.32
-10.81
-10.83
-10.78
-11.14
-12.23
-14.1
-16.49
-18.99
-21.19
-22.87
-24
-24.74
-25.24
-25.53
-25.51
-25.03
-24
-22.43
-20.42
-18.07
-15.41
-12.48
-9.3
-5.99
-2.71
0.37
3.14
5.58
7.72
9.64
11.37
12.91
14.22
15.2
15.74
15.74
15.23
14.3
13.24
12.31
11.71
11.47
11.44
11.34
10.88
9.79
7.91
5.25
1.96
-1.6
-4.99
-7.81
-9.85
-11.23
-12.22
-13.22
-14.43
-15.85
-17.29
-18.57
-19.62
-20.54
-21.5
-22.59
-23.74
-24.79
-25.51
-25.77
-25.5
-24.73
-23.45
-21.59
-19.03
-15.65
-11.44
-6.52
-1.13
4.42
9.78
14.67
18.94
22.49
25.32
27.45
28.85
29.48
29.27
28.22
26.4
23.96
21.09
17.99
14.84
11.76
8.93
6.52
4.71
3.61
3.22
3.39
3.86
4.34
4.62
4.6
4.25
3.6
2.63
1.29
-0.53
-2.87
-5.72
-8.98
-12.5
-16.12
-19.69
-23.08
-26.13
-28.65
-30.51
-31.69
-32.31
-32.63
-32.88
-33.17
-33.47
-33.68
-33.75
-33.72
-33.7
-33.78
-33.93
-33.98
-33.71
-32.93
-31.62
-29.83
-27.63
-24.98
-21.77
-17.89
-13.32
-8.21
-2.85
2.39
7.17
11.22
14.45
16.94
18.96
20.92
23.2
26.13
29.96
34.89
41.22
49.33
59.64
72.38
87.43
104.21
121.91
139.8
157.46
174.81
191.76
207.86
222.17
233.43
240.64
243.5
242.66
239.26
234.38
228.51
221.55
213.15
203.27
192.2
180.32
167.54
153.14
136.13
116.05
93.55
70.29
48.21
28.46
10.87
-5.71
-22.34
-38.97
-54.33
-66.59
-74.61
-78.65
-80.33
-81.68
-84.2
-88.35
-93.82
-100.18
-107.29
-115.2
-123.7
-132.02
-138.99
-143.65
-145.95
-146.88
-148
-150.57
-154.88
-160.17
-165.18
-168.83
-170.81
-171.52
-171.82
-172.51
-174.04
-176.53
-179.98
-184.37
-189.75
-196.05
-203
-210.04
-216.62
-222.45
-227.71
-232.97
-238.86
-245.56
-252.46
-258.14
-260.8
-258.81
-251.36
-238.74
-222.21
-203.55
-184.4
-165.81
-147.99
-130.46
-112.48
-93.54
-73.69
-53.65
-34.52
-17.42
-3.13
8.07
16.35
22.23
26.35
29.47
32.39
35.93
40.74
47.09
54.71
62.86
70.57
77.06
81.95
85.37
87.79
89.75
91.68
93.78
96.02
98.18
99.94
100.92
100.8
99.47
97.02
93.83
90.34
87
84.08
81.64
79.55
77.53
75.28
72.58
69.38
65.81
62.14
58.6
55.33
52.26
49.16
45.84
42.15
38.15
34
29.94
26.13
22.73
19.76
17.19
14.85
12.48
9.8
6.65
3.07
-0.68
-4.35
-7.72
-10.78
-13.71
-16.77
-20.2
-24.18
-28.67
-33.3
-37.39
-39.91
-39.84
-36.48
-29.83
-20.67
-10.36
-0.31
8.45
15.59
21.36
26.32
30.91
35.32
39.45
43.12
46.17
48.59
50.43
51.74
52.54
52.85
52.72
52.3
51.8
51.41
51.17
50.96
50.51
49.57
47.94
45.62
42.76
39.58
36.36
33.34
30.65
28.28
26.09
23.87
21.56
19.27
17.29
15.86
14.97
14.2
12.8
10.07
5.54
-0.65
-7.86
-15.12
-21.44
-26.11
-28.83
-29.82
-29.77
-29.66
-30.54
-33.09
-37.39
-42.71
-47.71
-50.82
-50.87
-47.41
-40.98
-32.84
-24.58
-17.57
-12.53
-9.47
-7.86
-7.11
-6.92
-7.57
-9.79
-14.44
-22.1
-32.81
-45.86
-59.91
-73.16
-83.64
-89.63
-90.15
-85.48
-77.11
-67.17
-57.39
-48.15
-38.37
-26.57
-12.29
2.91
15.79
23.22
24.12
20.51
16.71
17.03
23.58
35.35
49.19
61.75
71.24
78.03
84.01
91.57
102.6
118.03
137.58
159.61
181.17
198.55
208.33
208.73
200.35
185.94
169.07
152.49
137.02
121.62
104.39
83.94
60.33
35.19
11.03
-9.64
-25.35
-36.07
-42.84
-47.17
-50.23
-52.38
-53.28
-52.46
-49.84
-46.08
-42.36
-39.84
-39.33
-41.18
-45.42
-51.91
-60.23
-69.24
-77.02
-81.12
-79.54
-71.78
-59.46
-45.89
-34.98
-29.78
-31.64
-40.13
-53.76
-70.77
-89.61
-108.87
-126.93
-141.97
-152.28
-156.91
-156.32
-152.28
-147.28
-143.48
-141.85
-141.69
-140.99
-137.22
-128.3
-113.4
-93.1
-69.17
-43.9
-19.4
2.91
22.41
39.19
53.65
66.09
76.45
84.35
89.26
90.84
89.19
84.98
79.34
73.63
69.07
66.43
65.79
66.59
67.78
68.09
66.33
61.78
54.49
45.24
35.37
26.25
18.75
12.85
7.78
2.39
-4.17
-11.98
-20.31
-28.09
-34.5
-39.5
-43.89
-48.86
-55.43
-63.84
-73.5
-83.25
-91.93
-98.79
-103.67
-106.78
-108.37
-108.22
-105.59
-99.33
-88.45
-72.47
-51.94
-28.46
-4.32
18.09
36.94
51.54
62.36
70.79
78.56
87.06
97.01
108.25
119.78
130.12
137.6
140.84
139.12
132.64
122.52
110.51
98.49
87.83
79.1
71.85
64.93
56.89
46.59
33.58
18.36
2.19
-13.31
-26.67
-36.98
-43.96
-47.86
-49.14
-48.29
-45.81
-42.27
-38.44
-35.11
-32.95
-32.15
-32.47
-33.37
-34.36
-35.27
-36.31
-37.83
-39.97
-42.51
-44.82
-46.16
-46.01
-44.23
-41.16
-37.35
-33.36
-29.46
-25.59
-21.36
-16.26
-9.89
-2.18
6.5
15.41
23.68
30.67
36.08
40.06
42.97
45.15
46.84
48.22
49.55
51.14
53.27
55.95
58.87
61.42
63.05
63.43
62.56
60.67
57.96
54.62
50.85
47.03
43.72
41.46
40.55
40.83
41.74
42.55
42.69
41.87
40.08
37.46
34.23
30.7
27.17
23.88
20.86
17.88
14.57
10.76
6.64
2.81
0.1
-0.89
0.17
3.18
7.85
13.8
20.57
27.51
33.82
38.72
41.82
43.33
44.01
44.79
46.22
48.26
50.37
51.95
52.74
52.89
52.75
52.5
51.97
50.77
48.67
45.92
43.16
41.15
40.37
40.74
41.76
42.86
43.71
44.43
45.39
46.97
49.24
51.89
54.27
55.68
55.59
53.81
50.56
46.24
41.31
35.99
30.24
23.82
16.5
8.31
-0.45
-9.19
-17.33
-24.42
-30.3
-35.06
-38.88
-41.88
-44.03
-45.11
-44.9
-43.28
-40.28
-36.12
-31.17
-25.79
-20.37
-15.21
-10.46
-6.08
-1.84
2.67
7.79
13.67
20.11
26.57
32.31
36.49
38.35
37.34
33.33
26.69
18.32
9.5
1.52
-4.79
-9.27
-12.37
-14.82
-17.13
-19.39
-21.27
-22.3
-22.28
-21.36
-20.06
-18.94
-18.39
-18.48
-18.94
-19.39
-19.49
-19.15
-18.55
-18.07
-18.1
-18.91
-20.57
-22.96
-25.89
-29.16
-32.57
-35.95
-38.95
-41.08
-41.72
-40.37
-36.83
-31.39
-24.8
-17.99
-11.86
-6.94
-3.38
-0.93
0.79
2.13
3.22
4
4.32
4.12
3.58
3.04
2.9
3.4
4.44
5.62
6.39
6.35
5.37
3.66
1.53
-0.74
-3.04
-5.48
-8.18
-11.23
-14.57
-18.02
-21.34
-24.27
-26.66
-28.49
-29.91
-31.2
-32.67
-34.57
-36.97
-39.75
-42.68
-45.42
-47.59
-48.75
-48.38
-46.03
-41.39
-34.46
-25.63
-15.55
-5
5.28
14.68
22.76
29.27
34.12
37.5
39.79
41.55
43.31
45.4
47.81
50.25
52.26
53.44
53.57
52.61
50.68
47.95
44.53
40.57
36.19
31.53
26.65
21.59
16.26
10.61
4.64
-1.48
-7.45
-12.98
-17.95
-22.52
-27.07
-32.13
-38.05
-44.94
-52.55
-60.33
-67.5
-73.16
-76.41
-76.45
-72.84
-65.62
-55.42
-43.27
-30.35
-17.65
-5.72
5.39
15.93
26.24
36.54
46.72
56.48
65.39
73.11
79.49
84.62
88.83
92.54
96.24
100.24
104.68
109.44
114.19
118.54
122.12
124.82
126.8
128.54
130.68
133.84
138.44
144.57
151.92
159.84
167.55
174.37
180.12
185.29
190.97
198.3
207.59
217.69
225.99
229.27
225.03
212.6
193.39
170.1
145.56
121.68
99.17
77.95
57.67
38.12
19.09
0.22
-18.86
-38.14
-56.74
-72.92
-84.76
-91.18
-92.74
-91.66
-90.93
-93.01
-98.78
-107.3
-116.44
-123.91
-128.17
-128.83
-126.37
-121.7
-115.71
-109.19
-102.9
-97.74
-94.59
-94.05
-96.18
-100.34
-105.48
-110.48
-114.46
-116.95
-117.85
-117.31
-115.72
-113.61
-111.65
-110.44
-110.28
-110.98
-111.89
-112.2
-111.36
-109.31
-106.61
-104.19
-102.92
-103.39
-105.64
-109.26
-113.45
-117.17
-119.28
-118.64
-114.44
-106.41
-94.92
-80.91
-65.61
-50.13
-35.26
-21.44
-8.87
2.43
12.66
22.27
31.99
42.48
54.08
66.55
79.13
90.91
101.32
110.36
118.59
126.82
135.67
145.16
154.65
162.92
168.56
170.43
168.03
161.75
152.81
142.87
133.54
126.03
121
118.68
118.98
121.48
125.27
128.81
130.12
127.31
119.26
106.03
88.72
68.72
46.87
23.02
-3.77
-34.36
-68.8
-105.9
-143.59
-179.61
-212.03
-239.45
-260.73
-274.62
-279.89
-275.7
-262.33
-241.5
-216.1
-189.39
-163.96
-141.05
-120.53
-101.41
-82.71
-64.03
-45.75
-28.73
-13.75
-1.13
9.37
18.26
25.93
32.45
37.61
41.24
43.5
44.92
46.11
47.4
48.58
49.02
48.11
45.66
42.11
38.29
35.04
32.8
31.4
30.25
28.61
25.86
21.68
16.05
9.09
1.03
-7.9
-17.49
-27.56
-37.98
-48.59
-59.24
-69.75
-79.94
-89.79
-99.39
-109.06
-119.13
-129.76
-140.64
-150.98
-159.56
-165.08
-166.6
-163.84
-157.33
-148.1
-137.38
-126.09
-114.73
-103.3
-91.59
-79.4
-66.71
-53.71
-40.55
-27.27
-13.64
0.67
15.88
31.88
48.14
63.91
78.51
91.68
103.73
115.39
127.56
140.94
155.84
172.21
189.71
207.83
225.92
243.14
258.55
271.27
280.82
287.31
291.4
293.93
295.41
295.78
294.4
290.47
283.51
273.53
260.94
246.11
229.14
209.85
187.99
163.51
136.69
107.98
77.83
46.58
14.66
-17.31
-48.45
-77.85
-104.91
-129.42
-151.45
-170.91
-187.39
-200.37
-209.6
-215.57
-219.32
-221.93
-223.72
-223.98
-221.23
-214.12
-202.23
-186.37
-168.17
-149.17
-130.09
-110.69
-90.35
-68.74
-46.42
-24.85
-5.77
9.45
20.25
27.04
30.83
32.72
33.63
34.18
34.77
35.81
37.75
40.94
45.45
50.96
56.76
61.95
65.67
67.23
66.25
62.76
57.24
50.75
44.68
40.32
38.36
38.65
40.34
42.46
44.5
46.62
49.36
53.1
57.65
62.44
66.93
71.11
75.29
79.66
83.55
85.51
83.78
77.36
66.61
53.23
39.46
27.03
16.58
7.6
-0.9
-9.76
-19.19
-28.84
-38.12
-46.55
-53.95
-60.45
-66.38
-72.16
-78.23
-84.91
-92.3
-100.14
-107.72
-113.99
-117.78
-118.33
-115.69
-110.94
-105.98
-102.84
-102.96
-106.59
-112.79
-119.89
-126.22
-130.68
-132.96
-133.4
-132.66
-131.39
-130.2
-129.65
-130.18
-132.07
-135.2
-139.01
-142.68
-145.47
-147.07
-147.58
-147.17
-145.69
-142.63
-137.41
-129.95
-120.98
-111.83
-103.81
-97.59
-92.94
-89.04
-85.12
-80.84
-76.31
-71.71
-66.92
-61.39
-54.51
-45.89
-35.5
-23.66
-10.8
2.55
15.77
28.13
38.93
47.81
54.81
60.35
64.87
68.56
71.28
72.71
72.6
70.96
68.06
64.29
59.97
55.27
50.14
44.39
37.84
30.35
21.99
13.09
4.03
-4.86
-13.59
-22.52
-32.18
-43.01
-55.03
-67.81
-80.59
-92.58
-103.14
-112.05
-119.34
-125.24
-129.94
-133.32
-134.98
-134.4
-131.2
-125.46
-117.87
-109.49
-101.38
-94.21
-88
-82.31
-76.49
-70.07
-62.96
-55.35
-47.56
-39.72
-31.8
-23.54
-14.73
-5.27
4.63
14.6
24.17
32.97
40.85
47.89
54.31
60.38
66.2
71.68
76.6
80.62
83.47
85.03
85.41
84.87
83.76
82.38
80.86
79.21
77.35
75.21
72.82
70.24
67.54
64.71
61.67
58.25
54.33
49.9
45.03
39.82
34.35
28.59
22.42
15.7
8.36
0.58
-7.25
-14.43
-20.19
-23.77
-24.71
-22.93
-18.76
-12.86
-5.92
1.45
8.91
16.35
23.79
31.23
38.53
45.48
51.8
57.33
62
65.87
69.02
71.51
73.35
74.57
75.24
75.53
75.6
75.52
75.26
74.64
73.48
71.66
69.19
66.28
63.18
60.14
57.32
54.7
52.09
49.22
45.82
41.76
37.07
31.95
26.67
21.5
16.58
11.96
7.57
3.24
-1.24
-6.15
-11.67
-17.87
-24.54
-31.16
-36.96
-41.14
-43.06
-42.45
-39.48
-34.71
-28.86
-22.61
-16.46
-10.6
-5.03
0.39
5.7
10.8
15.53
19.67
23.1
25.89
28.17
30.13
31.88
33.42
34.67
35.57
36.07
36.25
36.17
35.9
35.42
34.67
33.54
31.94
29.83
27.21
24.13
20.73
17.15
13.58
10.1
6.7
3.25
-0.48
-4.72
-9.54
-14.82
-20.21
-25.16
-29.07
-31.4
-31.83
-30.27
-26.89
-22.06
-16.28
-10.07
-3.86
1.98
7.18
11.63
15.31
18.3
20.81
23.01
25.06
27.02
28.81
30.31
31.4
32.04
32.28
32.27
32.13
31.94
31.75
31.52
31.16
30.56
29.54
27.99
25.88
23.31
20.48
17.61
14.87
12.26
9.63
6.8
3.6
0.02
-3.84
-7.75
-11.51
-15.02
-18.37
-21.85
-25.78
-30.46
-36
-42.22
-48.7
-54.8
-59.82
-63.14
-64.28
-63.06
-59.58
-54.24
-47.63
-40.41
-33.07
-25.84
-18.75
-11.64
-4.37
3.04
10.39
17.36
23.57
28.78
32.93
36.13
38.63
40.63
42.29
43.64
44.66
45.28
45.5
45.41
45.17
44.89
44.62
44.24
43.55
42.32
40.42
37.87
34.82
31.49
28.06
24.67
21.38
18.2
15.08
11.94
8.65
5.14
1.36
-2.69
-6.95
-11.41
-16.07
-20.99
-26.2
-31.71
-37.47
-43.46
-49.59
-55.67
-61.33
-65.98
-68.9
-69.53
-67.62
-63.41
-57.51
-50.65
-43.48
-36.32
-29.23
-22.1
-14.83
-7.45
-0.13
6.86
13.28
18.99
23.97
28.26
31.95
35.1
37.75
39.89
41.55
42.82
43.81
44.63
45.3
45.77
45.95
45.72
45.02
43.87
42.35
40.58
38.72
36.85
34.98
33.05
30.97
28.64
26.04
23.18
20.12
16.89
13.5
9.93
6.15
2.19
-1.88
-5.94
-9.91
-13.74
-17.53
-21.46
-25.78
-30.72
-36.3
-42.25
-47.98
-52.72
-55.73
-56.53
-55.09
-51.72
-46.98
-41.41
-35.4
-29.15
-22.71
-16.16
-9.57
-3.08
3.18
9.09
14.54
19.45
23.71
27.28
30.14
32.41
34.24
35.75
37.02
38.07
38.84
39.3
39.42
39.17
38.54
37.52
36.14
34.47
32.64
30.8
29.04
27.35
25.64
23.77
21.64
19.22
16.57
13.78
10.93
8.05
5.15
2.17
-0.9
-4.08
-7.33
-10.61
-13.87
-17.1
-20.3
-23.52
-26.85
-30.37
-34.18
-38.3
-42.65
-47.01
-51.01
-54.19
-56.06
-56.24
-54.57
-51.1
-46.17
-40.27
-33.91
-27.52
-21.36
-15.47
-9.85
-4.44
0.7
5.49
9.8
13.58
16.86
19.74
22.36
24.8
27.08
29.15
30.96
32.45
33.64
34.53
35.1
35.32
35.19
34.71
33.98
33.03
31.95
30.76
29.44
27.97
26.35
24.56
22.64
20.6
18.45
16.25
14.01
11.72
9.29
6.62
3.6
0.22
-3.37
-7.01
-10.44
-13.57
-16.44
-19.21
-22.14
-25.42
-29.11
-33.14
-37.27
-41.17
-44.44
-46.64
-47.42
-46.6
-44.21
-40.53
-36
-31.11
-26.22
-21.5
-16.97
-12.51
-8.06
-3.63
0.65
4.57
8
10.89
13.35
15.57
17.72
19.86
21.87
23.53
24.64
25.16
25.18
24.97
24.76
24.72
24.85
25
25
24.6
23.66
22.1
19.95
17.4
14.7
12.12
9.81
7.73
5.72
3.54
1.03
-1.86
-5.02
-8.33
-11.71
-15.12
-18.59
-22.17
-25.9
-29.75
-33.74
-37.83
-41.93
-45.85
-49.23
-51.57
-52.38
-51.28
-48.25
-43.6
-37.92
-31.82
-25.79
-20.03
-14.54
-9.22
-4.04
0.94
5.59
9.85
13.73
17.29
20.56
23.49
25.94
27.82
29.11
29.93
30.41
30.67
30.75
30.61
30.16
29.34
28.14
26.59
24.78
22.81
20.78
18.77
16.82
14.87
12.86
10.71
8.43
6.06
3.71
1.42
-0.83
-3.17
-5.75
-8.65
-11.9
-15.36
-18.86
-22.25
-25.5
-28.75
-32.23
-36.21
-40.78
-45.83
-50.96
-55.61
-59.13
-61.03
-61.04
-59.22
-55.84
-51.31
-46.05
-40.44
-34.72
-29.02
-23.39
-17.82
-12.29
-6.87
-1.71
2.97
6.97
10.2
12.69
14.62
16.22
17.66
19.05
20.37
21.55
22.51
23.19
23.63
23.87
24.06
24.28
24.64
25.21
25.98
26.89
27.75
28.35
28.38
27.65
26.1
23.88
21.26
18.53
15.84
13.15
10.3
7.08
3.41
-0.65
-4.91
-9.18
-13.36
-17.47
-21.61
-25.92
-30.56
-35.66
-41.37
-47.75
-54.75
-62.03
-68.98
-74.84
-78.78
-80.24
-79.01
-75.33
-69.75
-62.96
-55.57
-48.04
-40.63
-33.49
-26.76
-20.61
-15.21
-10.66
-6.93
-3.89
-1.31
0.97
3.06
5
6.82
8.61
10.47
12.44
14.48
16.39
17.89
18.75
18.86
18.3
17.23
15.87
14.38
12.86
11.29
9.6
7.65
5.33
2.61
-0.49
-3.79
-7.13
-10.4
-13.61
-16.93
-20.62
-24.98
-30.13
-35.92
-41.83
-47.05
-50.64
-51.78
-50.04
-45.46
-38.59
-30.19
-21.07
-11.82
-2.75
6.03
14.54
22.84
30.91
38.66
45.92
52.41
57.86
62.03
64.84
66.38
66.89
66.71
66.14
65.38
64.54
63.64
62.57
61.23
59.53
57.43
54.98
52.2
49.16
45.89
42.42
38.82
35.2
31.64
28.13
24.59
20.85
16.78
12.38
7.82
3.3
-0.98
-4.98
-8.73
-12.38
-16.05
-19.87
-23.99
-28.52
-33.61
-39.33
-45.63
-52.22
-58.61
-64.11
-67.94
-69.47
-68.3
-64.45
-58.31
-50.48
-41.64
-32.31
-22.78
-13.17
-3.56
5.91
14.9
23.01
29.82
35.13
39
41.73
43.71
45.26
46.52
47.44
47.98
48.17
48.18
48.22
48.44
48.76
48.9
48.53
47.45
45.69
43.48
41.12
38.87
36.79
34.79
32.62
30.11
27.18
23.89
20.42
16.96
13.6
10.34
7.15
3.96
0.76
-2.51
-5.88
-9.44
-13.24
-17.28
-21.48
-25.68
-29.74
-33.66
-37.61
-41.85
-46.65
-52.13
-58.09
-64.06
-69.26
-72.83
-74.01
-72.4
-68.05
-61.45
-53.38
-44.64
-35.81
-27.19
-18.79
-10.45
-2.08
6.25
14.32
21.77
28.3
33.67
37.85
40.91
43.05
44.46
45.31
45.74
45.89
45.87
45.76
45.57
45.23
44.59
43.5
41.84
39.64
37.04
34.26
31.48
28.82
26.26
23.69
21.02
18.18
15.17
12.02
8.75
5.35
1.8
-1.91
-5.75
-9.62
-13.4
-17.04
-20.58
-24.19
-28.13
-32.67
-37.93
-43.79
-49.74
-54.99
-58.64
-59.94
-58.52
-54.53
-48.55
-41.31
-33.49
-25.5
-17.52
-9.55
-1.64
6.14
13.56
20.35
26.27
31.19
35.08
38.01
40.13
41.57
42.45
42.85
42.87
42.6
42.17
41.7
41.26
40.81
40.26
39.46
38.32
36.82
35.02
33.03
30.94
28.84
26.77
24.77
22.85
20.98
19.12
17.19
15.09
12.71
9.97
6.84
3.35
-0.37
-4.12
-7.66
-10.76
-13.27
-15.11
-16.37
-17.23
-18.01
-19.01
-20.49
-22.48
-24.7
-26.59
-27.43
-26.54
-23.58
-18.6
-12.07
-4.66
3.03
10.56
17.8
24.7
31.29
37.45
42.96
47.56
51.02
53.3
54.5
54.84
54.56
53.86
52.89
51.72
50.46
49.21
48.05
46.98
45.85
44.35
42.16
39.07
35.06
30.37
25.41
20.6
16.23
12.37
8.92
5.65
2.35
-1.11
-4.76
-8.52
-12.31
-15.98
-19.44
-22.61
-25.46
-28.01
-30.31
-32.47
-34.6
-36.87
-39.39
-42.24
-45.44
-48.95
-52.66
-56.43
-60.05
-63.25
-65.72
-67.11
-67.13
-65.69
-62.88
-59.01
-54.48
-49.67
-44.8
-39.86
-34.71
-29.16
-23.15
-16.86
-10.63
-4.85
0.16
4.32
7.74
10.61
13.12
15.32
17.18
18.64
19.7
20.48
21.1
21.63
22.03
22.19
22.04
21.55
20.8
19.9
18.95
17.94
16.83
15.55
14.05
12.35
10.49
8.53
6.48
4.38
2.24
0.09
-2.04
-4.07
-6.01
-7.86
-9.68
-11.56
-13.61
-15.86
-18.33
-20.99
-23.76
-26.59
-29.48
-32.54
-35.85
-39.47
-43.35
-47.28
-50.96
-54.04
-56.21
-57.21
-56.91
-55.25
-52.3
-48.23
-43.32
-37.89
-32.25
-26.63
-21.11
-15.67
-10.23
-4.78
0.63
5.78
10.44
14.38
17.54
19.99
21.9
23.45
24.75
25.78
26.52
26.93
27.07
27.08
27.05
27.04
27.02
26.93
26.71
26.34
25.8
25.13
24.32
23.33
22.15
20.74
19.09
17.2
15.15
13.02
10.96
9.02
7.2
5.42
3.53
1.44
-0.92
-3.5
-6.24
-9.08
-11.97
-14.85
-17.69
-20.48
-23.24
-26.08
-29.18
-32.62
-36.35
-40.1
-43.45
-45.93
-47.22
-47.14
-45.72
-43.1
-39.46
-34.99
-29.91
-24.52
-19.13
-14.03
-9.39
-5.2
-1.35
2.33
5.92
9.37
12.56
15.37
17.69
19.52
20.9
21.92
22.61
23.06
23.32
23.47
23.55
23.57
23.48
23.23
22.76
22.04
21.09
19.97
18.75
17.49
16.19
14.85
13.4
11.78
9.95
7.88
5.64
3.3
0.96
-1.27
-3.38
-5.39
-7.37
-9.43
-11.64
-14.03
-16.56
-19.13
-21.7
-24.23
-26.8
-29.58
-32.71
-36.3
-40.32
-44.66
-49.05
-53.11
-56.42
-58.54
-59.12
-58
-55.25
-51.18
-46.29
-41.08
-35.94
-31.04
-26.31
-21.52
-16.42
-10.88
-4.98
0.99
6.63
11.6
15.74
19.07
21.74
23.88
25.54
26.72
27.45
27.86
28.17
28.58
29.2
29.93
30.53
30.8
30.62
30.09
29.47
28.99
28.74
28.6
28.34
27.66
26.42
24.61
22.38
19.93
17.41
14.9
12.4
9.87
7.28
4.63
1.89
-0.95
-3.96
-7.18
-10.57
-14.07
-17.52
-20.81
-23.93
-26.98
-30.2
-33.79
-37.88
-42.43
-47.22
-51.85
-55.84
-58.7
-59.96
-59.36
-56.84
-52.61
-47.11
-40.91
-34.5
-28.27
-22.32
-16.58
-10.9
-5.11
0.82
6.79
12.56
17.85
22.4
26.08
28.87
30.9
32.37
33.47
34.38
35.21
36.08
37.04
38.12
39.25
40.24
40.8
40.71
39.83
38.27
36.3
34.22
32.27
30.54
28.94
27.34
25.63
23.79
21.82
19.74
17.52
15.11
12.46
9.58
6.57
3.55
0.59
-2.33
-5.33
-8.51
-11.93
-15.49
-19.09
-22.63
-26.19
-29.97
-34.26
-39.18
-44.56
-49.93
-54.55
-57.7
-58.81
-57.66
-54.46
-49.69
-44.02
-38.06
-32.25
-26.74
-21.48
-16.25
-10.85
-5.18
0.66
6.41
11.75
16.37
20.14
23.1
25.46
27.45
29.22
30.84
32.24
33.36
34.18
34.77
35.21
35.54
35.72
35.63
35.18
34.32
33.11
31.68
30.18
28.72
27.31
25.87
24.29
22.44
20.3
17.9
15.35
12.7
9.98
7.13
4.1
0.92
-2.31
-5.48
-8.52
-11.47
-14.48
-17.71
-21.27
-25.15
-29.31
-33.62
-38.04
-42.51
-47.01
-51.51
-55.92
-60.09
-63.72
-66.41
-67.69
-67.15
-64.59
-60.12
-54.18
-47.37
-40.25
-33.19
-26.29
-19.47
-12.63
-5.78
0.97
7.42
13.39
18.81
23.64
27.89
31.52
34.51
36.85
38.62
40
41.13
42.1
42.89
43.4
43.55
43.36
42.91
42.29
41.6
40.84
40
39.05
37.97
36.77
35.43
33.96
32.33
30.58
28.73
26.82
24.81
22.65
20.26
17.61
14.7
11.53
8.12
4.52
0.77
-3.02
-6.74
-10.31
-13.76
-17.18
-20.72
-24.46
-28.43
-32.59
-36.9
-41.39
-46.1
-50.96
-55.71
-59.86
-62.82
-64.04
-63.23
-60.44
-56.03
-50.56
-44.54
-38.36
-32.17
-25.97
-19.66
-13.11
-6.24
0.87
8.04
14.91
21.11
26.35
30.5
33.59
35.82
37.46
38.72
39.76
40.63
41.36
41.94
42.35
42.52
42.37
41.8
40.77
39.32
37.6
35.8
34.1
32.61
31.28
29.97
28.51
26.8
24.85
22.75
20.61
18.48
16.31
13.99
11.41
8.53
5.38
2.07
-1.31
-4.71
-8.1
-11.45
-14.73
-17.89
-20.9
-23.84
-26.86
-30.19
-34.04
-38.48
-43.34
-48.17
-52.33
-55.13
-56.03
-54.83
-51.65
-46.9
-41.14
-34.87
-28.45
-22.05
-15.69
-9.41
-3.23
2.73
8.31
13.37
17.86
21.81
25.31
28.42
31.15
33.44
35.22
36.49
37.29
37.75
37.99
38.09
38.06
37.83
37.3
36.37
35
33.17
30.95
28.48
25.92
23.45
21.23
19.36
17.85
16.65
15.63
14.59
13.37
11.85
10.02
7.98
5.85
3.71
1.57
-0.62
-2.91
-5.28
-7.61
-9.75
-11.61
-13.17
-14.56
-15.93
-17.46
-19.35
-21.68
-24.45
-27.48
-30.44
-32.86
-34.21
-34.03
-32.03
-28.22
-22.85
-16.42
-9.45
-2.42
4.42
11.03
17.56
24.16
30.85
37.45
43.65
49.1
53.57
57.06
59.77
61.95
63.82
65.47
66.9
68.07
68.96
69.6
69.97
70
69.61
68.73
67.41
65.75
63.86
61.76
59.35
56.43
52.84
48.55
43.74
38.77
34.05
29.93
26.55
23.78
21.27
18.6
15.46
11.81
7.98
4.49
1.91
0.65
0.87
2.45
5.09
8.3
11.39
13.65
14.45
13.58
11.35
8.5
5.96
4.49
4.47
5.94
8.7
12.47
16.88
21.35
25.16
27.6
28.22
27.02
24.3
20.48
15.8
10.44
4.6
-1.17
-6.07
-9.32
-10.56
-9.97
-8.1
-5.47
-2.3
1.38
5.31
8.74
10.47
9.45
5.4
-0.9
-7.94
-14.34
-19.52
-23.87
-28.22
-33.09
-38.2
-42.55
-45.11
-45.41
-43.94
-41.8
-40.16
-39.67
-40.36
-41.79
-43.45
-45.11
-46.73
-48.47
-50.46
-52.76
-55.36
-58.27
-61.5
-65.03
-68.83
-72.84
-77.09
-81.72
-86.91
-92.84
-99.53
-106.82
-114.41
-121.99
-129.33
-136.3
-142.83
-148.79
-153.94
-157.95
-160.42
-160.97
-159.34
-155.45
-149.48
-141.94
-133.51
-124.96
-116.92
-109.66
-103.05
-96.61
-89.65
-81.5
-71.64
-59.77
-45.76
-29.65
-11.69
7.64
27.61
47.24
65.48
81.41
94.49
104.63
112.22
117.89
122.33
126.14
129.78
133.5
137.38
141.21
144.43
146.29
146
143.15
137.86
130.75
122.62
114
104.82
94.45
82.06
67.1
49.61
30.17
9.63
-11.29
-32.14
-52.59
-72.24
-90.45
-106.38
-119.34
-129.08
-135.9
-140.56
-143.87
-146.28
-147.69
-147.45
-144.72
-138.79
-129.52
-117.39
-103.47
-89.05
-75.26
-62.8
-51.8
-41.98
-32.88
-24.11
-15.5
-7.05
1.21
9.23
16.98
24.34
31.04
36.71
41.01
43.86
45.47
46.36
47.09
48.07
49.42
50.96
52.39
53.42
53.93
53.96
53.6
52.89
51.84
50.4
48.6
46.54
44.39
42.27
40.21
38.11
35.8
33.16
30.17
26.92
23.59
20.29
17.08
13.91
10.75
7.58
4.4
1.23
-1.93
-5.08
-8.28
-11.53
-14.77
-17.94
-21
-23.98
-27.06
-30.48
-34.43
-38.96
-43.86
-48.67
-52.79
-55.59
-56.63
-55.76
-53.08
-48.96
-43.85
-38.21
-32.43
-26.73
-21.18
-15.69
-10.1
-4.27
1.86
8.17
14.42
20.33
25.68
30.42
34.57
38.19
41.33
43.98
46.11
47.76
48.99
49.93
50.67
51.24
51.58
51.59
51.19
50.34
49.09
47.58
45.98
44.43
42.97
41.5
39.89
37.98
35.75
33.24
30.6
27.95
25.33
22.74
20.1
17.36
14.5
11.57
8.58
5.52
2.34
-1.01
-4.52
-8.13
-11.76
-15.37
-19.02
-22.9
-27.25
-32.29
-38.06
-44.3
-50.43
-55.72
-59.42
-61.03
-60.4
-57.76
-53.54
-48.3
-42.44
-36.28
-30.01
-23.76
-17.62
-11.64
-5.74
0.11
6.02
11.94
17.72
23.13
27.92
31.94
35.18
37.74
39.79
41.49
42.94
44.18
45.22
46
46.47
46.54
46.18
45.35
44.12
42.58
40.9
39.18
37.5
35.8
33.94
31.76
29.19
26.29
23.26
20.36
17.75
15.46
13.31
11.07
8.48
5.41
1.86
-2.04
-6.11
-10.14
-14.02
-17.76
-21.52
-25.56
-30.22
-35.66
-41.85
-48.36
-54.49
-59.4
-62.39
-63.07
-61.48
-58
-53.19
-47.57
-41.54
-35.35
-29.11
-22.85
-16.57
-10.24
-3.82
2.74
9.37
15.91
22.03
27.4
31.71
34.86
36.97
38.32
39.28
40.15
41.07
42.09
43.1
44
44.68
45.01
44.89
44.26
43.16
41.76
40.27
38.86
37.58
36.31
34.87
33.11
31.07
28.89
26.78
24.86
23.1
21.36
19.51
17.45
15.24
12.93
10.49
7.84
4.81
1.34
-2.5
-6.49
-10.41
-14.07
-17.49
-20.83
-24.38
-28.46
-33.29
-38.91
-45.09
-51.32
-56.85
-60.83
-62.63
-61.94
-58.97
-54.29
-48.61
-42.52
-36.36
-30.22
-24.05
-17.82
-11.55
-5.29
0.91
6.99
12.84
18.3
23.14
27.13
30.18
32.37
33.91
35.08
36.11
37.13
38.13
39.13
40.09
40.97
41.71
42.2
42.3
41.91
41.03
39.75
38.26
36.74
35.3
33.99
32.77
31.57
30.35
29.06
27.64
26.04
24.22
22.18
19.93
17.58
15.16
12.71
10.21
7.6
4.82
1.82
-1.42
-4.86
-8.41
-11.95
-15.4
-18.75
-22.12
-25.69
-29.61
-33.96
-38.68
-43.54
-48.22
-52.29
-55.29
-56.84
-56.66
-54.7
-51.14
-46.4
-40.93
-35.16
-29.33
-23.53
-17.76
-12.01
-6.36
-0.93
4.14
8.78
13.01
16.93
20.61
24.01
27.01
29.44
31.18
32.25
32.85
33.26
33.72
34.35
35.04
35.57
35.68
35.23
34.27
32.95
31.5
30.06
28.7
27.37
26.01
24.57
23.04
21.47
19.84
18.18
16.43
14.6
12.71
10.78
8.84
6.84
4.68
2.27
-0.42
-3.37
-6.51
-9.79
-13.2
-16.78
-20.58
-24.62
-28.87
-33.25
-37.63
-41.85
-45.73
-48.97
-51.23
-52.14
-51.41
-48.95
-44.92
-39.71
-33.86
-27.86
-22.07
-16.61
-11.44
-6.44
-1.56
3.15
7.56
11.57
15.15
18.36
21.28
23.91
26.21
28.08
29.48
30.44
31.08
31.52
31.8
31.91
31.81
31.45
30.86
30.07
29.16
28.16
27.13
26.15
25.28
24.53
23.82
22.99
21.85
20.33
18.44
16.35
14.24
12.2
10.24
8.28
6.25
4.16
2.08
0.04
-2.01
-4.23
-6.77
-9.71
-12.94
-16.27
-19.55
-22.82
-26.3
-30.3
-34.98
-40.29
-45.87
-51.16
-55.53
-58.43
-59.52
-58.71
-56.13
-52.15
-47.23
-41.86
-36.42
-31.15
-26.09
-21.18
-16.27
-11.24
-6.04
-0.75
4.5
9.49
14.03
18.03
21.46
24.3
26.58
28.28
29.46
30.23
30.79
31.32
31.94
32.6
33.11
33.28
32.96
32.19
31.1
29.87
28.64
27.47
26.35
25.21
23.99
22.63
21.07
19.28
17.21
14.86
12.34
9.83
7.59
5.78
4.39
3.15
1.68
-0.41
-3.27
-6.75
-10.48
-13.97
-16.9
-19.21
-21.1
-22.88
-24.92
-27.43
-30.5
-34.07
-37.87
-41.51
-44.45
-46.15
-46.16
-44.3
-40.67
-35.63
-29.69
-23.33
-16.88
-10.46
-4.04
2.47
9.06
15.55
21.64
26.98
31.37
34.78
37.39
39.46
41.23
42.83
44.28
45.59
46.74
47.74
48.63
49.4
50.02
50.43
50.62
50.64
50.55
50.49
50.57
50.88
51.5
52.4
53.58
54.99
56.6
58.3
59.9
61.09
61.58
61.14
59.7
57.36
54.26
50.61
46.69
42.9
39.79
37.78
36.75
35.76
33.12
26.77
15.03
-2.75
-25.98
-53.02
-81.68
-109.76
-135.36
-156.99
-173.67
-184.89
-190.73
-191.7
-188.63
-182.39
-173.71
-163.16
-151.12
-137.99
-124.14
-110
-95.93
-82.18
-68.96
-56.38
-44.59
-33.72
-23.89
-15.15
-7.48
-0.8
5.02
10.1
14.57
18.48
21.87
24.73
27.02
28.72
29.87
30.61
31.05
31.31
31.45
31.4
31.08
30.4
29.34
27.96
26.37
24.67
22.91
21.05
19.07
16.92
14.63
12.25
9.86
7.47
4.99
2.29
-0.73
-4.11
-7.69
-11.31
-14.77
-18.06
-21.34
-24.88
-28.95
-33.63
-38.73
-43.78
-48.17
-51.29
-52.65
-52.08
-49.7
-45.9
-41.16
-35.95
-30.6
-25.29
-20.04
-14.82
-9.58
-4.26
1.15
6.63
12.08
17.35
22.22
26.52
30.12
33.04
35.37
37.2
38.64
39.71
40.44
40.86
41.07
41.17
41.28
41.43
41.58
41.62
41.36
40.69
39.59
38.18
36.66
35.24
34.07
33.14
32.33
31.43
30.23
28.59
26.49
23.96
21.14
18.17
15.19
12.33
9.67
7.18
4.77
2.27
-0.52
-3.71
-7.33
-11.26
-15.29
-19.2
-22.92
-26.56
-30.37
-34.69
-39.63
-44.99
-50.23
-54.58
-57.3
-57.91
-56.3
-52.73
-47.69
-41.73
-35.37
-29.01
-22.94
-17.27
-12.04
-7.14
-2.42
2.26
6.98
11.72
16.3
20.53
24.18
27.11
29.27
30.76
31.74
32.45
33.09
33.77
34.47
35.07
35.43
35.4
34.95
34.11
32.96
31.66
30.36
29.19
28.2
27.38
26.6
25.7
24.5
22.97
21.15
19.21
17.29
15.47
13.68
11.77
9.55
6.91
3.83
0.4
-3.22
-6.87
-10.42
-13.84
-17.13
-20.44
-23.93
-27.78
-32.13
-36.99
-42.19
-47.32
-51.79
-54.88
-55.97
-54.69
-51.09
-45.67
-39.23
-32.62
-26.48
-21.11
-16.43
-12.13
-7.85
-3.38
1.3
6.08
10.73
15.04
18.85
22.07
24.67
26.69
28.22
29.39
30.36
31.3
32.29
33.35
34.36
35.13
35.46
35.27
34.65
33.78
32.9
32.16
31.53
30.89
30.05
28.93
27.52
25.92
24.22
22.46
20.63
18.73
16.8
14.89
13.03
11.18
9.14
6.71
3.69
0.05
-4.09
-8.49
-12.88
-17.08
-21.08
-24.99
-29.06
-33.57
-38.77
-44.75
-51.37
-58.25
-64.78
-70.2
-73.81
-75.11
-73.95
-70.53
-65.4
-59.22
-52.64
-46.14
-39.98
-34.21
-28.66
-23.08
-17.22
-10.95
-4.28
2.58
9.28
15.45
20.8
25.2
28.75
31.68
34.31
36.83
39.25
41.36
42.93
43.72
43.75
43.21
42.39
41.55
40.79
40.03
39.11
37.89
36.32
34.48
32.49
30.43
28.29
25.98
23.43
20.65
17.8
15.04
12.54
10.3
8.12
5.75
2.96
-0.3
-3.88
-7.52
-10.95
-14.03
-16.8
-19.41
-22.07
-24.95
-28.21
-32
-36.37
-41.31
-46.58
-51.73
-56.09
-59.02
-59.93
-58.58
-55.11
-50
-43.91
-37.49
-31.24
-25.35
-19.74
-14.21
-8.54
-2.67
3.25
8.93
14.06
18.45
22.13
25.26
28.06
30.66
33.08
35.27
37.12
38.6
39.74
40.62
41.3
41.77
41.96
41.77
41.17
40.22
39.05
37.79
36.53
35.27
33.93
32.42
30.67
28.67
26.46
24.07
21.58
19.04
16.48
13.93
11.37
8.74
5.95
2.88
-0.5
-4.13
-7.85
-11.48
-14.9
-18.13
-21.34
-24.87
-28.95
-33.73
-39.09
-44.66
-49.89
-54.16
-56.86
-57.62
-56.29
-53.03
-48.25
-42.51
-36.35
-30.17
-24.18
-18.42
-12.74
-7.03
-1.19
4.71
10.52
16.03
20.99
25.26
28.79
31.59
33.77
35.4
36.55
37.27
37.62
37.7
37.63
37.49
37.34
37.12
36.76
36.19
35.36
34.26
32.94
31.46
29.87
28.26
26.7
25.23
23.85
22.5
21.11
19.59
17.92
16.11
14.19
12.14
9.91
7.41
4.65
1.68
-1.38
-4.39
-7.34
-10.32
-13.48
-16.89
-20.53
-24.25
-27.91
-31.51
-35.25
-39.43
-44.26
-49.62
-54.98
-59.5
-62.36
-63
-61.37
-57.83
-53.04
-47.64
-42.12
-36.71
-31.46
-26.34
-21.3
-16.33
-11.42
-6.56
-1.71
3.14
7.88
12.35
16.29
19.47
21.81
23.42
24.56
25.54
26.59
27.74
28.87
29.75
30.2
30.2
29.76
29.01
27.99
26.68
25.01
22.92
20.46
17.78
15.1
12.6
10.34
8.27
6.27
4.24
2.16
0.15
-1.67
-3.23
-4.54
-5.76
-7.01
-8.44
-10.08
-11.97
-14.14
-16.63
-19.39
-22.35
-25.32
-28.11
-30.7
-33.22
-36.01
-39.43
-43.64
-48.5
-53.49
-57.88
-60.88
-61.93
-60.84
-57.74
-53.1
-47.51
-41.56
-35.71
-30.24
-25.13
-20.23
-15.25
-9.97
-4.33
1.52
7.3
12.66
17.31
21.16
24.23
26.69
28.7
30.43
31.99
33.42
34.76
36.01
37.15
38.11
38.82
39.19
39.14
38.67
37.79
36.61
35.22
33.73
32.16
30.5
28.68
26.62
24.31
21.74
18.96
16.01
12.91
9.65
6.16
2.41
-1.62
-5.82
-10.06
-14.13
-17.88
-21.31
-24.58
-27.98
-31.85
-36.42
-41.75
-47.63
-53.57
-58.9
-62.91
-65
-64.81
-62.37
-58.02
-52.39
-46.15
-39.9
-33.96
-28.36
-22.93
-17.42
-11.65
-5.59
0.58
6.66
12.39
17.64
22.35
26.48
29.99
32.82
34.88
36.2
36.92
37.31
37.62
38.03
38.56
39.06
39.33
39.2
38.6
37.61
36.37
35
33.55
32.02
30.34
28.47
26.39
24.13
21.74
19.27
16.74
14.15
11.44
8.59
5.57
2.35
-1.02
-4.56
-8.22
-11.98
-15.79
-19.61
-23.42
-27.27
-31.31
-35.7
-40.58
-45.96
-51.57
-56.89
-61.25
-63.96
-64.6
-63.11
-59.71
-54.91
-49.23
-43.1
-36.78
-30.39
-23.93
-17.36
-10.64
-3.8
3.06
9.78
16.11
21.83
26.79
30.93
34.32
37.09
39.38
41.3
42.92
44.26
45.3
46.05
46.5
46.63
46.44
45.93
45.09
43.95
42.59
41.1
39.59
38.07
36.48
34.66
32.49
29.95
27.17
24.4
21.83
19.57
17.49
15.35
12.91
10.03
6.75
3.19
-0.5
-4.23
-7.96
-11.65
-15.32
-18.97
-22.72
-26.73
-31.2
-36.19
-41.56
-46.91
-51.63
-55.1
-56.81
-56.52
-54.28
-50.34
-45.14
-39.17
-32.91
-26.72
-20.82
-15.19
-9.66
-3.96
2.07
8.38
14.67
20.5
25.43
29.26
32.04
34.03
35.58
36.91
38.14
39.25
40.18
40.86
41.27
41.39
41.18
40.63
39.71
38.47
36.94
35.18
33.22
31.06
28.71
26.18
23.51
20.76
18.01
15.31
12.66
10.02
7.3
4.43
1.36
-1.92
-5.41
-9.1
-12.96
-16.93
-20.98
-25.02
-29.1
-33.32
-37.86
-42.85
-48.19
-53.44
-57.86
-60.62
-61.08
-59.09
-55.01
-49.53
-43.41
-37.19
-31.07
-24.95
-18.68
-12.12
-5.3
1.61
8.4
14.82
20.68
25.83
30.15
33.62
36.32
38.36
39.88
41.04
41.89
42.51
42.95
43.25
43.42
43.46
43.28
42.81
41.97
40.73
39.14
37.29
35.33
33.37
31.47
29.56
27.49
25.12
22.41
19.46
16.5
13.75
11.37
9.29
7.26
5
2.24
-1.11
-4.93
-9.02
-13.09
-16.99
-20.68
-24.28
-28.03
-32.14
-36.75
-41.82
-47.11
-52.2
-56.54
-59.57
-60.86
-60.18
-57.6
-53.49
-48.34
-42.66
-36.82
-30.96
-25.05
-18.94
-12.55
-5.92
0.73
7.08
12.79
17.69
21.71
24.95
27.52
29.5
30.93
31.82
32.24
32.39
32.51
32.84
33.47
34.28
34.94
35.06
34.36
32.8
30.59
28.13
25.84
24.01
22.67
21.63
20.52
19.01
16.92
14.29
11.4
8.58
6.14
4.19
2.68
1.5
0.52
-0.33
-1.02
-1.48
-1.54
-0.94
0.76
4.01
9.08
15.85
23.71
31.72
38.89
44.6
48.79
51.9
54.62
57.44
60.35
62.83
64.03
63.3
60.45
56
50.87
46.01
42.01
38.92
36.36
33.89
31.28
28.55
25.87
23.23
20.36
16.79
12.11
6.25
-0.43
-7.28
-13.52
-18.54
-21.92
-23.52
-23.4
-21.88
-19.54
-17.13
-15.49
-15.32
-16.98
-20.41
-25.19
-30.75
-36.62
-42.53
-48.53
-54.92
-62.09
-70.45
-80.16
-91.14
-102.96
-114.98
-126.49
-136.85
-145.55
-152.15
-156.28
-157.53
-155.67
-150.81
-143.61
-135.23
-127.07
-120.35
-115.57
-112.34
-109.49
-105.55
-99.33
-90.48
-79.5
-67.54
-55.8
-45.05
-35.45
-26.64
-18.14
-9.67
-1.32
6.6
13.79
20.14
25.79
30.94
35.73
40.08
43.79
46.63
48.54
49.6
50.03
50.01
49.69
49.1
48.28
47.27
46.11
44.78
43.22
41.3
38.91
36.02
32.71
29.14
25.47
21.77
18.07
14.29
10.4
6.4
2.35
-1.73
-5.91
-10.31
-15.16
-20.64
-26.81
-33.47
-40.16
-46.18
-50.75
-53.22
-53.29
-51.05
-46.95
-41.66
-35.8
-29.74
-23.6
-17.23
-10.46
-3.21
4.39
12.01
19.26
25.81
31.46
36.13
39.82
42.53
44.34
45.4
45.98
46.48
47.21
48.35
49.79
51.15
51.99
52.01
51.12
49.56
47.69
45.85
44.21
42.71
41.22
39.51
37.49
35.16
32.55
29.72
26.69
23.44
19.99
16.34
12.56
8.65
4.6
0.33
-4.17
-8.85
-13.58
-18.19
-22.6
-26.85
-31.14
-35.73
-40.77
-46.18
-51.54
-56.16
-59.2
-59.98
-58.2
-54.02
-48.01
-40.97
-33.67
-26.62
-20.01
-13.76
-7.67
-1.56
4.65
10.86
16.89
22.5
27.49
31.72
35.14
37.75
39.61
40.8
41.47
41.78
41.91
42.01
42.12
42.2
42.15
41.84
41.18
40.15
38.73
36.99
34.97
32.73
30.32
27.82
25.3
22.79
20.34
17.94
15.52
12.98
10.19
7.07
3.61
-0.07
-3.76
-7.29
-10.59
-13.75
-16.97
-20.51
-24.58
-29.27
-34.53
-40.1
-45.49
-50.01
-52.93
-53.62
-51.86
-47.86
-42.26
-35.84
-29.29
-22.95
-16.85
-10.8
-4.67
1.56
7.77
13.73
19.25
24.18
28.45
32.04
35
37.36
39.2
40.57
41.53
42.15
42.51
42.7
42.79
42.81
42.66
42.26
41.53
40.47
39.19
37.85
36.58
35.4
34.31
33.26
32.18
31.06
29.83
28.47
26.95
25.19
23.21
21.01
18.62
16.11
13.56
11.05
8.68
6.45
4.34
2.23
0.02
-2.34
-4.91
-7.68
-10.61
-13.68
-16.9
-20.31
-23.93
-27.75
-31.55
-34.94
-37.38
-38.31
-37.39
-34.55
-30.06
-24.34
-17.73
-10.39
-2.28
6.69
16.45
26.74
37.16
47.36
57.15
66.62
76.04
85.74
95.99
106.9
118.31
129.87
141.01
151.06
159.3
165.01
167.51
166.33
161.23
152.37
140.27
125.72
109.61
92.72
75.55
58.32
40.94
23.1
4.44
-15.26
-35.82
-56.51
-75.9
-92.19
-103.56
-108.78
-107.56
-100.79
-90.29
-78.45
-67.62
-59.57
-55.06
-53.76
-54.47
-55.64
-55.98
-54.95
-52.86
-50.57
-49.02
-48.71
-49.61
-51.26
-53.12
-54.91
-56.58
-58.28
-60.08
-61.97
-63.84
-65.72
-67.86
-70.61
-74.29
-78.79
-83.51
-87.45
-89.54
-89.06
-85.9
-80.57
-73.97
-67.06
-60.5
-54.61
-49.34
-44.45
-39.63
-34.61
-29.18
-23.17
-16.5
-9.25
-1.68
5.81
12.82
19.04
24.32
28.63
31.95
34.21
35.26
34.98
33.38
30.65
27.18
23.44
19.81
16.55
13.71
11.15
8.69
6.16
3.45
0.6
-2.31
-5.13
-7.77
-10.19
-12.49
-14.86
-17.5
-20.6
-24.19
-28.12
-32.08
-35.69
-38.53
-40.28
-40.69
-39.63
-37.15
-33.43
-28.84
-23.84
-18.9
-14.27
-10.04
-6.05
-2.1
1.98
6.16
10.32
14.29
17.97
21.31
24.3
26.87
28.93
30.4
31.29
31.71
31.88
31.96
32.05
32.14
32.14
31.94
31.51
30.87
30.1
29.22
28.27
27.2
25.96
24.54
22.94
21.19
19.33
17.38
15.34
13.19
10.91
8.49
5.93
3.28
0.61
-1.99
-4.43
-6.68
-8.76
-10.79
-12.93
-15.33
-18.09
-21.24
-24.8
-28.73
-32.97
-37.35
-41.53
-44.99
-47.08
-47.22
-45.06
-40.68
-34.59
-27.59
-20.46
-13.75
-7.55
-1.56
4.73
11.81
19.97
29.29
39.6
50.6
61.8
72.5
81.75
88.48
91.67
90.7
85.46
76.42
64.41
50.37
35.18
19.62
4.42
-9.71
-22.04
-32.02
-39.36
-44.14
-46.78
-47.82
-47.82
-47.14
-45.97
-44.38
-42.42
-40.17
-37.78
-35.41
-33.2
-31.21
-29.44
-27.87
-26.49
-25.35
-24.52
-24.06
-23.99
-24.29
-24.87
-25.68
-26.7
-27.98
-29.64
-31.83
-34.67
-38.12
-41.91
-45.58
-48.5
-50.1
-50.02
-48.23
-45.01
-40.83
-36.22
-31.55
-26.99
-22.52
-17.97
-13.16
-7.98
-2.45
3.26
8.9
14.16
18.8
22.67
25.77
28.14
29.9
31.16
32.02
32.59
33
33.38
33.85
34.41
34.95
35.29
35.22
34.62
33.54
32.16
30.75
29.52
28.53
27.73
26.95
26.04
24.86
23.36
21.57
19.56
17.44
15.31
13.2
11.1
8.96
6.69
4.23
1.52
-1.39
-4.42
-7.47
-10.44
-13.29
-16.1
-19.02
-22.24
-25.88
-29.89
-33.99
-37.7
-40.45
-41.76
-41.37
-39.31
-35.86
-31.45
-26.59
-21.68
-16.99
-12.62
-8.48
-4.39
-0.19
4.1
8.38
12.39
15.87
18.67
20.78
22.33
23.49
24.44
25.28
26.05
26.73
27.31
27.79
28.16
28.39
28.39
28.07
27.36
26.27
24.96
23.64
22.57
21.88
21.53
21.27
20.75
19.63
17.8
15.45
13
10.92
9.49
8.7
8.14
7.3
5.77
3.52
0.91
-1.51
-3.27
-4.24
-4.64
-4.91
-5.43
-6.37
-7.65
-9.04
-10.24
-10.84
-10.24
-7.68
-2.5
5.47
15.55
26.23
35.61
42.08
44.98
44.77
42.67
40.03
37.77
36.22
35.32
35.01
35.45
36.95
39.61
43.1
46.61
49.18
50.25
49.81
48.49
47.16
46.44
46.45
46.85
47.16
47.15
47.02
47.32
48.67
51.47
55.78
61.43
68.04
75.06
81.76
87.2
90.41
90.62
87.54
81.4
72.86
62.73
51.83
40.82
30.3
20.79
12.62
5.92
0.57
-3.64
-6.94
-9.47
-11.45
-13.37
-16.04
-20.36
-26.96
-35.78
-45.98
-56.06
-64.28
-69.22
-70.24
-67.92
-64.11
-61.58
-63.34
-71.59
-86.92
-107.98
-131.84
-154.95
-174.16
-187.44
-194.08
-194.3
-188.97
-179.17
-166.18
-151.41
-136.3
-122.06
-109.46
-98.65
-89.24
-80.54
-71.84
-62.71
-53.15
-43.53
-34.44
-26.5
-20.01
-14.85
-10.54
-6.43
-2.03
2.76
7.62
11.97
15.33
17.51
18.72
19.35
19.77
20.17
20.44
20.39
19.87
18.9
17.66
16.35
15.09
13.86
12.5
10.79
8.6
5.95
3.08
0.41
-1.56
-2.38
-1.8
0.22
3.42
7.36
11.45
15.05
17.64
19
19.33
19.23
19.49
20.77
23.25
26.45
29.43
31.17
30.96
28.62
24.4
18.8
12.26
5.19
-1.97
-8.59
-13.91
-17.29
-18.42
-17.56
-15.45
-13.05
-11.24
-10.57
-11.16
-12.83
-15.23
-17.93
-20.56
-22.77
-24.32
-25.1
-25.12
-24.54
-23.61
-22.58
-21.64
-20.91
-20.38
-20.03
-19.89
-20
-20.47
-21.38
-22.7
-24.33
-26.13
-27.98
-29.89
-32.01
-34.59
-37.9
-42.08
-47
-52.24
-57.14
-60.88
-62.77
-62.37
-59.57
-54.67
-48.17
-40.68
-32.8
-24.99
-17.52
-10.41
-3.51
3.47
10.73
18.26
25.78
32.86
39.07
44.12
47.99
50.86
52.97
54.5
55.58
56.28
56.7
56.94
57.11
57.24
57.26
57.04
56.44
55.42
53.97
52.18
50.16
48.04
45.91
43.81
41.75
39.71
37.65
35.55
33.36
31.06
28.62
26.07
23.41
20.69
17.86
14.84
11.51
7.85
3.88
-0.22
-4.29
-8.16
-11.84
-15.44
-19.16
-23.19
-27.67
-32.65
-38.09
-43.77
-49.34
-54.24
-57.83
-59.56
-59.12
-56.57
-52.28
-46.8
-40.65
-34.15
-27.34
-20.17
-12.63
-4.86
2.81
10
16.45
22.13
27.16
31.69
35.76
39.29
42.14
44.26
45.74
46.79
47.6
48.28
48.82
49.18
49.33
49.29
49.1
48.74
48.16
47.32
46.25
45.09
44.02
43.14
42.37
41.52
40.38
38.9
37.25
35.76
34.74
34.29
34.27
34.29
34
33.2
31.95
30.58
29.47
29.07
29.79
31.98
35.86
41.26
47.44
53.06
56.46
56.23
51.75
43.51
32.89
21.58
10.99
1.79
-5.99
-12.64
-18.39
-23.19
-26.89
-29.38
-30.89
-31.74
-32.13
-31.82
-30.19
-26.51
-20.34
-11.9
-1.97
8.37
18.18
26.85
34.14
40
44.34
47.11
48.35
48.37
47.66
46.58
45.22
43.11
39.58
34.03
26.26
16.62
5.84
-5.21
-15.84
-25.58
-34.2
-41.6
-47.81
-52.93
-57.17
-60.71
-63.58
-65.53
-65.94
-64.06
-59.29
-51.52
-41.3
-29.75
-18.23
-7.89
0.51
6.7
10.68
12.55
12.25
9.68
4.78
-2.29
-11.15
-21.2
-31.81
-42.35
-52.34
-61.4
-69.32
-76.01
-81.5
-85.85
-89.12
-91.32
-92.44
-92.47
-91.4
-89.28
-86.11
-81.88
-76.54
-70.04
-62.4
-53.72
-44.21
-34.14
-23.88
-13.74
-4.05
4.98
13.21
20.62
27.19
32.95
37.94
42.2
45.72
48.48
50.35
51.2
50.91
49.55
47.32
44.61
41.79
39.13
36.71
34.4
32.01
29.33
26.21
22.62
18.57
14.16
9.5
4.71
-0.03
-4.57
-8.83
-12.82
-16.64
-20.46
-24.42
-28.56
-32.8
-37
-41.04
-44.88
-48.58
-52.19
-55.64
-58.65
-60.81
-61.65
-60.89
-58.41
-54.37
-48.98
-42.51
-35.22
-27.39
-19.34
-11.41
-3.89
2.99
9.14
14.6
19.47
23.86
27.87
31.47
34.65
37.28
39.27
40.59
41.3
41.57
41.56
41.41
41.17
40.79
40.19
39.33
38.18
36.7
34.84
32.56
29.82
26.73
23.45
20.2
17.16
14.35
11.66
8.87
5.79
2.32
-1.53
-5.64
-9.82
-13.92
-17.84
-21.64
-25.47
-29.62
-34.38
-39.95
-46.29
-53.05
-59.56
-64.97
-68.43
-69.34
-67.52
-63.22
-57.01
-49.58
-41.52
-33.22
-24.9
-16.61
-8.37
-0.21
7.84
15.67
23.12
29.98
36.05
41.16
45.27
48.48
50.96
52.96
54.64
56.12
57.4
58.49
59.31
59.8
59.79
59.15
57.8
55.79
53.3
50.62
48.02
45.59
43.27
40.85
38.13
35.01
31.54
27.91
24.32
20.88
17.59
14.37
11.08
7.63
3.93
-0.07
-4.37
-8.96
-13.76
-18.66
-23.57
-28.49
-33.57
-39.06
-45.14
-51.71
-58.31
-64.11
-68.11
-69.51
-68.02
-63.88
-57.78
-50.46
-42.49
-34.15
-25.43
-16.34
-6.98
2.42
11.55
20.19
28.27
35.77
42.65
48.74
53.79
57.59
60.08
61.43
61.99
62.17
62.29
62.51
62.79
62.99
62.89
62.33
61.2
59.48
57.2
54.45
51.39
48.18
44.97
41.86
38.87
35.95
33.01
29.94
26.7
23.29
19.76
16.14
12.46
8.65
4.69
0.56
-3.64
-7.74
-11.58
-15.05
-18.2
-21.25
-24.52
-28.32
-32.86
-38.15
-43.91
-49.63
-54.63
-58.2
-59.76
-59.04
-56.09
-51.3
-45.27
-38.63
-31.86
-25.16
-18.48
-11.68
-4.63
2.56
9.58
15.97
21.35
25.53
28.58
30.76
32.33
33.43
34.06
34.19
33.83
33.1
32.18
31.23
30.26
29.2
27.93
26.44
24.82
23.27
21.99
21.07
20.47
20.04
19.58
18.93
17.96
16.63
14.96
13.05
11.01
8.97
6.99
5.05
3.03
0.79
-1.75
-4.6
-7.62
-10.61
-13.4
-15.89
-18.17
-20.46
-23.05
-26.17
-29.92
-34.14
-38.54
-42.69
-46.18
-48.65
-49.82
-49.51
-47.66
-44.38
-39.95
-34.77
-29.33
-23.95
-18.73
-13.55
-8.21
-2.61
3.15
8.76
13.85
18.18
21.67
24.45
26.7
28.55
30.07
31.22
31.98
32.38
32.53
32.6
32.75
33.04
33.47
33.91
34.23
34.35
34.26
34.06
33.92
34.01
34.48
35.42
36.86
38.81
41.23
44.05
47.21
50.69
54.5
58.7
63.33
68.41
73.93
79.9
86.35
93.32
100.76
108.46
116.08
123.24
129.57
134.75
138.36
139.68
137.81
131.82
121.32
106.78
89.56
71.47
54.11
38.31
24.01
10.63
-2.33
-14.94
-26.8
-37.45
-46.79
-55.11
-62.82
-70.05
-76.37
-81.08
-83.71
-84.58
-84.88
-86.23
-89.83
-95.82
-103.16
-110.11
-115.18
-117.83
-118.65
-118.99
-120.11
-122.52
-125.77
-128.62
-129.69
-127.86
-122.57
-113.82
-101.88
-87.16
-70
-50.73
-29.71
-7.43
15.52
38.42
60.6
81.52
100.91
118.69
134.9
149.55
162.56
173.8
183.16
190.68
196.55
201.05
204.39
206.58
207.49
206.96
205.06
202.22
199.23
196.94
195.85
195.81
195.96
195.1
192.25
187.13
180.23
172.43
164.33
155.82
146.04
133.86
118.56
100.29
80.02
59.04
38.45
18.67
-0.41
-19.2
-37.95
-56.5
-74.44
-91.32
-107.02
-121.69
-135.61
-148.88
-161.32
-172.66
-182.94
-192.81
-203.48
-216.29
-232.02
-250.34
-269.98
-289.35
-307.28
-323.46
-338.15
-351.38
-362.25
-368.71
-368.09
-358.16
-338
-308.44
-271.81
-231.27
-190.23
-151.71
-118.05
-90.66
-69.85
-54.79
-43.86
-35.24
-27.66
-21.03
-16.42
-15.56
-19.93
-29.81
-43.87
-59.44
-73.38
-83.11
-87.35
-86.31
-81.34
-74.26
-66.68
-59.52
-52.95
-46.52
-39.58
-31.67
-22.89
-13.79
-5.19
2.34
8.65
13.87
18.05
20.8
21.44
19.49
15.32
10.28
6.25
4.6
5.42
7.39
8.4
6.71
1.78
-5.51
-13.41
-20.13
-24.65
-27.03
-28.23
-29.65
-32.54
-37.56
-44.58
-52.73
-60.91
-68.18
-74.27
-79.52
-84.7
-90.42
-96.77
-103.25
-109.01
-113.33
-115.92
-117.01
-117.05
-116.45
-115.31
-113.42
-110.45
-106.2
-100.7
-94.19
-86.95
-79.13
-70.69
-61.48
-51.42
-40.62
-29.47
-18.54
-8.35
0.77
8.83
16.11
22.99
29.79
36.56
43.09
48.99
53.9
57.59
60.17
61.9
63.16
64.18
65.01
65.49
65.41
64.71
63.54
62.18
60.91
59.75
58.45
56.64
54.03
50.66
46.88
43.22
40.09
37.57
35.41
33.15
30.39
26.91
22.82
18.37
13.87
9.53
5.39
1.35
-2.85
-7.56
-13.08
-19.63
-27.09
-35.05
-42.75
-49.28
-53.78
-55.61
-54.5
-50.54
-44.15
-35.93
-26.57
-16.73
-6.92
2.61
11.82
20.79
29.56
37.94
45.6
52.15
57.41
61.47
64.71
67.58
70.4
73.29
76.14
78.74
80.93
82.63
83.86
84.63
84.91
84.62
83.68
82.08
79.91
77.34
74.51
71.52
68.34
64.9
61.15
57.07
52.76
48.3
43.69
38.87
33.74
28.22
22.35
16.33
10.44
4.93
-0.15
-4.95
-9.88
-15.48
-22.21
-30.23
-39.28
-48.58
-57.04
-63.52
-67.06
-67.19
-63.99
-57.96
-49.83
-40.35
-30.14
-19.63
-9.06
1.39
11.61
21.5
30.98
39.94
48.26
55.77
62.33
67.78
72.09
75.3
77.53
78.95
79.79
80.26
80.56
80.86
81.27
81.75
82.17
82.23
81.64
80.14
77.68
74.4
70.65
66.81
63.17
59.8
56.61
53.34
49.81
45.98
41.96
37.9
33.91
29.92
25.78
21.29
16.39
11.15
5.77
0.48
-4.59
-9.43
-14.18
-19.14
-24.64
-31
-38.3
-46.27
-54.22
-61.1
-65.74
-67.21
-65.08
-59.57
-51.45
-41.73
-31.33
-20.92
-10.83
-1.16
8.09
16.95
25.45
33.57
41.25
48.36
54.73
60.17
64.56
67.86
70.17
71.61
72.33
72.45
72.17
71.67
71.13
70.66
70.17
69.43
68.2
66.29
63.77
60.88
57.93
55.17
52.63
50.19
47.62
44.77
41.55
38.04
34.37
30.66
27
23.37
19.76
16.09
12.33
8.41
4.34
0.1
-4.29
-8.8
-13.34
-17.82
-22.12
-26.25
-30.34
-34.65
-39.48
-45
-51.06
-57.12
-62.34
-65.75
-66.57
-64.44
-59.47
-52.2
-43.46
-34.06
-24.68
-15.7
-7.25
0.69
8.18
15.15
21.43
26.78
31.04
34.24
36.55
38.26
39.59
40.67
41.48
42.03
42.34
42.48
42.56
42.54
42.26
41.5
40.05
37.92
35.3
32.53
29.91
27.6
25.53
23.51
21.35
18.94
16.28
13.47
10.63
7.84
5.14
2.49
-0.17
-2.97
-6.01
-9.35
-12.95
-16.67
-20.34
-23.8
-27.1
-30.4
-34.01
-38.22
-43.21
-48.82
-54.62
-59.82
-63.49
-64.82
-63.3
-58.91
-52.15
-43.82
-34.83
-25.93
-17.63
-10.14
-3.47
2.51
7.94
12.96
17.65
22.05
26.16
29.96
33.41
36.42
38.82
40.47
41.29
41.36
40.91
40.26
39.7
39.3
38.95
38.42
37.51
36.19
34.6
32.91
31.27
29.67
28
26.14
24.02
21.66
19.1
16.42
13.72
11.07
8.51
6.05
3.56
0.9
-2.09
-5.47
-9.15
-12.97
-16.73
-20.34
-23.83
-27.3
-30.88
-34.65
-38.68
-43.04
-47.81
-53.02
-58.5
-63.86
-68.38
-71.28
-71.85
-69.75
-65.06
-58.29
-50.2
-41.57
-33.07
-25.12
-17.87
-11.24
-5.04
0.89
6.6
11.98
16.84
21.01
24.4
27.06
29.08
30.58
31.65
32.36
32.8
33.1
33.34
33.6
33.83
33.93
33.78
33.3
32.45
31.26
29.82
28.2
26.51
24.8
23.14
21.53
19.94
18.28
16.46
14.37
11.93
9.16
6.17
3.15
0.28
-2.34
-4.71
-7
-9.41
-12.1
-15.14
-18.47
-21.93
-25.37
-28.68
-31.8
-34.82
-37.9
-41.33
-45.32
-49.94
-54.96
-59.81
-63.69
-65.73
-65.34
-62.34
-57.05
-50.11
-42.31
-34.34
-26.71
-19.69
-13.34
-7.62
-2.38
2.53
7.25
11.88
16.41
20.75
24.74
28.18
30.92
32.92
34.21
34.86
35.05
34.9
34.61
34.28
33.98
33.7
33.34
32.77
31.89
30.67
29.18
27.55
25.92
24.38
22.92
21.5
20.03
18.42
16.63
14.64
12.48
10.21
7.91
5.65
3.52
1.51
-0.38
-2.25
-4.19
-6.3
-8.69
-11.4
-14.42
-17.7
-21.12
-24.54
-27.81
-30.87
-33.75
-36.59
-39.66
-43.22
-47.44
-52.18
-56.95
-60.98
-63.39
-63.49
-61
-56.15
-49.58
-42.15
-34.62
-27.52
-21.1
-15.38
-10.23
-5.48
-1
3.37
7.66
11.87
15.86
19.47
22.55
25
26.85
28.19
29.15
29.85
30.32
30.56
30.52
30.17
29.51
28.6
27.54
26.37
25.12
23.76
22.26
20.66
19.04
17.5
16.09
14.75
13.3
11.57
9.47
7.04
4.47
1.94
-0.43
-2.68
-4.92
-7.32
-9.95
-12.83
-15.86
-18.95
-22.04
-25.11
-28.23
-31.46
-34.9
-38.63
-42.67
-46.92
-51.14
-54.87
-57.54
-58.56
-57.5
-54.19
-48.87
-42.11
-34.67
-27.29
-20.48
-14.41
-8.94
-3.76
1.37
6.51
11.53
16.17
20.2
23.53
26.22
28.39
30.15
31.57
32.62
33.32
33.71
33.88
33.91
33.82
33.6
33.18
32.51
31.54
30.26
28.66
26.78
24.69
22.51
20.42
18.55
16.98
15.63
14.38
13.01
11.41
9.5
7.34
5.01
2.6
0.18
-2.2
-4.54
-6.89
-9.31
-11.92
-14.81
-17.98
-21.37
-24.8
-28.07
-31.08
-33.84
-36.52
-39.43
-42.85
-46.86
-51.31
-55.74
-59.45
-61.74
-62.06
-60.18
-56.25
-50.72
-44.17
-37.19
-30.24
-23.6
-17.4
-11.68
-6.4
-1.47
3.2
7.69
12
16.09
19.86
23.16
25.88
27.91
29.23
29.89
30.05
29.92
29.75
29.73
29.9
30.2
30.43
30.39
29.94
29.06
27.85
26.44
24.94
23.39
21.79
20.17
18.59
17.09
15.71
14.41
13.06
11.53
9.72
7.64
5.41
3.14
0.94
-1.17
-3.29
-5.57
-8.1
-10.94
-14.03
-17.22
-20.41
-23.54
-26.65
-29.83
-33.21
-36.91
-40.97
-45.41
-50.09
-54.71
-58.76
-61.56
-62.49
-61.18
-57.64
-52.28
-45.74
-38.73
-31.77
-25.11
-18.86
-12.96
-7.32
-1.93
3.18
7.99
12.42
16.45
20.05
23.23
25.98
28.29
30.12
31.41
32.17
32.46
32.48
32.45
32.58
32.92
33.36
33.67
33.6
33
31.87
30.39
28.81
27.38
26.2
25.24
24.33
23.29
21.97
20.33
18.43
16.39
14.33
12.32
10.37
8.48
6.61
4.74
2.79
0.66
-1.77
-4.57
-7.67
-10.87
-13.91
-16.64
-19.04
-21.34
-23.89
-26.99
-30.78
-35.16
-39.78
-44.15
-47.76
-50.1
-50.73
-49.35
-45.89
-40.56
-33.9
-26.69
-19.71
-13.55
-8.43
-4.21
-0.49
3.08
6.69
10.32
13.79
16.89
19.54
21.72
23.52
25
26.2
27.15
27.89
28.49
29.03
29.53
29.96
30.22
30.23
29.95
29.43
28.71
27.86
26.9
25.8
24.58
23.24
21.78
20.17
18.36
16.34
14.11
11.74
9.36
7.09
4.96
2.93
0.86
-1.38
-3.9
-6.74
-9.82
-13.07
-16.37
-19.63
-22.81
-25.91
-29.05
-32.38
-36.14
-40.46
-45.37
-50.59
-55.62
-59.75
-62.3
-62.77
-61.04
-57.33
-52.15
-46.1
-39.7
-33.32
-27.14
-21.2
-15.45
-9.82
-4.28
1.18
6.46
11.43
15.95
19.89
23.18
25.85
27.95
29.6
30.88
31.89
32.66
33.19
33.49
33.55
33.39
33.05
32.57
31.91
31.02
29.87
28.47
26.92
25.39
23.97
22.67
21.37
19.91
18.16
16.14
13.96
11.8
9.78
7.93
6.21
4.5
2.72
0.75
-1.48
-4.04
-6.92
-10.07
-13.35
-16.65
-19.83
-22.83
-25.64
-28.4
-31.34
-34.73
-38.79
-43.52
-48.58
-53.29
-56.79
-58.34
-57.53
-54.42
-49.52
-43.54
-37.17
-30.88
-24.9
-19.25
-13.85
-8.56
-3.3
1.95
7.13
12.11
16.72
20.78
24.18
26.91
29.01
30.61
31.82
32.75
33.51
34.12
34.6
34.9
35
34.83
34.39
33.73
32.89
31.95
30.93
29.8
28.54
27.18
25.77
24.36
22.93
21.38
19.57
17.43
15.04
12.58
10.3
8.35
6.66
5.03
3.16
0.86
-1.9
-5.01
-8.26
-11.5
-14.69
-17.82
-20.97
-24.25
-27.77
-31.62
-35.77
-40.08
-44.2
-47.64
-49.86
-50.41
-49.06
-45.89
-41.19
-35.43
-29.15
-22.83
-16.83
-11.31
-6.26
-1.55
2.95
7.28
11.41
15.25
18.69
21.68
24.22
26.3
27.89
29
29.69
30.09
30.35
30.6
30.9
31.21
31.43
31.48
31.26
30.73
29.89
28.78
27.51
26.23
25.07
24.09
23.24
22.37
21.3
19.89
18.1
16
13.72
11.39
9.09
6.86
4.67
2.46
0.17
-2.24
-4.8
-7.55
-10.54
-13.78
-17.21
-20.71
-24.07
-27.16
-29.95
-32.61
-35.48
-38.92
-43.2
-48.28
-53.79
-59.06
-63.23
-65.5
-65.34
-62.65
-57.76
-51.34
-44.22
-37.08
-30.33
-24.04
-17.99
-11.87
-5.5
1.13
7.81
14.24
20.16
25.39
29.9
33.76
37.07
39.92
42.37
44.46
46.2
47.57
48.53
49.01
48.98
48.51
47.73
46.83
46.03
45.41
44.96
44.57
44.11
43.52
42.87
42.3
41.93
41.75
41.66
41.4
40.75
39.53
37.7
35.27
32.25
28.69
24.63
20.19
15.56
10.94
6.47
2.12
-2.32
-7.15
-12.62
-18.7
-25.15
-31.56
-37.62
-43.23
-48.54
-53.81
-59.23
-64.71
-69.89
-74.25
-77.32
-78.78
-78.54
-76.66
-73.25
-68.52
-62.71
-56.14
-49.14
-42.04
-35.04
-28.2
-21.53
-15.02
-8.67
-2.55
3.21
8.51
13.24
17.33
20.73
23.47
25.63
27.35
28.73
29.82
30.6
31.01
31.03
30.71
30.16
29.52
28.88
28.26
27.63
26.93
26.12
25.17
24.09
22.91
21.62
20.21
18.66
16.92
15.01
12.96
10.85
8.78
6.82
4.95
3.14
1.28
-0.7
-2.81
-5.04
-7.34
-9.66
-11.97
-14.27
-16.58
-18.93
-21.38
-24.01
-26.85
-29.91
-33.11
-36.28
-39.17
-41.55
-43.12
-43.66
-42.97
-41.01
-37.82
-33.65
-28.88
-23.94
-19.2
-14.9
-11.03
-7.5
-4.22
-1.11
1.77
4.35
6.57
8.48
10.22
11.95
13.78
15.69
17.57
19.22
20.49
21.27
21.61
21.58
21.31
20.92
20.5
20.11
19.76
19.5
19.3
19.12
18.84
18.28
17.29
15.8
13.9
11.82
9.84
8.15
6.79
5.61
4.33
2.7
0.56
-2.06
-5.01
-8.06
-11.02
-13.75
-16.25
-18.6
-20.93
-23.41
-26.21
-29.45
-33.21
-37.46
-41.98
-46.4
-50.2
-52.76
-53.57
-52.41
-49.4
-45
-39.83
-34.48
-29.26
-24.18
-19.06
-13.65
-7.85
-1.75
4.42
10.38
15.9
20.84
25.15
28.8
31.8
34.16
35.93
37.25
38.26
39.08
39.79
40.38
40.81
41
40.94
40.64
40.09
39.35
38.46
37.46
36.34
35.12
33.73
32.15
30.36
28.35
26.13
23.71
21.1
18.34
15.51
12.75
10.2
7.91
5.78
3.64
1.25
-1.51
-4.58
-7.76
-10.82
-13.63
-16.24
-18.87
-21.74
-25.02
-28.75
-32.82
-37.11
-41.41
-45.48
-48.94
-51.36
-52.3
-51.46
-48.83
-44.68
-39.52
-33.89
-28.28
-22.95
-17.97
-13.26
-8.69
-4.21
0.16
4.3
8.1
11.56
14.71
17.67
20.49
23.1
25.32
26.88
27.65
27.69
27.29
26.84
26.68
26.88
27.32
27.68
27.67
27.16
26.19
24.96
23.67
22.4
21.1
19.68
18.03
16.18
14.22
12.3
10.5
8.81
7.08
5.17
2.95
0.45
-2.23
-4.9
-7.45
-9.82
-12.1
-14.38
-16.72
-19.1
-21.51
-23.89
-26.34
-29.01
-32.07
-35.59
-39.42
-43.23
-46.49
-48.68
-49.37
-48.36
-45.72
-41.78
-37.05
-32.01
-27.03
-22.22
-17.55
-12.88
-8.18
-3.57
0.75
4.54
7.71
10.34
12.64
14.84
17.07
19.26
21.25
22.86
23.96
24.55
24.75
24.66
24.45
24.16
23.84
23.45
22.93
22.23
21.31
20.22
18.99
17.74
16.5
15.24
13.85
12.25
10.4
8.37
6.34
4.46
2.79
1.25
-0.35
-2.21
-4.46
-7.1
-9.99
-12.96
-15.85
-18.6
-21.26
-24.03
-27.09
-30.62
-34.66
-39.04
-43.44
-47.35
-50.22
-51.52
-50.97
-48.52
-44.45
-39.25
-33.52
-27.75
-22.25
-17.05
-12.02
-6.98
-1.78
3.6
9.03
14.32
19.18
23.36
26.67
29.07
30.63
31.58
32.16
32.57
32.91
33.21
33.42
33.51
33.45
33.21
32.75
32.07
31.16
30.1
28.99
27.95
26.98
26.02
24.91
23.48
21.65
19.44
16.97
14.44
12.07
10.01
8.3
6.84
5.4
3.71
1.53
-1.25
-4.55
-8.14
-11.75
-15.14
-18.2
-20.97
-23.63
-26.39
-29.47
-33.02
-37.04
-41.29
-45.29
-48.4
-50.01
-49.68
-47.34
-43.31
-38.16
-32.53
-26.92
-21.57
-16.5
-11.59
-6.69
-1.69
3.41
8.52
13.47
18.04
22.02
25.24
27.61
29.19
30.09
30.52
30.68
30.78
30.97
31.36
31.93
32.59
33.15
33.42
33.23
32.55
31.44
30.07
28.61
27.21
25.92
24.69
23.42
21.98
20.29
18.32
16.11
13.82
11.58
9.52
7.67
5.98
4.3
2.44
0.29
-2.17
-4.86
-7.63
-10.33
-12.87
-15.28
-17.63
-20.07
-22.71
-25.68
-29.03
-32.73
-36.6
-40.31
-43.39
-45.34
-45.73
-44.32
-41.17
-36.62
-31.2
-25.48
-19.9
-14.66
-9.77
-5.14
-0.69
3.57
7.54
11.13
14.32
17.15
19.72
22.06
24.08
25.63
26.59
26.95
26.86
26.6
26.42
26.49
26.77
27.05
27.08
26.66
25.78
24.6
23.34
22.2
21.26
20.43
19.56
18.51
17.21
15.69
14.05
12.4
10.78
9.22
7.68
6.14
4.61
3.04
1.4
-0.41
-2.46
-4.81
-7.36
-9.97
-12.44
-14.6
-16.46
-18.19
-20.03
-22.24
-25.02
-28.39
-32.23
-36.25
-40.02
-42.98
-44.59
-44.45
-42.44
-38.78
-33.97
-28.6
-23.21
-18.09
-13.3
-8.7
-4.13
0.5
5.17
9.73
14.01
17.84
21.16
23.94
26.21
28.02
29.4
30.35
30.88
31.03
30.91
30.64
30.33
30.02
29.68
29.21
28.51
27.52
26.24
24.74
23.09
21.4
19.77
18.27
16.93
15.72
14.54
13.27
11.8
10.11
8.22
6.18
4.07
1.89
-0.33
-2.58
-4.87
-7.18
-9.49
-11.8
-14.12
-16.42
-18.67
-20.85
-22.97
-25.13
-27.46
-30.1
-33.16
-36.6
-40.26
-43.79
-46.67
-48.39
-48.56
-47.04
-44.04
-40.02
-35.55
-31.03
-26.68
-22.47
-18.21
-13.76
-9.09
-4.29
0.47
4.97
9.08
12.65
15.63
17.95
19.61
20.63
21.15
21.37
21.52
21.83
22.4
23.15
23.89
24.35
24.37
23.89
23.02
21.92
20.77
19.7
18.75
17.95
17.26
16.61
15.83
14.76
13.27
11.39
9.28
7.18
5.3
3.67
2.18
0.64
-1.11
-3.16
-5.47
-7.95
-10.47
-12.91
-15.19
-17.28
-19.23
-21.18
-23.35
-25.96
-29.1
-32.66
-36.32
-39.57
-41.91
-42.89
-42.29
-40.11
-36.57
-32.07
-27.05
-21.93
-16.95
-12.22
-7.68
-3.24
1.13
5.4
9.45
13.16
16.46
19.32
21.71
23.58
24.87
25.55
25.72
25.59
25.42
25.44
25.68
26.02
26.25
26.17
25.75
25.07
24.28
23.53
22.83
22.14
21.35
20.43
19.37
18.24
17.12
16.04
14.98
13.86
12.63
11.29
9.9
8.59
7.42
6.35
5.24
3.86
2.02
-0.3
-3.03
-5.96
-8.89
-11.69
-14.31
-16.81
-19.24
-21.72
-24.38
-27.37
-30.78
-34.61
-38.64
-42.46
-45.53
-47.32
-47.47
-45.89
-42.77
-38.47
-33.44
-28.09
-22.71
-17.49
-12.51
-7.75
-3.14
1.4
5.92
10.39
14.71
18.79
22.54
25.9
28.85
31.31
33.22
34.48
35.08
35.12
34.79
34.34
33.94
33.66
33.46
33.23
32.9
32.4
31.7
30.75
29.55
28.09
26.43
24.67
22.94
21.33
19.88
18.56
17.27
15.87
14.29
12.52
10.58
8.55
6.46
4.34
2.18
-0.01
-2.24
-4.49
-6.76
-9.07
-11.45
-13.92
-16.47
-19.12
-21.87
-24.78
-27.89
-31.19
-34.58
-37.8
-40.59
-42.63
-43.7
-43.69
-42.6
-40.56
-37.76
-34.46
-30.84
-27.08
-23.21
-19.21
-15.08
-10.85
-6.66
-2.68
0.92
4.11
6.93
9.5
11.91
14.17
16.19
17.85
19.07
19.85
20.28
20.49
20.57
20.55
20.4
20.07
19.56
18.94
18.28
17.65
17
16.21
15.17
13.81
12.21
10.55
9.02
7.68
6.44
5.1
3.43
1.3
-1.26
-4.06
-6.92
-9.67
-12.24
-14.68
-17.05
-19.49
-22.11
-25.01
-28.24
-31.74
-35.26
-38.41
-40.72
-41.79
-41.4
-39.59
-36.61
-32.85
-28.67
-24.36
-20.07
-15.84
-11.65
-7.47
-3.28
0.88
4.9
8.68
12.06
14.95
17.28
19.04
20.31
21.18
21.75
22.15
22.42
22.63
22.77
22.83
22.75
22.5
22.07
21.47
20.73
19.86
18.88
17.78
16.6
15.39
14.18
12.99
11.74
10.38
8.9
7.37
5.91
4.64
3.56
2.52
1.31
-0.28
-2.35
-4.82
-7.45
-9.98
-12.21
-14.1
-15.73
-17.28
-18.99
-21.01
-23.45
-26.35
-29.66
-33.22
-36.7
-39.65
-41.59
-42.13
-41.12
-38.7
-35.24
-31.15
-26.82
-22.42
-18.02
-13.59
-9.11
-4.59
-0.09
4.36
8.71
12.94
16.96
20.65
23.85
26.41
28.27
29.46
30.12
30.42
30.54
30.56
30.5
30.37
30.16
29.88
29.58
29.26
28.88
28.4
27.72
26.8
25.64
24.31
22.86
21.39
19.99
18.69
17.48
16.27
14.95
13.44
11.71
9.84
7.93
6.06
4.19
2.27
0.2
-2.08
-4.57
-7.2
-9.9
-12.62
-15.37
-18.22
-21.25
-24.53
-28.1
-31.91
-35.91
-39.95
-43.81
-47.19
-49.7
-50.97
-50.73
-48.95
-45.84
-41.82
-37.37
-32.9
-28.6
-24.45
-20.35
-16.21
-12.04
-7.98
-4.2
-0.83
2.12
4.74
7.19
9.56
11.86
14.01
15.88
17.4
18.57
19.43
20.05
20.45
20.63
20.6
20.43
20.26
20.19
20.3
20.49
20.61
20.46
19.88
18.86
17.48
15.89
14.23
12.59
10.98
9.36
7.66
5.81
3.74
1.42
-1.16
-3.96
-6.85
-9.66
-12.19
-14.32
-16.08
-17.71
-19.53
-21.91
-25.06
-29
-33.49
-38.04
-42.02
-44.86
-46.15
-45.76
-43.86
-40.81
-37.03
-32.86
-28.54
-24.16
-19.73
-15.22
-10.64
-6
-1.37
3.17
7.49
11.44
14.86
17.63
19.71
21.09
21.89
22.22
22.3
22.26
22.24
22.22
22.14
21.89
21.38
20.6
19.57
18.38
17.11
15.83
14.64
13.59
12.67
11.76
10.66
9.16
7.17
4.79
2.26
-0.12
-2.2
-4.04
-5.92
-8.16
-11
-14.44
-18.25
-22.06
-25.48
-28.19
-29.96
-30.61
-30.07
-28.36
-25.63
-22.14
-18.22
-14.14
-10.12
-6.28
-2.65
0.79
4.02
7.07
9.87
12.39
14.57
16.4
17.88
19.14
20.31
21.48
22.68
23.79
24.65
25.11
25.14
24.8
24.25
23.64
23.05
22.48
21.88
21.16
20.26
19.13
17.72
16.06
14.21
12.26
10.35
8.53
6.81
5.11
3.33
1.36
-0.84
-3.2
-5.64
-8.12
-10.62
-13.23
-16.01
-19.02
-22.24
-25.67
-29.26
-33.02
-36.92
-40.8
-44.4
-47.3
-49.01
-49.19
-47.72
-44.73
-40.6
-35.77
-30.63
-25.41
-20.16
-14.82
-9.31
-3.68
1.93
7.29
12.17
16.41
19.93
22.76
24.99
26.73
28.1
29.21
30.14
30.92
31.6
32.14
32.53
32.69
32.62
32.34
31.89
31.3
30.61
29.77
28.75
27.53
26.13
24.65
23.17
21.79
20.51
19.25
17.87
16.28
14.4
12.28
10.01
7.7
5.43
3.23
1.07
-1.11
-3.42
-5.88
-8.48
-11.12
-13.67
-16.06
-18.32
-20.59
-23.09
-25.98
-29.31
-32.95
-36.68
-40.16
-42.96
-44.69
-45.01
-43.77
-41.04
-37.14
-32.51
-27.57
-22.58
-17.63
-12.67
-7.64
-2.49
2.75
7.99
13.04
17.7
21.77
25.05
27.5
29.19
30.3
31.02
31.51
31.87
32.19
32.54
32.97
33.51
34.09
34.54
34.72
34.52
33.92
32.98
31.83
30.55
29.25
27.98
26.76
25.59
24.41
23.13
21.7
20.1
18.4
16.67
14.96
13.29
11.62
9.94
8.25
6.59
4.97
3.33
1.57
-0.46
-2.88
-5.68
-8.72
-11.71
-14.36
-16.45
-17.96
-19.09
-20.22
-21.75
-23.95
-26.8
-29.99
-32.91
-34.85
-35.19
-33.63
-30.29
-25.65
-20.38
-15.14
-10.3
-5.96
-1.96
1.87
5.62
9.26
12.6
15.48
17.8
19.6
20.96
22.04
22.97
23.85
24.72
25.54
26.24
26.74
27.02
27.11
27.02
26.77
26.3
25.59
24.59
23.39
22.11
20.91
19.84
18.83
17.69
16.23
14.35
12.11
9.71
7.38
5.31
3.52
1.94
0.4
-1.26
-3.15
-5.29
-7.66
-10.23
-12.97
-15.84
-18.75
-21.62
-24.33
-26.83
-29.18
-31.54
-34.11
-37.04
-40.31
-43.72
-46.88
-49.33
-50.7
-50.78
-49.57
-47.27
-44.19
-40.61
-36.75
-32.7
-28.47
-24.06
-19.5
-14.88
-10.37
-6.22
-2.66
0.2
2.33
3.9
5.11
6.22
7.41
8.73
10.16
11.6
12.92
14
14.8
15.27
15.49
15.54
15.55
15.64
15.85
16.09
16.22
16.12
15.71
15.03
14.18
13.25
12.27
11.23
10.12
8.96
7.82
6.73
5.67
4.57
3.27
1.67
-0.29
-2.53
-4.94
-7.35
-9.62
-11.68
-13.51
-15.17
-16.81
-18.63
-20.77
-23.37
-26.43
-29.81
-33.24
-36.3
-38.48
-39.32
-38.56
-36.26
-32.78
-28.7
-24.56
-20.66
-17.08
-13.66
-10.23
-6.74
-3.25
0.08
3.15
5.94
8.52
10.94
13.24
15.38
17.32
18.99
20.35
21.39
22.11
22.55
22.78
22.85
22.82
22.71
22.5
22.15
21.62
20.93
20.12
19.31
18.59
18.01
17.53
17.06
16.48
15.72
14.73
13.53
12.14
10.59
8.88
7.03
5.08
3.09
1.13
-0.79
-2.7
-4.64
-6.67
-8.78
-10.94
-13.14
-15.35
-17.66
-20.17
-22.97
-26.07
-29.34
-32.54
-35.37
-37.56
-38.93
-39.36
-38.85
-37.43
-35.18
-32.19
-28.61
-24.6
-20.36
-16.05
-11.79
-7.71
-3.89
-0.39
2.75
5.56
8.12
10.53
12.87
15.12
17.2
19
20.45
21.53
22.28
22.77
23.06
23.16
23.08
22.84
22.5
22.16
21.85
21.57
21.21
20.68
19.9
18.9
17.79
16.7
15.7
14.77
13.82
12.75
11.48
10.03
8.46
6.78
5
3.06
0.92
-1.44
-3.93
-6.39
-8.65
-10.59
-12.2
-13.64
-15.17
-17.08
-19.54
-22.55
-25.9
-29.28
-32.34
-34.78
-36.4
-37.1
-36.82
-35.59
-33.49
-30.67
-27.31
-23.62
-19.7
-15.61
-11.35
-6.97
-2.57
1.64
5.46
8.79
11.67
14.26
16.76
19.28
21.79
24.15
26.2
27.86
29.18
30.31
31.34
32.34
33.24
33.93
34.33
34.41
34.18
33.63
32.71
31.41
29.7
27.68
25.5
23.36
21.38
19.61
17.96
16.28
14.43
12.31
9.96
7.5
5.16
3.1
1.39
-0.02
-1.33
-2.72
-4.35
-6.19
-8.15
-10.09
-11.99
-13.92
-16.07
-18.67
-21.79
-25.36
-29.13
-32.71
-35.71
-37.78
-38.67
-38.23
-36.46
-33.54
-29.82
-25.72
-21.68
-17.95
-14.61
-11.53
-8.51
-5.41
-2.23
0.91
3.87
6.56
9.02
11.34
13.54
15.55
17.17
18.23
18.67
18.64
18.44
18.38
18.63
19.15
19.7
19.98
19.76
19.03
17.97
16.83
15.79
14.89
14.02
13.04
11.82
10.37
8.79
7.21
5.74
4.39
3.14
1.9
0.58
-0.91
-2.62
-4.6
-6.85
-9.33
-11.92
-14.47
-16.83
-18.94
-20.84
-22.73
-24.83
-27.33
-30.3
-33.6
-36.9
-39.83
-41.98
-43.07
-42.92
-41.5
-38.93
-35.45
-31.42
-27.2
-23.08
-19.2
-15.52
-11.88
-8.16
-4.32
-0.44
3.33
6.86
10.07
12.92
15.41
17.55
19.32
20.75
21.91
22.9
23.79
24.63
25.39
26
26.39
26.45
26.17
25.56
24.7
23.69
22.66
21.71
20.85
20.04
19.13
18.03
16.66
15.07
13.3
11.43
9.45
7.31
4.96
2.43
-0.16
-2.62
-4.81
-6.75
-8.6
-10.67
-13.22
-16.41
-20.19
-24.36
-28.61
-32.61
-36.03
-38.59
-40.05
-40.27
-39.25
-37.17
-34.27
-30.85
-27.14
-23.29
-19.33
-15.24
-10.95
-6.42
-1.7
3.07
7.64
11.78
15.28
18.11
20.38
22.25
23.84
25.15
26.13
26.71
26.95
27
27.04
27.14
27.23
27.12
26.67
25.84
24.78
23.69
22.71
21.87
21.02
19.98
18.61
16.96
15.17
13.46
11.95
10.65
9.43
8.12
6.61
4.84
2.85
0.67
-1.66
-4.09
-6.58
-9.04
-11.41
-13.66
-15.92
-18.37
-21.21
-24.56
-28.38
-32.43
-36.35
-39.67
-42.01
-43.06
-42.69
-40.92
-37.99
-34.19
-29.86
-25.29
-20.65
-16.01
-11.39
-6.75
-2.07
2.58
7.05
11.15
14.7
17.61
19.94
21.84
23.48
24.92
26.16
27.12
27.75
28.11
28.26
28.28
28.15
27.78
27.05
25.93
24.53
23.06
21.74
20.7
19.98
19.48
19.04
18.49
17.67
16.53
15.05
13.36
11.59
9.9
8.35
6.9
5.44
3.81
1.92
-0.24
-2.6
-5.02
-7.41
-9.7
-11.93
-14.18
-16.55
-19.17
-22.13
-25.52
-29.35
-33.44
-37.5
-41.06
-43.57
-44.61
-43.97
-41.77
-38.41
-34.43
-30.27
-26.18
-22.12
-17.95
-13.51
-8.8
-3.95
0.83
5.29
9.26
12.62
15.31
17.36
18.89
20.12
21.24
22.37
23.54
24.63
25.52
26.15
26.53
26.77
26.88
26.85
26.59
26.05
25.28
24.44
23.7
23.09
22.52
21.76
20.58
18.89
16.75
14.4
12.09
10.01
8.17
6.5
4.84
3.1
1.24
-0.72
-2.73
-4.77
-6.89
-9.13
-11.51
-14.04
-16.71
-19.51
-22.47
-25.67
-29.14
-32.81
-36.45
-39.73
-42.25
-43.66
-43.76
-42.54
-40.2
-37
-33.21
-29.06
-24.62
-19.91
-14.91
-9.66
-4.34
0.82
5.57
9.77
13.43
16.66
19.58
22.23
24.55
26.43
27.82
28.78
29.48
30.08
30.64
31.06
31.19
30.9
30.23
29.36
28.51
27.85
27.41
27.04
26.54
25.76
24.63
23.24
21.69
20.12
18.55
16.98
15.39
13.79
12.24
10.8
9.47
8.15
6.7
5.02
3.08
0.97
-1.2
-3.38
-5.62
-8.04
-10.71
-13.59
-16.54
-19.39
-22.1
-24.76
-27.58
-30.73
-34.22
-37.87
-41.28
-44.03
-45.76
-46.22
-45.37
-43.28
-40.16
-36.26
-31.83
-27.08
-22.15
-17.07
-11.86
-6.54
-1.24
3.89
8.64
12.9
16.6
19.79
22.52
24.82
26.65
27.94
28.69
28.95
28.92
28.78
28.68
28.63
28.57
28.35
27.89
27.15
26.21
25.23
24.34
23.59
22.92
22.21
21.3
20.14
18.79
17.39
16.06
14.86
13.75
12.66
11.5
10.29
8.99
7.63
6.18
4.6
2.86
0.96
-1.05
-3.14
-5.29
-7.47
-9.63
-11.73
-13.76
-15.77
-17.87
-20.24
-22.98
-26.14
-29.64
-33.3
-36.83
-39.91
-42.23
-43.49
-43.5
-42.22
-39.8
-36.55
-32.84
-29
-25.24
-21.62
-18.04
-14.4
-10.61
-6.66
-2.66
1.22
4.79
7.9
10.47
12.52
14.19
15.61
16.89
18.06
19.07
19.85
20.41
20.78
21.05
21.24
21.31
21.15
20.67
19.89
18.93
17.97
17.16
16.54
16.03
15.47
14.72
13.68
12.31
10.66
8.8
6.85
4.96
3.21
1.63
0.17
-1.24
-2.74
-4.4
-6.3
-8.42
-10.74
-13.2
-15.71
-18.21
-20.72
-23.3
-26.09
-29.16
-32.48
-35.85
-38.94
-41.35
-42.77
-43.04
-42.13
-40.14
-37.26
-33.72
-29.76
-25.62
-21.45
-17.3
-13.12
-8.82
-4.38
0.12
4.49
8.49
11.98
14.9
17.3
19.23
20.75
21.9
22.73
23.33
23.87
24.39
24.91
25.33
25.52
25.42
25.06
24.5
23.86
23.23
22.66
22.17
21.74
21.3
20.72
19.89
18.72
17.26
15.61
13.97
12.43
11.02
9.67
8.26
6.72
4.99
3.11
1.12
-0.95
-3.09
-5.3
-7.59
-9.93
-12.33
-14.79
-17.34
-20.05
-22.97
-26.16
-29.56
-33.04
-36.38
-39.31
-41.5
-42.68
-42.61
-41.21
-38.58
-34.97
-30.75
-26.34
-22.01
-17.9
-13.97
-10.07
-6.06
-1.92
2.27
6.3
9.97
13.15
15.79
17.93
19.64
21.02
22.13
23.03
23.77
24.42
25.01
25.51
25.87
26.04
25.97
25.7
25.27
24.78
24.27
23.75
23.23
22.68
22.11
21.5
20.8
19.94
18.82
17.39
15.66
13.72
11.7
9.74
7.94
6.33
4.86
3.4
1.82
0.03
-2.01
-4.27
-6.63
-8.96
-11.21
-13.39
-15.6
-18.01
-20.75
-23.93
-27.49
-31.31
-35.17
-38.83
-42.03
-44.52
-46.1
-46.57
-45.88
-44.07
-41.32
-37.9
-34.07
-30.01
-25.76
-21.26
-16.42
-11.24
-5.9
-0.71
3.99
7.98
11.25
13.97
16.36
18.58
20.63
22.4
23.75
24.66
25.26
25.72
26.2
26.75
27.3
27.73
27.95
27.93
27.7
27.25
26.59
25.73
24.72
23.61
22.48
21.37
20.3
19.27
18.25
17.24
16.24
15.24
14.17
13.01
11.69
10.23
8.62
6.84
4.86
2.64
0.18
-2.51
-5.43
-8.59
-12.05
-15.86
-19.99
-24.26
-28.35
-31.86
-34.43
-35.84
-36.04
-35.12
-33.27
-30.71
-27.65
-24.32
-20.82
-17.23
-13.55
-9.79
-5.94
-2.09
1.67
5.25
8.58
11.59
14.21
16.37
18.02
19.13
19.79
20.17
20.46
20.78
21.18
21.62
22.01
22.28
22.42
22.48
22.49
22.45
22.28
21.89
21.19
20.17
18.93
17.58
16.28
15.08
13.98
12.91
11.77
10.51
9.12
7.62
6.04
4.4
2.69
0.92
-0.88
-2.63
-4.3
-5.92
-7.58
-9.42
-11.56
-14
-16.68
-19.48
-22.35
-25.31
-28.44
-31.74
-35.06
-38.05
-40.3
-41.43
-41.26
-39.88
-37.48
-34.39
-30.9
-27.26
-23.58
-19.88
-16.04
-11.91
-7.37
-2.43
2.72
7.74
12.27
16.07
19
21.15
22.68
23.78
24.61
25.27
25.8
26.16
26.35
26.33
26.13
25.81
25.46
25.12
24.74
24.26
23.59
22.71
21.67
20.58
19.54
18.62
17.79
16.97
16.06
14.93
13.51
11.77
9.75
7.55
5.31
3.15
1.11
-0.83
-2.74
-4.64
-6.52
-8.32
-9.94
-11.4
-12.77
-14.14
-15.6
-17.17
-18.86
-20.74
-22.99
-25.76
-29.16
-32.98
-36.79
-39.91
-41.74
-41.93
-40.59
-38.11
-35.04
-31.79
-28.46
-24.98
-21.16
-16.97
-12.54
-8.16
-4.14
-0.63
2.38
5.04
7.53
9.94
12.29
14.46
16.37
17.97
19.32
20.49
21.53
22.41
23.04
23.3
23.15
22.64
21.89
21.03
20.18
19.39
18.65
17.9
17.12
16.27
15.35
14.39
13.41
12.42
11.39
10.23
8.86
7.25
5.47
3.64
1.8
-0.09
-2.17
-4.61
-7.38
-10.33
-13.18
-15.71
-17.87
-19.84
-21.88
-24.26
-27.08
-30.19
-33.32
-36.07
-38.1
-39.13
-39.03
-37.79
-35.54
-32.49
-28.9
-25.02
-21.06
-17.16
-13.35
-9.6
-5.83
-1.99
1.9
5.76
9.42
12.7
15.48
17.7
19.36
20.54
21.38
22.01
22.6
23.22
23.87
24.44
24.81
24.88
24.69
24.29
23.77
23.18
22.44
21.5
20.35
19.07
17.76
16.49
15.28
14.07
12.79
11.41
9.92
8.28
6.45
4.33
1.9
-0.79
-3.58
-6.27
-8.74
-10.97
-13.07
-15.19
-17.45
-19.9
-22.51
-25.22
-27.92
-30.38
-32.35
-33.54
-33.71
-32.8
-30.94
-28.35
-25.36
-22.22
-19.06
-15.96
-12.89
-9.83
-6.76
-3.7
-0.7
2.2
4.94
7.46
9.71
11.69
13.32
14.6
15.55
16.25
16.85
17.5
18.27
19.13
19.93
20.43
20.48
20.04
19.22
18.24
17.31
16.56
15.98
15.48
14.93
14.22
13.34
12.29
11.1
9.78
8.27
6.54
4.57
2.41
0.13
-2.17
-4.41
-6.55
-8.59
-10.53
-12.39
-14.18
-15.94
-17.75
-19.73
-22.02
-24.69
-27.75
-31.05
-34.29
-37.13
-39.22
-40.35
-40.45
-39.51
-37.62
-34.92
-31.53
-27.64
-23.48
-19.22
-15.02
-10.91
-6.89
-2.93
0.96
4.75
8.43
11.95
15.26
18.22
20.71
22.57
23.78
24.45
24.81
25.06
25.35
25.66
25.89
25.96
25.86
25.64
25.37
25.02
24.49
23.66
22.52
21.16
19.78
18.55
17.57
16.75
15.92
14.89
13.56
11.94
10.17
8.38
6.66
4.96
3.2
1.26
-0.92
-3.29
-5.76
-8.18
-10.47
-12.59
-14.57
-16.49
-18.48
-20.64
-23.11
-25.99
-29.28
-32.81
-36.24
-39.1
-40.89
-41.29
-40.19
-37.81
-34.53
-30.78
-26.91
-23.09
-19.34
-15.59
-11.8
-7.93
-3.99
-0.05
3.85
7.64
11.21
14.4
17.03
18.99
20.26
21.01
21.49
22.01
22.77
23.82
25.05
26.26
27.2
27.74
27.79
27.38
26.59
25.53
24.31
23.04
21.84
20.83
20.12
19.7
19.46
19.22
18.74
17.82
16.46
14.76
12.96
11.31
9.93
8.8
7.77
6.62
5.22
3.5
1.55
-0.57
-2.77
-5.02
-7.29
-9.58
-11.84
-14.03
-16.13
-18.21
-20.36
-22.69
-25.23
-27.84
-30.21
-31.9
-32.51
-31.8
-29.83
-26.94
-23.62
-20.36
-17.45
-14.87
-12.45
-9.95
-7.23
-4.38
-1.57
1.02
3.33
5.42
7.43
9.43
11.4
13.27
14.92
16.26
17.32
18.17
18.84
19.33
19.58
19.51
19.08
18.36
17.47
16.57
15.8
15.21
14.77
14.33
13.75
12.9
11.75
10.33
8.78
7.22
5.75
4.36
2.97
1.46
-0.22
-2.07
-3.99
-5.84
-7.54
-9.1
-10.6
-12.18
-13.93
-15.9
-18.09
-20.47
-23.04
-25.81
-28.72
-31.62
-34.25
-36.27
-37.38
-37.36
-36.21
-34.07
-31.16
-27.77
-24.12
-20.4
-16.74
-13.22
-9.92
-6.83
-3.91
-1.07
1.77
4.65
7.47
10.05
12.23
13.89
15.05
15.85
16.47
17.01
17.52
17.97
18.33
18.58
18.72
18.74
18.65
18.43
18.09
17.67
17.2
16.73
16.23
15.68
15.04
14.33
13.59
12.8
11.96
10.98
9.84
8.56
7.18
5.76
4.28
2.69
0.91
-1.06
-3.18
-5.33
-7.44
-9.42
-11.31
-13.13
-14.99
-16.98
-19.21
-21.8
-24.77
-28.04
-31.31
-34.17
-36.21
-37.11
-36.82
-35.45
-33.27
-30.55
-27.45
-24.06
-20.42
-16.64
-12.85
-9.19
-5.72
-2.38
0.96
4.4
7.9
11.27
14.25
16.62
18.3
19.39
20.07
20.58
21.07
21.54
21.98
22.29
22.43
22.43
22.33
22.16
21.96
21.69
21.3
20.74
20.01
19.16
18.27
17.38
16.5
15.55
14.44
13.11
11.58
9.92
8.25
6.66
5.12
3.55
1.79
-0.24
-2.5
-4.86
-7.13
-9.17
-10.99
-12.75
-14.69
-16.98
-19.69
-22.73
-25.96
-29.2
-32.29
-35.05
-37.23
-38.53
-38.73
-37.7
-35.53
-32.51
-28.99
-25.29
-21.58
-17.9
-14.17
-10.35
-6.44
-2.47
1.45
5.27
8.89
12.23
15.19
17.66
19.56
20.87
21.61
21.91
21.89
21.74
21.57
21.47
21.52
21.73
22.1
22.54
22.9
23.01
22.73
22.02
20.99
19.84
18.73
17.76
16.86
15.85
14.57
13.01
11.25
9.51
7.9
6.44
5.05
3.59
1.99
0.28
-1.5
-3.33
-5.21
-7.2
-9.34
-11.63
-14.08
-16.68
-19.48
-22.52
-25.72
-28.88
-31.67
-33.74
-34.85
-34.88
-33.9
-32.04
-29.48
-26.38
-22.9
-19.17
-15.32
-11.46
-7.67
-4
-0.47
2.92
6.14
9.16
11.92
14.37
16.47
18.23
19.65
20.79
21.64
22.23
22.56
22.69
22.71
22.7
22.76
22.88
22.97
22.91
22.57
21.91
20.93
19.78
18.58
17.5
16.58
15.76
14.9
13.84
12.48
10.88
9.2
7.63
6.25
4.99
3.69
2.22
0.52
-1.31
-3.18
-5.01
-6.86
-8.85
-11.05
-13.46
-16.02
-18.65
-21.37
-24.25
-27.4
-30.79
-34.23
-37.37
-39.78
-41.06
-40.99
-39.58
-37.03
-33.71
-30.02
-26.29
-22.75
-19.49
-16.5
-13.74
-11.15
-8.65
-6.25
-3.92
-1.74
0.22
1.87
3.2
4.27
5.15
5.94
6.63
7.15
7.45
7.52
7.51
7.64
8.11
9.03
10.34
11.84
13.38
14.87
16.47
18.5
21.28
25.04
29.79
35.35
41.46
47.99
54.95
62.51
70.89
80.14
90.14
100.52
110.72
120.08
127.94
133.78
137.46
139.36
140.41
141.89
144.94
150.12
157.12
164.69
170.88
173.56
170.83
161.57
145.83
124.86
100.91
76.62
54.25
35.02
18.92
5.03
-7.85
-20.56
-33.3
-45.63
-56.82
-66.14
-73.04
-77.29
-79.06
-78.96
-78.14
-78.1
-80.37
-86.12
-95.74
-108.65
-123.43
-138.1
-150.51
-158.89
-162.22
-160.44
-154.53
-146.16
-137.15
-128.94
-122.23
-116.83
-112.04
-107.02
-101.22
-94.52
-87.12
-79.38
-71.58
-63.89
-56.43
-49.38
-42.96
-37.46
-33.12
-29.99
-27.92
-26.55
-25.44
-24.18
-22.55
-20.57
-18.44
-16.37
-14.41
-12.4
-10.01
-7.05
-3.55
0.12
3.43
5.94
7.51
8.37
8.91
9.52
10.36
11.35
12.26
12.95
13.44
13.9
14.55
15.37
16.15
16.53
16.23
15.28
14.02
12.98
12.51
12.65
13.02
13.11
12.56
11.34
9.79
8.41
7.56
7.28
7.26
7.05
6.26
4.77
2.78
0.59
-1.49
-3.4
-5.23
-7.17
-9.38
-11.83
-14.35
-16.68
-18.62
-20.03
-20.88
-21.1
-20.64
-19.39
-17.29
-14.4
-10.93
-7.22
-3.64
-0.52
1.97
3.83
5.17
6.16
6.95
7.6
8.14
8.61
9.09
9.67
10.4
11.26
12.16
12.99
13.67
14.15
14.47
14.59
14.46
13.97
13.05
11.65
9.84
7.73
5.43
3.01
0.53
-1.96
-4.44
-6.89
-9.28
-11.61
-13.91
-16.21
-18.58
-21.12
-23.96
-27.17
-30.71
-34.33
-37.68
-40.32
-41.92
-42.32
-41.55
-39.79
-37.28
-34.19
-30.62
-26.6
-22.19
-17.47
-12.57
-7.64
-2.82
1.78
6.11
10.08
13.6
16.59
18.95
20.7
21.95
22.87
23.67
24.45
25.21
25.88
26.36
26.59
26.56
26.32
25.94
25.46
24.9
24.29
23.63
22.94
22.19
21.31
20.2
18.74
16.9
14.73
12.35
9.91
7.53
5.19
2.84
0.4
-2.18
-4.85
-7.52
-10.16
-12.82
-15.66
-18.9
-22.69
-27.03
-31.69
-36.28
-40.29
-43.25
-44.87
-44.99
-43.72
-41.28
-37.97
-34.09
-29.86
-25.39
-20.68
-15.68
-10.33
-4.68
1.09
6.72
11.9
16.38
20.02
22.84
24.98
26.63
27.98
29.17
30.26
31.27
32.18
32.98
33.64
34.12
34.38
34.38
34.07
33.48
32.67
31.76
30.87
30.07
29.36
28.66
27.9
26.98
25.85
24.46
22.78
20.82
18.67
16.46
14.29
12.26
10.3
8.3
6.06
3.5
0.69
-2.2
-4.96
-7.51
-9.9
-12.34
-15.02
-18.09
-21.59
-25.46
-29.63
-33.93
-38.19
-42.1
-45.26
-47.27
-47.85
-46.95
-44.7
-41.46
-37.61
-33.46
-29.16
-24.73
-20.11
-15.24
-10.09
-4.73
0.72
6.1
11.21
15.84
19.83
23.12
25.76
27.92
29.76
31.42
32.96
34.33
35.46
36.28
36.76
36.95
36.94
36.81
36.62
36.37
36.02
35.49
34.69
33.55
32.05
30.22
28.14
25.94
23.79
21.83
20.17
18.8
17.62
16.46
15.18
13.68
11.96
10.05
8
5.8
3.43
0.89
-1.81
-4.6
-7.44
-10.28
-13.12
-16.01
-18.96
-22.02
-25.2
-28.55
-32.08
-35.7
-39.24
-42.39
-44.8
-46.17
-46.31
-45.21
-42.96
-39.76
-35.88
-31.6
-27.15
-22.69
-18.21
-13.65
-8.88
-3.86
1.3
6.38
11.11
15.27
18.78
21.72
24.17
26.19
27.79
28.97
29.74
30.2
30.46
30.66
30.92
31.25
31.59
31.83
31.83
31.54
30.95
30.16
29.23
28.25
27.24
26.15
24.93
23.56
22.07
20.54
19.05
17.64
16.3
14.97
13.61
12.19
10.68
9.1
7.46
5.77
3.97
1.98
-0.24
-2.73
-5.36
-7.97
-10.38
-12.5
-14.4
-16.29
-18.47
-21.14
-24.4
-28.09
-31.89
-35.39
-38.11
-39.68
-39.85
-38.59
-36.07
-32.64
-28.71
-24.67
-20.81
-17.27
-14.07
-11.13
-8.31
-5.47
-2.51
0.6
3.77
6.85
9.68
12.11
14.06
15.54
16.61
17.38
17.95
18.46
18.99
19.56
20.09
20.44
20.45
20.04
19.24
18.22
17.23
16.47
16.02
15.84
15.8
15.71
15.44
14.94
14.21
13.3
12.25
11.05
9.69
8.15
6.46
4.67
2.89
1.21
-0.38
-1.95
-3.62
-5.49
-7.53
-9.62
-11.62
-13.45
-15.17
-16.94
-18.96
-21.35
-24.12
-27.08
-29.95
-32.39
-34.07
-34.78
-34.39
-32.97
-30.71
-27.87
-24.75
-21.57
-18.45
-15.45
-12.56
-9.7
-6.77
-3.72
-0.53
2.7
5.8
8.59
10.93
12.79
14.19
15.23
15.98
16.5
16.84
17.03
17.12
17.13
17.06
16.91
16.7
16.43
16.14
15.78
15.31
14.66
13.82
12.85
11.89
11.06
10.41
9.94
9.54
9.09
8.46
7.59
6.47
5.15
3.76
2.42
1.21
0.14
-0.86
-1.92
-3.13
-4.55
-6.12
-7.76
-9.39
-10.96
-12.52
-14.15
-15.96
-18.02
-20.34
-22.89
-25.51
-28.05
-30.29
-32
-32.97
-33.03
-32.13
-30.39
-28.09
-25.56
-23.11
-20.84
-18.71
-16.54
-14.2
-11.71
-9.15
-6.65
-4.26
-1.93
0.47
3.01
5.64
8.22
10.56
12.51
14.02
15.11
15.82
16.25
16.39
16.29
16.01
15.64
15.29
15.05
14.95
14.91
14.84
14.6
14.18
13.63
13.05
12.53
12.1
11.7
11.22
10.57
9.71
8.62
7.27
5.64
3.72
1.58
-0.64
-2.75
-4.58
-6.09
-7.38
-8.64
-10.07
-11.74
-13.64
-15.67
-17.8
-20.04
-22.48
-25.15
-27.91
-30.46
-32.36
-33.23
-32.84
-31.21
-28.63
-25.48
-22.16
-18.97
-16.01
-13.26
-10.6
-7.93
-5.22
-2.51
0.07
2.46
4.6
6.47
8.11
9.59
10.94
12.21
13.4
14.43
15.23
15.68
15.78
15.61
15.35
15.18
15.22
15.48
15.87
16.29
16.66
16.88
16.87
16.55
15.88
14.91
13.75
12.6
11.64
10.93
10.39
9.85
9.14
8.13
6.8
5.23
3.51
1.73
-0.05
-1.83
-3.57
-5.26
-6.94
-8.69
-10.64
-12.89
-15.48
-18.35
-21.39
-24.44
-27.39
-30.07
-32.35
-34
-34.87
-34.81
-33.83
-32.04
-29.6
-26.71
-23.53
-20.23
-16.97
-13.92
-11.17
-8.74
-6.53
-4.39
-2.17
0.19
2.67
5.22
7.69
9.96
11.9
13.47
14.7
15.68
16.52
17.29
17.95
18.42
18.63
18.6
18.4
18.16
17.92
17.67
17.34
16.83
16.15
15.32
14.39
13.4
12.37
11.3
10.24
9.19
8.17
7.09
5.85
4.34
2.52
0.5
-1.57
-3.5
-5.19
-6.68
-8.14
-9.77
-11.78
-14.24
-17.12
-20.29
-23.6
-26.85
-29.82
-32.26
-33.92
-34.59
-34.18
-32.76
-30.54
-27.79
-24.82
-21.83
-18.95
-16.2
-13.59
-11.1
-8.73
-6.47
-4.28
-2.11
0.09
2.32
4.58
6.77
8.82
10.71
12.39
13.86
15.09
16.04
16.69
17.1
17.34
17.52
17.71
17.89
18.01
17.96
17.68
17.13
16.33
15.28
14
12.53
10.97
9.47
8.15
7.06
6.12
5.15
3.9
2.24
0.12
-2.3
-4.81
-7.23
-9.47
-11.61
-13.83
-16.33
-19.24
-22.6
-26.31
-30.16
-33.83
-36.98
-39.26
-40.45
-40.45
-39.37
-37.4
-34.76
-31.58
-27.91
-23.8
-19.3
-14.57
-9.82
-5.28
-1.05
2.86
6.51
9.93
13.08
15.81
18
19.58
20.65
21.46
22.34
23.53
25.11
26.94
28.69
30.02
30.65
30.52
29.75
28.57
27.2
25.8
24.41
23.01
21.54
19.95
18.24
16.46
14.66
12.85
11.05
9.2
7.23
5.1
2.83
0.47
-1.92
-4.3
-6.73
-9.26
-11.97
-14.89
-18.02
-21.33
-24.82
-28.44
-32.09
-35.59
-38.68
-41.05
-42.37
-42.45
-41.2
-38.7
-35.2
-31.02
-26.53
-21.99
-17.49
-13.04
-8.54
-3.93
0.73
5.33
9.69
13.65
17.13
20.11
22.63
24.76
26.59
28.13
29.41
30.43
31.16
31.61
31.76
31.62
31.23
30.64
29.93
29.2
28.5
27.82
27.14
26.4
25.52
24.45
23.17
21.68
20.03
18.29
16.52
14.76
13.02
11.24
9.33
7.22
4.88
2.37
-0.2
-2.73
-5.19
-7.68
-10.37
-13.48
-17.16
-21.43
-26.16
-31.09
-35.94
-40.34
-43.92
-46.33
-47.29
-46.67
-44.62
-41.48
-37.71
-33.71
-29.68
-25.61
-21.38
-16.86
-12.03
-7.05
-2.14
2.44
6.57
10.22
13.5
16.5
19.25
21.73
23.81
25.41
26.53
27.3
27.91
28.54
29.28
30.13
30.98
31.69
32.13
32.13
31.58
30.36
28.45
25.99
23.21
20.41
17.77
15.32
12.9
10.32
7.46
4.35
1.14
-2.06
-5.17
-8.28
-11.52
-14.96
-18.64
-22.58
-26.78
-31.27
-36
-40.78
-45.22
-48.76
-50.9
-51.26
-49.82
-46.79
-42.58
-37.6
-32.15
-26.41
-20.48
-14.4
-8.28
-2.27
3.48
8.86
13.78
18.22
22.18
25.63
28.57
30.97
32.87
34.35
35.53
36.54
37.5
38.44
39.32
40.05
40.51
40.59
40.24
39.48
38.41
37.18
35.88
34.58
33.24
31.79
30.13
28.21
26.06
23.74
21.36
19.01
16.7
14.36
11.85
9.01
5.78
2.22
-1.51
-5.23
-8.8
-12.24
-15.64
-19.17
-22.96
-27.07
-31.5
-36.19
-40.99
-45.62
-49.72
-52.86
-54.71
-55.07
-53.95
-51.55
-48.15
-43.98
-39.2
-33.88
-28.01
-21.58
-14.68
-7.48
-0.24
6.71
13.08
18.68
23.43
27.41
30.73
33.49
35.77
37.57
38.94
39.97
40.77
41.45
42.07
42.62
43.03
43.23
43.16
42.79
42.07
41
39.62
38.02
36.41
34.95
33.79
32.89
32.06
31.04
29.58
27.55
25.01
22.15
19.22
16.48
14.05
11.97
10.11
8.26
6.17
3.63
0.55
-3.02
-6.92
-10.96
-14.97
-18.85
-22.65
-26.48
-30.48
-34.75
-39.31
-43.97
-48.44
-52.32
-55.21
-56.82
-56.97
-55.66
-53.03
-49.36
-44.96
-40.1
-34.99
-29.65
-23.96
-17.81
-11.16
-4.16
2.83
9.38
15.14
19.92
23.72
26.67
28.92
30.59
31.81
32.74
33.55
34.4
35.4
36.53
37.62
38.46
38.87
38.71
38.03
36.93
35.62
34.24
32.91
31.61
30.27
28.78
27.12
25.32
23.49
21.71
19.99
18.21
16.26
14.04
11.63
9.18
6.83
4.67
2.62
0.53
-1.75
-4.29
-7.05
-9.93
-12.82
-15.66
-18.47
-21.3
-24.22
-27.36
-30.85
-34.8
-39.23
-43.98
-48.71
-52.88
-55.93
-57.41
-57.14
-55.24
-52.06
-48.07
-43.72
-39.36
-35.13
-31
-26.73
-22.05
-16.67
-10.54
-3.82
3.01
9.34
14.61
18.45
20.83
22.02
22.42
22.47
22.44
22.47
22.51
22.44
22.15
21.52
20.56
19.32
17.97
16.68
15.65
14.94
14.52
14.31
14.3
14.71
16.14
19.54
25.93
36.16
50.4
67.94
87.25
106.25
123.01
136.15
145.22
150.61
153.22
154.18
154.55
155.21
156.88
159.98
164.59
170.36
176.53
182.09
186.01
187.37
185.49
179.89
170.29
156.69
139.44
119.33
97.58
75.55
54.47
35.08
17.51
1.3
-14.34
-30.19
-46.82
-64.49
-83.28
-103.16
-124.09
-145.9
-168.35
-191.11
-213.96
-236.89
-259.94
-282.77
-304.23
-322.15
-333.8
-336.76
-329.9
-313.9
-291.03
-264.33
-236.53
-209.28
-183.07
-157.65
-132.62
-107.95
-83.99
-61.34
-40.49
-21.62
-4.64
10.7
24.58
36.97
47.67
56.41
63.01
67.52
70.2
71.46
71.7
71.2
70.02
68.03
65.07
61.04
56.08
50.54
44.88
39.5
34.53
29.78
24.88
19.37
13.01
5.86
-1.74
-9.25
-16.18
-22.14
-26.98
-30.6
-33.02
-34.22
-34.19
-33.04
-30.97
-28.27
-25.27
-22.21
-19.19
-16.15
-12.92
-9.37
-5.49
-1.43
2.58
6.31
9.64
12.53
15.02
17.12
18.84
20.24
21.41
22.55
23.84
25.34
26.94
28.36
29.3
29.64
29.42
28.89
28.28
27.71
27.11
26.29
25.08
23.47
21.63
19.84
18.28
17.03
15.91
14.66
13.05
10.98
8.56
5.99
3.46
1.1
-1.13
-3.34
-5.69
-8.29
-11.18
-14.37
-17.8
-21.36
-24.84
-27.97
-30.42
-32
-32.59
-32.32
-31.4
-30.07
-28.46
-26.57
-24.3
-21.56
-18.38
-14.89
-11.31
-7.88
-4.71
-1.8
0.93
3.58
6.23
8.86
11.39
13.77
15.98
18.05
20.04
21.98
23.83
25.43
26.6
27.17
27.16
26.75
26.2
25.76
25.53
25.43
25.25
24.79
23.95
22.78
21.37
19.88
18.36
16.81
15.19
13.49
11.73
9.95
8.17
6.3
4.2
1.75
-1.07
-4.1
-7.08
-9.79
-12.16
-14.35
-16.67
-19.49
-23.02
-27.2
-31.74
-36.1
-39.74
-42.2
-43.27
-42.97
-41.54
-39.26
-36.46
-33.35
-30.08
-26.71
-23.24
-19.67
-15.95
-12.11
-8.16
-4.2
-0.32
3.33
6.68
9.68
12.27
14.41
16.09
17.36
18.33
19.19
20.05
20.97
21.87
22.61
23.09
23.26
23.19
22.98
22.76
22.59
22.45
22.3
22.06
21.7
21.17
20.44
19.54
18.5
17.39
16.27
15.15
13.99
12.72
11.3
9.68
7.93
6.07
4.08
1.88
-0.65
-3.56
-6.79
-10.22
-13.75
-17.39
-21.28
-25.58
-30.24
-34.96
-39.17
-42.23
-43.7
-43.47
-41.8
-39.14
-35.94
-32.53
-29.04
-25.44
-21.66
-17.61
-13.23
-8.56
-3.68
1.19
5.81
9.89
13.22
15.73
17.49
18.72
19.72
20.77
22.06
23.6
25.25
26.76
27.88
28.47
28.55
28.24
27.75
27.25
26.81
26.39
25.9
25.23
24.31
23.16
21.78
20.2
18.41
16.42
14.25
12
9.8
7.73
5.76
3.71
1.39
-1.3
-4.29
-7.39
-10.33
-12.95
-15.32
-17.67
-20.33
-23.53
-27.31
-31.5
-35.66
-39.29
-41.89
-43.12
-42.85
-41.22
-38.53
-35.19
-31.54
-27.8
-24.05
-20.29
-16.46
-12.51
-8.43
-4.23
0.06
4.32
8.41
12.13
15.29
17.79
19.63
20.9
21.77
22.4
22.9
23.32
23.65
23.87
23.98
23.96
23.83
23.56
23.15
22.58
21.88
21.03
20
18.65
16.86
14.54
11.75
8.69
5.62
2.73
0.07
-2.49
-5.19
-8.17
-11.41
-14.73
-17.9
-20.77
-23.42
-26.14
-29.28
-33.15
-37.77
-42.91
-48.1
-52.75
-56.31
-58.38
-58.79
-57.63
-55.2
-51.85
-47.84
-43.17
-37.59
-30.72
-22.25
-12.21
-1.08
10.34
21.09
30.34
37.6
42.77
46.06
47.91
48.81
49.19
49.42
49.64
49.87
49.94
49.66
48.83
47.4
45.44
43.09
40.53
37.9
35.32
32.88
30.62
28.56
26.65
24.78
22.78
20.59
18.23
15.79
13.4
11.13
8.87
6.41
3.6
0.34
-3.26
-6.99
-10.67
-14.17
-17.52
-20.82
-24.19
-27.76
-31.57
-35.7
-40.14
-44.84
-49.51
-53.7
-56.79
-58.25
-57.85
-55.75
-52.45
-48.54
-44.47
-40.29
-35.75
-30.36
-23.65
-15.36
-5.5
5.64
17.41
28.96
39.38
47.86
53.94
57.66
59.49
60.1
60.14
59.91
59.41
58.39
56.58
53.85
50.26
46.01
41.33
36.43
31.5
26.68
22.11
17.91
14.19
10.97
8.24
5.89
3.82
1.9
-0.02
-2.02
-4.16
-6.45
-8.82
-11.2
-13.52
-15.72
-17.84
-19.99
-22.3
-24.89
-27.77
-30.87
-33.98
-36.83
-39.13
-40.67
-41.31
-41
-39.77
-37.68
-34.82
-31.37
-27.52
-23.52
-19.61
-16
-12.73
-9.77
-6.98
-4.2
-1.34
1.57
4.3
6.56
8.12
8.84
8.79
8.18
7.23
6.05
4.62
2.84
0.6
-2.1
-5.11
-8.17
-10.99
-13.3
-14.9
-15.63
-15.37
-13.89
-10.96
-6.41
-0.36
6.71
13.95
20.49
25.77
29.8
33.1
36.3
39.68
42.92
45.34
46.31
45.6
43.49
40.41
36.53
31.56
24.85
15.83
4.35
-9.17
-23.94
-39.1
-53.87
-67.67
-79.88
-89.86
-96.92
-100.39
-99.81
-94.84
-85.25
-70.89
-51.78
-28.36
-1.63
26.94
55.63
82.55
105.46
121.64
128.12
122.56
104.78
77.62
46.81
19.2
0.16
-8.59
-9.45
-7.41
-7.17
-10.57
-15.89
-19.21
-16.89
-7.7
6.74
23.05
37.83
49.32
57.64
64.27
70.75
77.52
83.25
85.03
79.39
63.96
38.96
7.99
-22.57
-45.37
-54.54
-47.74
-26.62
4.07
38.25
70.13
94.74
107.85
105.74
85.72
47.23
-6.91
-70.34
-134.27
-189.42
-228.5
-247.83
-248.04
-233.45
-210.31
-184.54
-159.99
-137.41
-114.92
-89.64
-59.7
-25.63
9.63
42.3
69.6
91.11
108.65
125.02
142.21
160.52
178.64
194.59
206.78
214.44
217.56
216.53
211.95
204.75
196.3
187.97
180.47
173.3
164.81
153.02
136.68
115.95
92.08
66.58
40.37
13.57
-13.83
-40.97
-65.56
-84.49
-95.24
-97.4
-93.18
-86.59
-81.81
-81.47
-85.92
-93.49
-101.71
-108.64
-113.74
-117.75
-121.68
-125.54
-127.56
-124.45
-112.73
-90.47
-58.66
-21.28
15.88
47.14
68.63
78.9
78.49
68.87
51.67
28.63
2.07
-24.96
-49
-67.24
-78.41
-83.18
-83.68
-82.37
-80.99
-80.19
-79.67
-78.99
-78.16
-77.86
-78.99
-82.07
-86.7
-91.7
-95.7
-97.96
-98.87
-99.82
-102.35
-107.1
-113.2
-118.49
-120.34
-116.89
-107.78
-94.22
-78.39
-62.61
-48.58
-37.24
-28.67
-22.35
-17.12
-11.47
-3.81
6.92
20.71
36.36
52.11
66.64
80.18
94.82
113.88
140.17
174.07
212.34
248.36
273.87
281.63
267.81
233.34
183.66
127.07
72.38
26.73
-5.85
-24.75
-32.3
-32.57
-30.26
-29.52
-33.27
-42.81
-57.87
-76.99
-98.14
-119.31
-138.76
-155.28
-168.11
-176.84
-181.38
-181.87
-178.77
-172.75
-164.46
-154.36
-142.46
-128.42
-111.69
-92
-69.55
-45.27
-20.51
3.31
25.24
45.06
63.18
80.13
95.87
109.3
118.26
120.11
112.75
95.44
69.24
36.78
1.59
-32.66
-62.81
-86.55
-102.53
-110.33
-110.45
-104.14
-93.19
-79.56
-65.13
-51.35
-39.24
-29.38
-21.98
-16.96
-13.98
-12.5
-11.95
-11.85
-11.97
-12.37
-13.29
-14.91
-17.21
-19.94
-22.8
-25.58
-28.33
-31.28
-34.64
-38.3
-41.81
-44.49
-45.66
-45.01
-42.64
-38.98
-34.58
-29.78
-24.68
-19.16
-13.08
-6.41
0.7
7.91
14.87
21.27
26.93
31.82
35.94
39.4
42.24
44.51
46.29
47.68
48.87
50.01
51.23
52.52
53.76
54.77
55.37
55.46
55.05
54.22
53.09
51.79
50.43
49.12
47.9
46.74
45.55
44.15
42.4
40.23
37.65
34.79
31.78
28.69
25.51
22.24
18.85
15.39
11.9
8.32
4.51
0.2
-4.83
-10.65
-17.02
-23.39
-29.03
-33.26
-35.66
-36.19
-35.15
-32.96
-29.99
-26.43
-22.27
-17.41
-11.79
-5.47
1.41
8.56
15.66
22.27
27.98
32.49
35.66
37.65
38.77
39.43
40.01
40.73
41.68
42.87
44.22
45.58
46.75
47.49
47.66
47.22
46.29
45.06
43.72
42.4
41.08
39.7
38.18
36.43
34.43
32.23
29.91
27.59
25.42
23.45
21.65
19.91
18.08
16.01
13.68
11.11
8.35
5.46
2.44
-0.69
-3.88
-7.12
-10.39
-13.71
-17.17
-20.85
-24.7
-28.5
-31.86
-34.32
-35.48
-35.14
-33.38
-30.47
-26.75
-22.48
-17.79
-12.7
-7.23
-1.45
4.43
10.13
15.4
20.09
24.16
27.62
30.47
32.74
34.42
35.59
36.37
36.9
37.31
37.64
37.87
37.91
37.69
37.2
36.47
35.61
34.66
33.68
32.63
31.45
30.06
28.43
26.58
24.59
22.57
20.65
18.96
17.52
16.3
15.18
14
12.6
10.93
9.06
7.2
5.61
4.51
3.96
3.86
3.98
4.08
4.06
4.09
4.58
6.08
9.14
14.09
20.98
29.64
39.82
51.32
64.12
78.27
93.77
110.4
127.71
145.13
162.07
177.96
192.11
203.51
210.85
212.69
207.83
195.7
176.54
151.26
121.22
87.94
52.98
18.07
-14.98
-44.46
-69.08
-88.38
-102.82
-113.52
-121.83
-128.74
-134.72
-139.73
-143.5
-145.89
-147.03
-147.25
-146.92
-146.24
-145.11
-143.22
-140.12
-135.55
-129.45
-122.15
-114.23
-106.36
-99.21
-93.24
-88.8
-86.06
-85.17
-86.09
-88.53
-91.89
-95.26
-97.61
-98.11
-96.37
-92.54
-87.21
-81.09
-74.71
-68.36
-62.05
-55.63
-49.04
-42.31
-35.58
-29.03
-22.77
-16.79
-10.99
-5.25
0.43
5.98
11.23
16
20.18
23.74
26.71
29.17
31.19
32.85
34.18
35.24
36.02
36.55
36.81
36.84
36.65
36.25
35.63
34.74
33.51
31.92
29.98
27.78
25.44
23.03
20.61
18.22
15.9
13.67
11.54
9.46
7.37
5.22
2.93
0.45
-2.28
-5.34
-8.73
-12.35
-15.98
-19.28
-21.9
-23.61
-24.31
-24.09
-23.1
-21.49
-19.38
-16.84
-13.92
-10.66
-7.14
-3.39
0.54
4.62
8.77
12.89
16.79
20.32
23.32
25.75
27.65
29.17
30.47
31.64
32.72
33.62
34.23
34.49
34.39
34.02
33.47
32.79
32
31.01
29.74
28.12
26.17
24.01
21.76
19.54
17.44
15.43
13.47
11.51
9.52
7.51
5.51
3.52
1.52
-0.49
-2.53
-4.57
-6.6
-8.7
-11.04
-13.83
-17.21
-21.08
-25.1
-28.73
-31.43
-32.82
-32.84
-31.66
-29.64
-27.11
-24.3
-21.3
-18.09
-14.69
-11.15
-7.56
-4
-0.53
2.87
6.22
9.48
12.57
15.33
17.63
19.42
20.74
21.75
22.63
23.47
24.33
25.15
25.87
26.38
26.59
26.41
25.81
24.84
23.64
22.39
21.26
20.31
19.51
18.71
17.77
16.55
15.04
13.29
11.38
9.42
7.44
5.48
3.55
1.65
-0.24
-2.15
-4.15
-6.29
-8.6
-11.09
-13.74
-16.52
-19.36
-22.19
-24.88
-27.26
-29.11
-30.19
-30.34
-29.46
-27.59
-24.86
-21.5
-17.81
-14.08
-10.55
-7.31
-4.39
-1.7
0.87
3.37
5.79
8.1
10.25
12.25
14.14
15.96
17.71
19.31
20.65
21.63
22.19
22.37
22.27
22.01
21.73
21.48
21.26
20.98
20.51
19.75
18.67
17.35
15.9
14.44
13.03
11.64
10.2
8.7
7.15
5.63
4.17
2.73
1.21
-0.47
-2.32
-4.27
-6.26
-8.27
-10.45
-12.95
-15.87
-19.12
-22.37
-25.18
-27.15
-28.03
-27.79
-26.58
-24.64
-22.22
-19.61
-17.04
-14.68
-12.56
-10.59
-8.62
-6.44
-3.92
-1.06
2.01
5.09
7.97
10.49
12.54
14.15
15.38
16.33
17.12
17.81
18.43
18.94
19.29
19.36
19.04
18.26
16.99
15.28
13.29
11.24
9.29
7.56
6.02
4.54
2.95
1.12
-1.01
-3.42
-5.96
-8.47
-10.83
-12.98
-15
-17.04
-19.27
-21.74
-24.37
-26.94
-29.19
-30.85
-31.79
-31.91
-31.2
-29.66
-27.34
-24.37
-20.89
-17.12
-13.19
-9.18
-5.05
-0.75
3.78
8.52
13.36
18.18
22.78
26.99
30.68
33.75
36.23
38.24
40.02
41.82
43.89
46.41
49.45
53.01
57
61.24
65.47
69.38
72.75
75.54
77.85
79.74
80.98
80.94
78.82
74.1
66.97
58.54
50.54
44.55
41.38
40.61
40.88
40.48
38.11
33.37
26.78
19.44
12.58
7.29
4.35
4.3
7.4
13.51
21.83
30.8
38.32
42.38
41.92
37.31
30.38
23.69
19.53
19.13
22.4
28.31
35.59
43.22
50.54
57.01
61.97
64.55
64.08
60.52
54.71
48.15
42.3
37.82
34.14
29.66
22.33
10.68
-5.59
-25.49
-47.2
-68.73
-88.63
-106.09
-120.83
-132.71
-141.48
-146.86
-148.85
-148.05
-145.72
-143.48
-142.79
-144.37
-147.99
-152.61
-156.81
-159.4
-159.84
-158.27
-155.29
-151.59
-147.56
-143.14
-137.99
-131.73
-124.18
-115.53
-106.22
-96.7
-87.2
-77.73
-68.14
-58.35
-48.46
-38.79
-29.67
-21.35
-13.83
-6.98
-0.62
5.32
10.87
15.92
20.44
24.41
27.88
30.9
33.52
35.77
37.68
39.27
40.56
41.54
42.13
42.24
41.83
40.93
39.68
38.24
36.74
35.2
33.55
31.67
29.54
27.18
24.73
22.26
19.83
17.44
15.07
12.7
10.31
7.85
5.24
2.41
-0.62
-3.71
-6.63
-9.13
-11.02
-12.19
-12.63
-12.34
-11.37
-9.8
-7.79
-5.51
-3.16
-0.88
1.28
3.33
5.3
7.2
9.04
10.81
12.5
14.1
15.56
16.84
17.85
18.59
19.09
19.42
19.62
19.71
19.65
19.41
19
18.49
17.96
17.43
16.95
16.44
15.83
14.98
13.76
12.12
10.08
7.78
5.44
3.2
1.09
-0.95
-3.12
-5.6
-8.5
-11.8
-15.39
-19.05
-22.51
-25.45
-27.55
-28.59
-28.5
-27.4
-25.55
-23.24
-20.72
-18.1
-15.35
-12.36
-9.06
-5.43
-1.61
2.21
5.78
8.99
11.83
14.36
16.68
18.78
20.6
22.05
23.15
23.98
24.74
25.52
26.34
27.06
27.51
27.57
27.22
26.53
25.6
24.52
23.35
22.16
21.01
19.9
18.79
17.54
16
14.06
11.7
9.07
6.34
3.7
1.21
-1.15
-3.45
-5.83
-8.39
-11.23
-14.47
-18.11
-22
-25.86
-29.24
-31.76
-33.12
-33.24
-32.21
-30.24
-27.56
-24.36
-20.77
-16.91
-12.9
-8.86
-4.89
-1.06
2.61
6.15
9.56
12.84
15.92
18.65
20.89
22.52
23.57
24.09
24.23
24.16
23.97
23.76
23.55
23.34
23.05
22.63
22.02
21.2
20.24
19.21
18.16
17.09
15.94
14.67
13.27
11.76
10.15
8.35
6.31
3.96
1.37
-1.32
-3.97
-6.53
-9.07
-11.77
-14.79
-18.13
-21.64
-25.01
-27.9
-29.99
-31.08
-31.11
-30.13
-28.29
-25.81
-22.9
-19.73
-16.43
-13.05
-9.63
-6.22
-2.88
0.3
3.26
5.92
8.28
10.37
12.21
13.84
15.24
16.39
17.21
17.69
17.88
17.84
17.65
17.32
16.82
16.06
14.99
13.62
12.11
10.61
9.28
8.13
6.97
5.56
3.69
1.33
-1.37
-4.16
-6.87
-9.46
-12.04
-14.81
-17.87
-21.21
-24.72
-28.24
-31.65
-34.84
-37.63
-39.78
-40.95
-40.84
-39.31
-36.4
-32.36
-27.46
-21.88
-15.64
-8.63
-0.68
8.25
18.08
28.53
39.3
50.13
60.89
71.53
81.95
91.92
101.06
108.92
115.19
119.84
123.18
125.72
128.01
130.51
133.48
137.11
141.58
147.08
153.78
161.7
170.64
180.14
189.5
197.92
204.67
209.14
211.05
210.33
207.1
201.47
193.43
182.79
169.34
153.11
134.57
114.61
94.29
74.43
55.39
37.07
19.23
1.79
-15.01
-30.87
-45.79
-60.24
-74.95
-90.48
-106.81
-123.27
-139.03
-153.63
-167.34
-180.86
-194.68
-208.5
-221.19
-231.35
-238.18
-242.16
-244.98
-248.82
-255.23
-264.33
-274.61
-283.54
-288.56
-287.99
-281.47
-269.79
-254.25
-236.12
-216.22
-195.02
-172.92
-150.54
-128.77
-108.59
-90.7
-75.26
-61.87
-49.84
-38.48
-27.47
-16.95
-7.39
0.6
6.68
10.94
13.88
16.22
18.58
21.2
23.9
26.22
27.67
27.99
27.2
25.55
23.31
20.68
17.73
14.49
11.09
7.75
4.82
2.58
1.23
0.8
1.22
2.31
3.87
5.75
7.8
9.9
11.97
14
16.03
18.09
20.2
22.32
24.34
26.16
27.71
28.91
29.76
30.31
30.67
31
31.46
32.15
33.02
33.9
34.53
34.7
34.33
33.49
32.38
31.21
30.07
28.89
27.51
25.73
23.49
20.86
18.04
15.23
12.58
10.11
7.76
5.4
2.92
0.19
-2.91
-6.46
-10.42
-14.58
-18.52
-21.78
-24.02
-25.06
-25.05
-24.27
-23.03
-21.48
-19.65
-17.45
-14.78
-11.62
-8.05
-4.19
-0.16
3.91
7.91
11.72
15.18
18.13
20.46
22.18
23.4
24.33
25.21
26.22
27.42
28.71
29.89
30.78
31.27
31.34
31.13
30.77
30.37
29.93
29.38
28.59
27.46
26
24.32
22.55
20.79
19.03
17.2
15.17
12.89
10.36
7.69
4.97
2.25
-0.47
-3.28
-6.29
-9.57
-13.12
-16.89
-20.73
-24.46
-27.88
-30.76
-32.93
-34.19
-34.45
-33.65
-31.88
-29.31
-26.23
-22.91
-19.57
-16.27
-12.93
-9.45
-5.76
-1.91
1.92
5.5
8.67
11.43
13.84
16.03
18.02
19.77
21.16
22.14
22.79
23.34
24.03
24.95
26
26.88
27.27
27.02
26.18
24.95
23.6
22.3
21.06
19.86
18.68
17.48
16.26
14.96
13.45
11.61
9.36
6.78
4
1.18
-1.65
-4.54
-7.6
-10.93
-14.58
-18.49
-22.59
-26.76
-30.83
-34.58
-37.71
-39.93
-40.98
-40.75
-39.26
-36.65
-33.15
-29
-24.42
-19.59
-14.62
-9.53
-4.26
1.24
6.92
12.6
17.95
22.6
26.29
28.99
30.87
32.24
33.35
34.35
35.16
35.65
35.7
35.36
34.79
34.19
33.68
33.23
32.69
31.95
31.01
30
29.13
28.51
28.11
27.73
27.12
26.17
24.93
23.66
22.66
22.18
22.31
22.97
23.95
24.9
25.38
24.92
23.16
19.97
15.56
10.51
5.58
1.45
-1.51
-3.29
-4.24
-4.83
-5.36
-5.94
-6.41
-6.55
-6.16
-5.26
-3.96
-2.46
-0.88
0.78
2.55
4.43
6.36
8.16
9.68
10.87
11.82
12.69
13.58
14.47
15.21
15.54
15.32
14.53
13.32
11.91
10.49
9.15
7.93
6.8
5.73
4.65
3.47
2.1
0.44
-1.52
-3.76
-6.18
-8.63
-11.03
-13.35
-15.69
-18.2
-21.05
-24.31
-27.94
-31.71
-35.32
-38.45
-40.86
-42.43
-43.16
-43.11
-42.32
-40.88
-38.93
-36.65
-34.27
-31.93
-29.65
-27.32
-24.79
-22
-19.07
-16.23
-13.73
-11.7
-10.1
-8.8
-7.65
-6.6
-5.67
-4.88
-4.18
-3.42
-2.44
-1.16
0.35
1.9
3.3
4.48
5.57
6.85
8.63
11.1
14.21
17.64
20.9
23.53
25.23
25.96
25.9
25.36
24.6
23.71
22.57
20.94
18.57
15.31
11.18
6.3
0.87
-4.92
-10.87
-16.76
-22.28
-27.04
-30.67
-32.88
-33.62
-33.07
-31.58
-29.54
-27.21
-24.74
-22.16
-19.48
-16.72
-13.87
-10.91
-7.79
-4.48
-1.03
2.38
5.45
7.95
9.77
11.02
11.91
12.68
13.45
14.23
14.99
15.69
16.34
16.98
17.6
18.15
18.55
18.75
18.77
18.7
18.57
18.41
18.16
17.72
17.04
16.15
15.2
14.32
13.58
12.88
12.02
10.75
8.88
6.37
3.28
-0.26
-4.16
-8.32
-12.67
-17.02
-21.07
-24.45
-26.83
-28.01
-27.99
-26.93
-25.09
-22.72
-20.06
-17.29
-14.58
-12.04
-9.77
-7.8
-6.06
-4.44
-2.76
-0.89
1.18
3.39
5.6
7.68
9.56
11.24
12.74
14.09
15.25
16.22
16.97
17.56
18.01
18.33
18.46
18.34
17.93
17.26
16.4
15.44
14.4
13.23
11.89
10.41
8.84
7.32
5.92
4.65
3.45
2.17
0.72
-0.95
-2.86
-4.99
-7.39
-10.09
-13.1
-16.3
-19.41
-22.07
-23.92
-24.74
-24.52
-23.44
-21.78
-19.75
-17.48
-15.01
-12.3
-9.4
-6.38
-3.33
-0.32
2.63
5.49
8.22
10.71
12.83
14.46
15.55
16.18
16.42
16.44
16.32
16.16
15.99
15.84
15.72
15.63
15.53
15.37
15.07
14.59
13.9
13.04
12.04
10.95
9.78
8.51
7.12
5.61
4.02
2.39
0.79
-0.73
-2.14
-3.53
-5
-6.72
-8.88
-11.55
-14.71
-18.13
-21.48
-24.3
-26.15
-26.74
-25.98
-24.06
-21.32
-18.2
-15.07
-12.16
-9.51
-7.06
-4.7
-2.4
-0.16
1.95
3.89
5.64
7.21
8.62
9.89
11.01
11.93
12.58
12.91
12.93
12.72
12.46
12.31
12.37
12.59
12.76
12.62
11.95
10.7
9.01
7.14
5.32
3.69
2.25
0.86
-0.6
-2.23
-4.05
-6.05
-8.28
-10.83
-13.74
-16.92
-20.05
-22.66
-24.27
-24.53
-23.41
-21.14
-18.13
-14.74
-11.26
-7.81
-4.43
-1.19
1.84
4.59
7
9.14
11.11
13.03
14.97
16.9
18.76
20.51
22.24
24.09
26.2
28.59
31.12
33.54
35.65
37.36
38.73
39.94
41.15
42.45
43.91
45.6
47.64
50.18
53.31
57.06
61.36
66.18
71.55
77.53
84.14
91.23
98.46
105.44
111.93
118.04
124.19
131.03
139.09
148.57
159.15
169.86
179.26
185.65
187.51
183.91
174.81
161.06
144.15
125.75
107.25
89.45
72.49
56
39.4
22.06
3.56
-16.28
-37.36
-59.31
-81.54
-103.33
-123.89
-142.48
-158.39
-171.07
-180.22
-185.92
-188.67
-189.27
-188.6
-187.32
-185.69
-183.57
-180.52
-176.09
-170.05
-162.46
-153.73
-144.43
-135.09
-126
-117.18
-108.41
-99.46
-90.23
-80.94
-72.03
-64.01
-57.24
-51.81
-47.51
-43.94
-40.7
-37.39
-33.72
-29.37
-24.14
-17.94
-10.97
-3.71
3.16
8.91
13.02
15.35
16.18
16.06
15.59
15.18
14.93
14.66
14.11
13.1
11.65
9.97
8.33
6.89
5.71
4.73
3.88
3.08
2.29
1.44
0.45
-0.78
-2.29
-4.04
-5.91
-7.72
-9.3
-10.54
-11.41
-11.98
-12.35
-12.69
-13.14
-13.8
-14.61
-15.43
-16.07
-16.37
-16.31
-16.05
-15.81
-15.87
-16.42
-17.46
-18.86
-20.3
-21.37
-21.6
-20.59
-18.07
-14.01
-8.71
-2.72
3.28
8.73
13.25
16.83
19.58
21.7
23.29
24.35
24.85
24.84
24.49
24.03
23.56
23.07
22.37
21.33
19.94
18.37
16.86
15.54
14.3
12.83
10.82
8.16
5.07
1.97
-0.71
-2.78
-4.29
-5.53
-6.77
-8.15
-9.63
-11.07
-12.36
-13.45
-14.38
-15.14
-15.68
-15.94
-15.91
-15.74
-15.65
-15.95
-16.89
-18.54
-20.72
-22.98
-24.73
-25.35
-24.41
-21.8
-17.75
-12.81
-7.62
-2.73
1.55
5.19
8.37
11.32
14.23
17.09
19.74
21.93
23.5
24.38
24.72
24.7
24.51
24.23
23.88
23.44
22.9
22.35
21.91
21.68
21.7
21.88
22.08
22.14
22.01
21.78
21.68
21.93
22.59
23.44
24.09
24.15
23.5
22.47
21.71
21.88
23.29
25.77
28.79
31.72
34.11
35.73
36.43
35.98
34.21
31.08
27.06
23.09
20.43
20.24
23.21
29.34
37.97
47.89
57.62
65.66
70.79
72.37
70.54
66.13
60.43
54.71
49.86
46.05
42.63
38.28
31.28
20.05
3.79
-16.88
-39.85
-62.06
-80.57
-93.78
-102
-107.28
-112.48
-120.13
-131.52
-146.49
-163.75
-181.43
-197.71
-211.17
-221.01
-227.1
-229.95
-230.41
-229.48
-227.94
-226.17
-224.18
-221.85
-219.03
-215.62
-211.51
-206.53
-200.4
-192.82
-183.64
-172.98
-161.26
-149.12
-137.16
-125.78
-114.96
-104.26
-92.92
-80.26
-65.94
-50.2
-33.83
-17.79
-2.75
11.25
24.89
39.12
54.54
70.93
87.2
101.78
113.41
121.75
127.49
132.03
136.81
142.78
150.07
158.02
165.38
170.34
170.82
164.77
150.76
128.74
100.43
69.17
39.04
13.59
-5.24
-17.57
-25.22
-30.79
-36.62
-44.08
-53.35
-63.57
-73.27
-80.86
-84.94
-84.59
-79.5
-69.95
-56.7
-40.87
-23.74
-6.6
9.48
23.9
36.66
48.36
59.86
71.8
84.19
96.24
106.67
114.29
118.59
120.01
119.79
119.5
120.33
122.67
125.9
128.58
128.79
124.56
114.27
97.02
72.95
43.33
10.44
-22.86
-53.75
-80.15
-101.15
-116.96
-128.58
-137.13
-143.35
-147.43
-149.3
-149.05
-147.28
-145.04
-143.33
-142.41
-141.49
-138.78
-132.17
-120.16
-102.59
-80.75
-56.9
-33.23
-11.05
9.47
29.05
48.49
68.18
87.9
107.12
125.17
141.4
154.99
164.83
169.84
169.43
164.08
155.38
145.5
136.34
128.74
122.43
116.59
110.54
104.12
97.57
91.02
84.23
76.72
68.32
59.52
51.51
45.62
42.53
41.79
41.92
40.96
37.39
30.72
21.6
11.38
1.46
-7.41
-15.3
-23.05
-31.78
-42.36
-54.96
-68.83
-82.37
-93.41
-99.81
-100
-93.55
-81.26
-65
-47.05
-29.54
-13.87
-0.6
10.4
19.61
27.66
35.09
42.39
49.86
57.63
65.53
73.17
80
85.49
89.32
91.41
91.95
91.36
90.16
88.77
87.45
86.06
84.18
81.25
76.78
70.62
62.95
54.18
44.85
35.65
27.39
21.09
17.72
17.93
21.72
28.45
37.19
47.26
58.66
72.15
88.87
109.63
134.51
162.8
193.12
223.63
251.93
274.98
289.17
291.17
279.04
253.45
217.94
178.09
139.66
106.64
80.19
58.89
40.09
21.65
3.14
-13.93
-27.11
-34.38
-35.52
-32.55
-29.31
-30.09
-37.84
-52.9
-72.77
-93.01
-109.01
-117.72
-118.49
-112.67
-102.53
-90
-76.13
-61.44
-46.48
-32.37
-20.61
-12.36
-7.78
-5.71
-4.14
-1.17
4.02
10.75
17.16
21.06
20.95
16.61
9.19
0.69
-6.73
-11.32
-11.98
-8.19
0.09
12.6
28.81
47.87
68.62
89.59
109.19
125.78
137.84
144.06
143.43
135.54
120.8
100.57
77.11
53.18
31.49
14.1
2.03
-4.86
-7.49
-7.22
-5.3
-2.75
-0.37
1.12
0.93
-1.76
-7.63
-17
-29.77
-45.38
-62.95
-81.5
-100
-117.48
-133.06
-145.94
-155.44
-161.14
-162.88
-160.86
-155.65
-148
-138.71
-128.41
-117.48
-106.07
-94.27
-82.23
-70.22
-58.65
-47.95
-38.58
-30.98
-25.57
-22.64
-22.21
-23.9
-26.93
-30.21
-32.7
-33.72
-33.16
-31.45
-29.45
-28.07
-28.13
-30.12
-34.14
-39.84
-46.4
-52.69
-57.51
-59.95
-59.7
-57.1
-53.02
-48.41
-44.02
-40.17
-36.78
-33.61
-30.46
-27.27
-24.11
-21.02
-17.99
-15.04
-12.29
-10.14
-9.17
-10
-12.93
-17.7
-23.45
-28.89
-32.82
-34.44
-33.59
-30.64
-26.14
-20.57
-14.17
-7.12
0.3
7.51
13.75
18.3
20.67
20.73
18.67
14.87
9.86
4.25
-1.28
-6.02
-9.4
-11.18
-11.48
-10.72
-9.45
-8.12
-6.98
-6.18
-5.8
-5.9
-6.51
-7.48
-8.52
-9.15
-8.98
-7.82
-5.83
-3.4
-0.96
1.17
2.92
4.36
5.44
5.95
5.43
3.44
-0.21
-5.25
-10.93
-16.24
-20.22
-22.21
-22.03
-20.06
-17.11
-14.32
-12.93
-13.99
-18.12
-25.4
-35.37
-47.22
-60.02
-72.87
-84.96
-95.53
-103.82
-109.13
-111.03
-109.48
-104.94
-98.3
-90.72
-83.35
-77.13
-72.61
-69.76
-68.06
-66.57
-64.22
-60.17
-54.11
-46.33
-37.59
-28.8
-20.71
-13.69
-7.75
-2.62
2.09
6.82
11.96
17.78
24.33
31.37
38.34
44.57
49.42
52.62
54.22
54.47
53.56
51.43
47.82
42.48
35.49
27.4
19.1
11.49
5.1
-0.15
-4.71
-9.15
-13.79
-18.63
-23.53
-28.45
-33.55
-39.09
-45.11
-51.16
-56.39
-59.79
-60.6
-58.63
-54.27
-48.26
-41.41
-34.37
-27.57
-21.24
-15.53
-10.52
-6.15
-2.23
1.61
5.78
10.67
16.48
23.19
30.58
38.29
45.94
53.16
59.66
65.16
69.45
72.28
73.45
72.89
70.7
67.24
63.03
58.7
54.74
51.46
48.82
46.54
44.26
41.73
38.94
36.04
33.28
30.83
28.69
26.72
24.76
22.71
20.55
18.34
16.05
13.58
10.8
7.66
4.29
1.05
-1.58
-3.16
-3.46
-2.55
-0.77
1.36
3.31
4.72
5.46
5.7
5.76
6.02
6.74
7.98
9.59
11.31
12.86
14.09
14.96
15.58
16.15
16.87
17.9
19.26
20.88
22.54
23.95
24.83
25.02
24.48
23.37
21.95
20.51
19.28
18.32
17.53
16.69
15.61
14.22
12.72
11.55
11.29
12.36
14.72
17.73
20.35
21.51
20.67
18.15
15.15
13.2
13.5
16.39
21.28
27.02
32.57
37.59
42.43
47.87
54.48
62.27
70.63
78.65
85.37
90.05
92.05
90.66
85.26
75.61
62.31
47.01
32.11
19.89
11.59
6.95
4.39
1.83
-2.33
-8.62
-16.49
-24.86
-32.8
-39.97
-46.55
-52.96
-59.41
-65.76
-71.56
-76.46
-80.43
-83.82
-87.24
-91.19
-95.87
-101.17
-106.77
-112.49
-118.4
-124.73
-131.68
-139.05
-146.02
-151.09
-152.4
-148.19
-137.54
-120.82
-99.85
-77.42
-56.5
-39.31
-26.74
-18.33
-12.85
-9.03
-6.22
-4.48
-4.32
-6.24
-10.3
-16.04
-22.71
-29.51
-35.97
-41.98
-47.61
-52.77
-56.85
-58.58
-56.2
-47.87
-32.17
-8.54
22.6
59.68
100.01
139.76
174.33
199
209.98
205.65
187.25
158.77
126
94.92
70.2
54.29
47.25
47.39
52.1
58.69
64.97
69.49
71.61
71.36
69.28
66.19
62.96
60.31
58.63
57.92
57.68
57.07
55.1
51.09
45.08
38.01
31.46
27.02
25.49
26.44
28.34
29.23
27.79
23.99
19.25
15.83
16
21.2
31.7
46.73
64.99
85.04
105.59
125.63
144.4
161.46
176.69
190.32
202.52
213.01
220.67
223.61
219.68
207.38
186.51
158.4
125.43
90.16
54.69
20.14
-13.14
-45.37
-77.1
-109.08
-142.18
-177.18
-214.44
-253.51
-293.03
-331.09
-365.87
-396.32
-422.56
-445.63
-466.67
-485.69
-500.8
-508.09
-502.75
-480.86
-441.29
-386.76
-323.37
-258.98
-200.81
-153.57
-118.51
-93.93
-76.33
-61.88
-47.49
-31.59
-14.23
3.23
18.81
30.84
38.8
43.5
46.68
49.97
54.13
58.67
62.38
64.16
63.7
61.41
57.94
53.46
47.6
39.91
30.59
21.02
13.28
9.25
9.55
13.32
18.61
23.47
26.95
29.42
32.2
36.77
44.02
53.84
65.31
77.08
87.81
96.47
102.46
105.58
106.08
104.61
102.03
99.22
96.81
94.99
93.5
91.85
89.54
86.3
82.19
77.56
72.88
68.58
64.94
62.1
60.01
58.56
57.5
56.53
55.29
53.49
51.03
48.14
45.37
43.5
43.3
45.29
49.47
55.3
61.87
68.26
73.92
78.91
83.85
89.55
96.57
104.85
113.72
122.15
129.21
134.36
137.58
139.22
139.86
140.17
140.7
141.67
142.47
141.37
135.7
122.56
100.01
68.01
28.69
-14.31
-56.94
-95.81
-128.7
-154.33
-172.07
-181.58
-183.06
-177.54
-166.99
-153.95
-140.8
-129.05
-119.14
-110.68
-102.96
-95.5
-88.26
-81.51
-75.63
-70.95
-67.58
-65.37
-63.78
-61.85
-58.28
-51.85
-41.86
-28.57
-13.09
3.06
18.74
33.74
48.67
64.35
80.93
97.34
111.52
121.24
125.16
123.49
117.83
110.33
102.58
95.02
86.81
76.63
63.49
47.45
29.7
12.12
-3.52
-16.28
-26.34
-34.9
-43.63
-53.97
-66.6
-81.11
-96.18
-110.03
-121.11
-128.61
-132.67
-134.08
-133.8
-132.43
-129.89
-125.66
-119.09
-109.9
-98.43
-85.54
-72.39
-60.04
-49.17
-40
-32.22
-25.06
-17.45
-8.1
4.17
20.15
40.01
63.18
88.49
114.38
139.19
161.38
179.7
193.3
201.81
205.44
204.9
201.16
195.05
186.97
176.84
164.38
149.6
133.08
115.92
99.3
83.97
69.99
56.92
44.26
31.75
