1675323446.00
64.000000
-0.00
-0.00
-0.00
-0.00
-0.00
-0.00
-0.00
-0.00
-0.00
-0.00
0.00
0.01
0.01
-0.00
-0.03
-0.05
-0.05
0.00
0.13
0.36
0.66
1.01
1.37
1.72
2.06
2.40
2.79
3.24
3.80
4.42
5.06
5.66
6.20
6.68
7.15
7.68
8.31
9.14
10.09
11.04
11.88
12.56
13.14
13.76
14.65
15.96
17.91
20.32
22.90
25.38
27.58
29.57
31.68
34.32
37.81
42.54
48.15
54.10
59.83
64.97
69.58
74.14
79.34
85.71
93.76
103.00
112.62
121.73
129.77
136.75
143.30
150.75
157.77
166.64
177.95
191.79
206.97
220.57
228.25
225.36
208.53
176.87
132.76
80.05
23.07
-34.94
-92.44
-149.16
-205.23
-260.37
-313.74
-363.87
-409.83
-450.91
-486.50
-515.74
-537.23
-549.22
-549.96
-538.37
-514.21
-478.67
-433.88
-382.45
-327.02
-269.84
-212.63
-156.66
-102.95
-52.37
-5.90
35.58
71.43
101.35
125.50
144.38
158.69
169.15
176.37
180.75
182.57
182.07
179.51
175.23
169.65
163.18
156.15
148.81
141.30
133.69
126.02
118.33
110.69
103.16
95.80
88.68
81.83
75.25
68.95
62.95
57.25
51.86
46.78
42.03
37.59
33.45
29.61
26.07
22.81
19.83
17.11
14.67
12.48
10.54
8.83
7.35
6.07
4.97
4.05
3.27
2.62
2.09
1.65
1.30
1.01
0.79
0.61
0.47
0.37
0.29
0.23
0.19
0.16
0.14
0.14
0.15
0.16
0.18
0.20
0.23
0.27
0.31
0.35
0.39
0.44
0.49
0.54
0.59
0.64
0.69
0.74
0.81
0.89
0.98
1.08
1.17
1.25
1.30
1.34
1.38
1.45
1.57
1.75
1.98
2.23
2.48
2.73
2.97
3.23
3.53
3.91
4.37
4.89
5.43
5.95
6.42
6.85
7.30
7.83
8.48
9.29
10.19
11.07
11.86
12.48
12.96
13.43
14.03
14.89
16.00
17.17
18.08
18.40
17.87
16.42
14.22
11.51
8.53
5.37
1.89
-2.20
-7.12
-12.91
-19.31
-25.78
-31.71
-36.61
-40.25
-42.75
-44.40
-45.59
-46.73
-48.30
-50.68
-53.98
-57.62
-60.07
-59.30
-53.50
-42.13
-26.50
-9.46
5.67
16.42
22.04
23.45
22.36
20.37
18.30
16.31
14.34
12.54
11.28
10.76
10.74
10.55
9.56
7.63
5.40
4.06
4.79
8.05
13.33
19.31
24.37
27.27
27.62
25.86
22.99
20.06
17.70
16.10
15.04
14.23
13.47
12.76
12.13
11.60
11.07
10.35
9.39
8.28
7.37
7.11
7.75
9.31
11.58
14.22
16.85
19.06
20.31
20.06
17.94
14.04
9.04
4.03
0.07
-2.27
-3.15
-3.26
-3.33
-3.67
-4.08
-4.14
-3.65
-2.89
-2.54
-3.18
-4.98
-7.52
-10.06
-11.99
-13.00
-13.34
-13.59
-14.37
-16.08
-18.80
-22.20
-25.75
-28.90
-31.29
-32.88
-34.04
-35.41
-37.63
-41.08
-45.64
-50.58
-54.75
-56.83
-55.79
-51.17
-43.27
-32.97
-21.58
-10.29
-0.03
8.70
15.78
21.26
25.29
27.99
29.53
30.10
29.92
29.31
28.57
28.09
28.17
28.97
30.45
32.30
34.12
35.55
36.44
36.81
36.81
36.57
36.13
35.47
34.57
33.53
32.48
31.45
30.33
28.93
27.05
24.73
22.24
19.99
18.28
17.15
16.32
15.36
13.89
11.79
9.24
6.62
4.38
2.75
1.76
1.21
0.89
0.64
0.39
0.03
-0.62
-1.77
-3.52
-5.67
-7.80
-9.51
-10.69
-11.68
-13.19
-15.88
-20.03
-25.38
-31.25
-36.89
-41.82
-45.96
-49.59
-53.17
-57.11
-61.59
-66.36
-70.68
-73.46
-73.60
-70.40
-63.92
-54.89
-44.44
-33.61
-23.01
-12.86
-3.32
5.30
12.33
17.12
19.43
19.70
18.98
18.39
18.73
20.09
22.04
23.99
25.59
26.88
28.16
29.73
31.62
33.63
35.42
36.75
37.52
37.76
37.50
36.80
35.81
34.86
34.34
34.60
35.60
36.95
37.94
37.96
36.76
34.67
32.48
31.08
31.24
33.32
37.21
42.16
46.87
49.65
48.80
43.22
32.82
18.68
2.71
-12.97
-26.77
-37.94
-46.50
-52.86
-57.33
-60.10
-61.18
-60.84
-59.70
-58.75
-59.07
-61.35
-65.72
-71.52
-77.64
-82.74
-85.73
-85.97
-83.28
-77.88
-70.20
-60.75
-50.11
-38.90
-27.70
-17.07
-7.39
1.07
8.15
13.76
17.91
20.64
22.01
22.10
20.93
18.62
15.52
12.31
9.92
9.29
10.91
14.54
19.20
23.55
26.48
27.54
27.09
25.98
25.18
25.33
26.57
28.52
30.50
31.57
30.83
27.64
21.99
14.77
7.63
2.51
0.77
2.54
6.54
10.68
13.03
12.69
10.08
6.44
2.88
-0.35
-3.98
-9.56
-19.12
-34.95
-59.20
-92.82
-134.21
-178.30
-216.75
-239.96
-240.19
-214.35
-165.39
-101.43
-33.23
28.97
77.89
110.36
127.33
132.79
132.17
130.56
131.11
134.41
138.76
141.56
140.68
135.20
125.19
111.16
93.45
72.55
49.64
27.12
8.19
-4.29
-9.06
-7.11
-1.26
5.16
9.73
11.66
11.65
11.13
11.40
13.09
16.10
20.01
24.42
29.15
34.11
39.11
43.70
47.13
48.65
47.80
44.72
40.24
35.62
32.09
30.42
30.61
31.87
32.85
32.14
28.79
22.86
15.74
10.15
9.51
16.73
32.56
54.42
76.49
91.60
94.24
83.24
62.80
40.93
26.04
23.42
33.20
50.76
68.95
81.13
83.24
74.55
56.87
33.39
7.64
-17.04
-37.62
-51.52
-56.97
-53.38
-41.71
-24.46
-5.27
11.88
23.68
28.55
27.22
22.59
18.76
19.53
26.93
40.49
57.42
73.81
86.12
92.47
92.98
89.39
83.85
77.99
72.30
66.15
58.37
47.72
33.38
15.14
-6.38
-29.75
-52.72
-72.60
-86.88
-93.97
-93.89
-88.45
-80.72
-73.93
-70.38
-70.63
-73.53
-76.93
-78.50
-76.49
-70.05
-59.24
-44.84
-28.24
-11.11
4.95
18.67
29.45
37.28
42.46
45.35
46.38
46.50
47.37
51.15
59.30
71.53
85.14
95.61
98.32
90.33
71.13
42.14
5.48
-36.85
-82.63
-128.54
-169.58
-199.84
-214.70
-212.99
-197.87
-175.67
-153.11
-134.63
-121.28
-111.47
-102.94
-94.61
-87.09
-81.89
-80.05
-81.25
-83.82
-85.62
-84.91
-80.93
-73.85
-64.31
-52.89
-40.05
-26.38
-12.88
-1.09
7.26
10.93
9.82
5.16
-0.94
-6.38
-9.94
-11.74
-13.02
-15.25
-19.26
-24.81
-30.85
-36.31
-40.87
-45.17
-50.44
-57.72
-67.28
-78.64
-90.89
-103.25
-115.36
-127.07
-137.98
-147.23
-153.73
-156.95
-157.51
-157.20
-157.94
-160.36
-162.70
-161.17
-151.48
-131.10
-100.81
-64.72
-28.67
2.23
25.37
41.04
51.39
58.69
63.97
66.88
66.38
61.88
54.05
44.71
36.18
30.29
27.75
28.08
30.18
33.07
36.49
40.99
47.56
57.07
69.68
84.71
100.73
115.95
128.65
137.51
141.91
141.88
138.09
131.48
123.04
113.50
103.26
92.50
81.38
70.25
59.61
49.90
41.31
33.49
25.60
16.37
4.55
-10.54
-28.60
-48.11
-66.72
-82.03
-92.52
-98.18
-100.51
-101.81
-104.08
-108.21
-113.77
-119.60
-124.41
-127.10
-126.55
-121.42
-110.46
-93.49
-72.57
-52.19
-38.19
-35.51
-45.93
-66.96
-92.96
-117.69
-137.04
-150.19
-158.78
-164.50
-167.12
-163.96
-151.11
-125.67
-87.28
-38.07
18.81
80.81
146.59
214.92
282.92
344.97
393.67
422.34
427.98
412.70
382.97
346.90
311.37
280.32
254.74
233.80
216.34
201.32
187.81
174.43
159.45
141.20
118.89
93.19
66.28
41.39
21.81
10.03
6.99
11.92
22.48
35.49
47.67
56.42
60.26
58.90
52.89
43.21
30.89
16.72
1.33
-14.81
-31.21
-47.32
-62.68
-76.97
-90.16
-102.44
-114.09
-125.22
-135.72
-145.20
-153.09
-158.87
-162.19
-163.04
-161.66
-158.53
-154.08
-148.52
-141.70
-133.15
-122.37
-109.15
-93.84
-77.27
-60.53
-44.59
-29.94
-16.60
-4.25
7.42
18.55
28.98
38.50
46.91
54.22
60.56
65.96
70.21
72.91
73.60
72.02
68.34
63.19
57.57
52.55
48.90
46.78
45.68
44.66
43.06
41.12
40.21
42.52
50.15
64.18
84.18
108.39
134.46
160.13
183.67
203.58
218.17
225.40
223.16
210.22
187.00
155.73
119.98
83.32
48.19
15.21
-16.59
-48.89
-82.99
-119.00
-155.81
-191.48
-224.03
-251.81
-273.74
-289.31
-298.81
-303.45
-305.21
-306.15
-307.24
-307.49
-303.89
-292.65
-271.26
-240.28
-203.75
-167.96
-139.02
-120.29
-111.26
-108.15
-105.66
-99.03
-85.33
-63.70
-34.82
-0.43
37.03
74.33
107.64
133.49
149.65
156.35
156.37
153.74
151.66
150.67
148.24
139.96
122.10
93.73
57.86
20.67
-10.66
-30.39
-36.15
-29.39
-14.47
3.12
18.52
28.86
33.70
34.52
33.87
34.43
38.34
46.69
59.56
75.98
94.04
111.14
124.36
131.47
131.31
124.08
110.98
93.58
73.19
50.73
26.91
2.66
-20.73
-41.74
-59.07
-71.97
-80.37
-84.67
-85.42
-82.97
-77.61
-69.61
-59.51
-48.08
-36.24
-24.78
-14.18
-4.51
4.48
13.12
21.54
29.44
36.12
40.72
42.69
42.15
39.96
37.39
35.45
34.47
33.93
32.87
30.52
26.82
22.51
18.72
16.41
15.93
16.88
18.37
19.39
19.26
17.77
15.16
12.00
8.89
6.36
4.73
4.18
4.78
6.42
8.73
10.90
11.69
9.56
3.23
-7.83
-22.96
-40.35
-57.67
-72.97
-85.53
-96.17
-106.66
-118.69
-132.68
-147.43
-160.66
-170.54
-177.08
-182.57
-190.55
-203.64
-221.32
-239.12
-249.74
-245.64
-221.72
-176.96
-114.59
-41.00
35.57
106.17
162.22
196.87
206.61
192.64
161.13
121.65
84.23
56.45
41.70
39.61
48.07
65.14
90.00
121.98
158.88
195.82
225.71
241.57
239.19
219.14
186.50
148.75
112.84
82.87
59.61
41.69
27.79
18.34
15.93
23.80
44.08
76.00
115.24
154.71
186.65
205.37
209.15
200.61
184.79
167.10
151.37
139.11
129.93
122.69
116.44
110.59
104.39
95.75
82.22
62.52
37.70
11.17
-12.81
-31.24
-44.19
-55.23
-71.79
-100.12
-141.32
-190.02
-236.87
-272.54
-290.87
-290.02
-272.00
-244.90
-216.94
-192.61
-171.60
-151.40
-130.31
-108.54
-87.92
-71.48
-68.46
-86.49
-126.15
-179.70
-235.49
-283.40
-316.70
-332.23
-330.18
-321.71
-320.79
-337.93
-377.04
-438.00
-518.52
-613.22
-712.76
-752.99
-687.57
-515.56
-284.80
-55.87
131.01
261.95
341.95
386.53
411.71
428.73
441.97
454.16
468.86
487.15
505.55
518.19
520.43
506.62
470.51
409.84
329.05
238.37
148.43
66.04
-6.59
-70.64
-129.62
-191.91
-266.47
-357.48
-461.00
-566.20
-658.81
-725.43
-757.33
-753.36
-721.17
-673.16
-620.42
-568.47
-517.15
-463.04
-402.64
-334.54
-260.05
-182.66
-106.18
-33.03
36.08
101.20
162.02
217.42
265.61
304.88
334.42
354.32
365.63
369.79
368.13
361.43
349.82
333.01
310.71
283.12
251.06
215.85
179.10
142.29
106.53
72.44
40.29
10.17
-17.78
-43.24
-65.66
-84.40
-98.84
-108.56
-113.50
-113.99
-110.70
-104.44
-96.04
-86.05
-74.66
-61.66
-46.70
-29.49
-10.06
11.14
33.42
56.07
78.70
101.32
124.34
148.35
173.98
201.86
232.60
266.56
303.21
340.61
375.28
402.81
419.33
422.84
414.05
395.88
372.21
346.31
319.99
293.84
268.06
243.30
220.85
202.04
187.50
176.69
168.23
160.62
153.08
145.83
139.82
136.04
134.77
135.22
135.85
134.94
131.35
124.92
116.37
106.93
97.70
89.30
81.90
75.39
69.85
65.63
63.25
62.95
64.35
66.37
67.47
66.23
61.95
54.88
46.13
37.12
29.03
22.43
17.22
12.93
9.10
5.50
2.16
-0.84
-3.58
-6.50
-10.43
-16.32
-24.94
-36.38
-49.99
-64.44
-78.23
-90.10
-99.38
-106.01
-110.27
-112.49
-112.94
-111.87
-109.72
-107.23
-105.33
-104.98
-106.89
-111.38
-118.34
-127.16
-136.76
-145.58
-151.72
-153.41
-149.48
-139.84
-125.72
-109.46
-93.93
-81.55
-73.27
-67.97
-62.58
-53.15
-36.32
-10.70
22.43
59.63
96.45
128.96
154.71
172.95
184.16
189.26
189.08
184.18
175.06
162.42
147.22
130.52
113.26
95.88
78.26
59.73
39.40
16.57
-9.01
-36.96
-66.48
-96.52
-126.02
-153.82
-178.45
-198.00
-210.37
-214.11
-209.40
-198.60
-185.84
-175.36
-169.72
-168.64
-169.23
-167.80
-161.96
-151.88
-140.01
-129.21
-120.78
-113.40
-103.76
-88.29
-64.93
-33.89
2.78
42.26
81.85
119.21
152.15
178.44
196.02
203.61
201.19
190.22
173.18
152.83
131.53
111.02
92.36
76.03
62.00
49.65
37.99
25.93
12.89
-0.95
-14.55
-26.44
-35.28
-40.46
-42.38
-42.43
-42.62
-45.06
-51.16
-61.04
-73.32
-85.53
-95.29
-101.48
-104.94
-108.05
-113.53
-122.81
-135.14
-147.76
-157.08
-160.25
-156.17
-145.61
-130.60
-113.50
-96.36
-80.67
-67.31
-56.47
-47.57
-39.29
-29.90
-17.86
-2.55
15.29
33.65
49.96
61.99
68.77
70.70
69.32
66.35
62.96
59.35
54.94
48.95
41.05
31.71
22.13
13.90
8.52
7.05
9.82
16.26
24.87
33.61
40.46
44.05
44.56
43.95
45.55
52.82
67.97
90.88
119.03
148.34
174.54
194.37
205.98
208.72
202.59
187.84
165.16
136.08
103.16
69.67
38.74
12.46
-8.50
-24.50
-36.11
-43.50
-46.31
-44.20
-37.28
-26.46
-13.27
0.73
14.54
27.73
40.28
52.16
63.10
72.76
81.01
88.20
95.09
102.27
109.57
115.71
118.52
115.65
105.56
88.32
65.80
41.11
17.55
-2.62
-18.80
-31.93
-43.57
-54.91
-66.22
-77.09
-87.05
-96.21
-105.33
-115.38
-126.68
-138.53
-149.31
-157.30
-161.58
-162.39
-161.04
-159.18
-158.09
-158.32
-159.59
-161.15
-162.06
-161.46
-158.64
-153.07
-144.49
-132.98
-119.02
-103.41
-87.01
-70.46
-54.06
-37.89
-22.09
-7.18
5.99
16.51
24.02
29.10
33.23
38.22
45.34
54.71
65.23
75.11
82.66
86.91
87.96
86.82
85.08
84.61
87.32
95.00
108.88
129.11
154.12
180.41
203.04
216.85
218.17
206.07
182.76
152.66
120.86
91.54
67.15
48.59
36.01
29.55
29.44
35.58
47.01
61.93
78.36
94.94
110.89
125.36
136.23
139.77
131.57
108.71
72.00
26.75
-18.88
-57.02
-83.52
-99.61
-111.01
-125.16
-148.30
-183.69
-231.56
-289.72
-354.09
-418.79
-476.10
-517.41
-535.26
-526.32
-493.08
-443.60
-388.69
-337.67
-295.11
-259.83
-226.94
-191.30
-150.89
-108.03
-68.03
-36.35
-15.94
-6.12
-3.20
-2.41
0.15
6.55
17.32
32.30
51.23
73.70
98.68
124.21
147.67
166.82
180.84
190.80
199.10
208.20
219.44
232.28
244.72
254.32
259.46
260.20
258.22
255.88
254.80
254.84
253.67
247.55
232.72
207.20
171.93
131.03
90.73
57.55
36.27
28.49
32.41
43.56
56.29
65.09
65.59
55.03
32.54
-0.66
-41.23
-84.28
-124.48
-157.52
-181.33
-196.39
-204.93
-209.40
-211.23
-210.37
-205.82
-196.67
-182.88
-165.38
-145.56
-124.63
-103.25
-81.63
-59.96
-38.66
-18.49
-0.25
15.52
28.73
39.69
48.98
57.21
64.73
71.42
76.82
80.43
81.95
81.47
79.42
76.45
73.37
70.78
68.86
67.41
66.01
64.36
62.50
60.76
59.64
60.03
62.39
66.51
71.46
76.02
79.18
80.40
79.60
77.08
74.45
73.04
73.13
73.82
73.67
71.80
68.25
63.77
59.21
57.42
60.03
66.44
73.99
79.82
82.57
82.72
81.58
80.32
83.41
94.01
112.52
136.21
160.96
183.40
201.53
214.40
221.89
229.89
244.32
268.64
302.13
341.37
382.43
421.60
455.27
448.22
379.04
249.76
88.82
-67.63
-195.18
-286.47
-345.86
-382.44
-405.20
-415.36
-412.20
-395.50
-368.73
-337.55
-307.50
-282.55
-264.87
-255.36
-250.22
-246.79
-242.95
-238.77
-234.27
-227.62
-215.34
-194.33
-164.29
-123.76
-78.31
-34.32
3.23
32.69
56.09
76.12
95.21
114.54
135.10
155.82
174.15
185.63
185.40
169.83
138.87
96.64
49.82
5.99
-29.48
-54.27
-70.47
-78.93
-84.02
-90.71
-103.03
-123.60
-153.16
-190.19
-229.70
-263.55
-281.83
-276.77
-246.13
-195.75
-138.81
-90.89
-63.30
-57.78
-66.47
-76.68
-78.79
-70.82
-58.59
-51.12
-54.34
-67.05
-81.28
-86.97
-77.48
-53.63
-23.51
1.02
9.22
-4.27
-37.52
-82.35
-127.99
-164.96
-187.98
-196.52
-193.10
-180.84
-161.81
-136.95
-107.52
-76.47
-47.91
-25.20
-9.10
2.85
14.87
30.37
49.83
70.68
89.05
103.41
116.45
133.58
159.34
193.84
231.31
261.79
275.48
266.98
239.22
203.15
173.37
162.18
174.96
208.51
252.48
292.62
314.35
307.93
271.56
210.92
136.94
62.61
-0.49
-43.94
-59.79
-49.60
-24.51
3.40
28.06
50.06
72.46
97.22
123.74
149.04
168.93
180.44
183.01
177.33
164.99
148.11
129.08
109.79
91.20
72.62
53.00
35.73
22.88
14.99
10.53
6.36
-1.12
-14.45
-34.13
-57.70
-80.43
-98.04
-108.22
-111.74
-112.00
-113.48
-119.95
-133.18
-152.37
-174.74
-197.37
-218.44
-238.08
-258.19
-281.58
-311.16
-349.33
-397.14
-453.20
-513.23
-569.88
-614.15
-638.08
-637.33
-612.92
-570.71
-519.02
-465.40
-414.19
-366.34
-320.74
-276.42
-233.28
-192.21
-154.18
-119.39
-86.97
-55.00
-22.07
11.87
45.04
75.55
102.08
124.31
143.01
159.76
177.58
198.78
224.08
251.67
280.42
309.97
340.52
372.14
404.33
437.72
471.69
504.41
531.91
552.92
567.93
578.28
584.41
585.75
583.37
577.38
567.05
549.36
524.85
496.21
467.02
439.80
401.18
345.56
276.00
216.00
170.39
137.60
110.90
87.12
63.90
39.72
16.28
-4.63
-22.31
-39.33
-56.29
-72.96
-88.68
-103.45
-117.37
-128.32
-134.41
-134.65
-130.89
-123.71
-113.56
-100.98
-87.43
-74.49
-62.19
-50.26
-38.66
-28.85
-21.64
-17.96
-19.00
-26.48
-41.76
-64.62
-93.72
-127.22
-163.77
-202.00
-241.02
-280.69
-321.74
-365.83
-414.57
-469.34
-530.36
-595.63
-659.63
-713.76
-748.68
-757.68
-739.54
-698.67
-643.39
-582.74
-523.51
-468.99
-419.03
-372.32
-328.21
-287.88
-252.61
-222.84
-197.73
-175.82
-155.81
-135.93
-115.21
-93.87
-74.56
-58.71
-46.51
-36.79
-28.45
-20.61
-10.26
5.42
27.68
52.42
76.56
97.94
115.86
129.37
137.93
145.91
158.82
180.54
206.66
233.93
259.76
283.33
303.02
317.87
333.96
359.34
400.13
452.45
514.46
584.91
662.95
743.06
787.15
760.70
647.24
501.24
352.91
221.66
107.10
16.20
-48.10
-89.40
-109.79
-112.61
-111.07
-122.61
-152.77
-197.05
-245.71
-287.25
-322.71
-348.86
-359.18
-347.26
-317.77
-275.28
-226.12
-176.31
-132.23
-97.99
-69.88
-40.63
-3.10
44.49
102.80
169.12
237.22
296.57
335.05
345.75
328.22
289.01
238.77
191.09
156.77
140.26
138.15
141.72
143.02
137.74
126.57
113.98
106.68
110.07
126.10
152.19
182.13
208.49
224.77
226.77
213.48
186.63
149.49
105.98
60.07
15.50
-24.07
-55.64
-77.67
-90.55
-96.68
-99.63
-102.92
-108.66
-117.06
-126.65
-135.34
-141.41
-144.19
-144.01
-141.50
-136.63
-128.07
-113.18
-89.07
-54.28
-10.20
38.56
85.42
124.16
151.12
166.08
171.31
169.58
162.45
150.00
131.91
109.19
85.04
64.13
50.41
45.34
47.26
52.42
56.63
56.81
51.78
42.08
29.29
14.91
-0.04
-14.98
-29.56
-43.24
-55.37
-64.84
-70.20
-69.80
-63.00
-50.46
-34.17
-16.76
-0.81
11.24
18.17
20.07
18.55
14.36
7.43
-2.89
-16.66
-32.98
-51.36
-70.67
-89.36
-104.50
-115.64
-123.80
-130.75
-137.03
-141.81
-145.75
-149.15
-152.23
-152.85
-152.31
-153.59
-160.40
-174.23
-194.26
-220.68
-251.91
-284.60
-311.06
-327.68
-334.35
-334.63
-332.70
-314.39
-272.39
-207.95
-151.77
-111.34
-86.23
-66.05
-46.86
-26.96
-6.16
11.93
24.09
28.93
30.70
31.84
34.06
37.90
44.83
56.45
71.50
88.24
105.03
123.15
141.47
158.00
170.69
180.13
189.24
200.86
217.77
241.40
272.57
307.75
340.87
365.09
375.85
371.92
354.58
327.46
295.11
262.44
231.98
204.21
178.20
153.20
129.19
106.58
86.06
68.03
52.63
39.21
26.76
14.36
1.58
-11.65
-25.21
-38.89
-52.42
-65.43
-77.46
-87.91
-96.29
-102.37
-106.45
-109.34
-112.25
-116.30
-121.96
-128.74
-135.22
-139.53
-140.08
-136.16
-128.19
-117.36
-105.21
-93.10
-81.86
-71.81
-62.78
-54.34
-45.97
-37.15
-27.53
-16.97
-5.67
6.00
17.36
27.67
36.13
42.17
45.59
46.63
45.95
44.33
42.35
40.25
37.94
35.18
31.87
28.12
24.12
19.93
15.36
9.96
3.17
-5.37
-15.68
-27.24
-39.16
-50.36
-59.83
-66.99
-71.83
-74.85
-76.83
-78.52
-80.34
-82.33
-84.30
-86.13
-88.00
-90.40
-93.95
-99.07
-105.60
-112.60
-118.49
-121.55
-120.48
-115.01
-106.06
-95.28
-84.41
-74.48
-65.37
-55.98
-44.87
-31.08
-14.64
3.39
21.51
38.17
52.35
63.89
73.58
83.53
97.27
119.50
154.83
205.72
270.39
341.85
409.31
461.52
490.83
495.90
481.54
455.90
426.46
397.04
367.26
334.22
295.11
249.18
197.63
142.46
84.63
23.43
-43.04
-116.67
-198.43
-288.44
-385.70
-488.12
-591.81
-690.51
-775.92
-839.46
-875.00
-881.03
-861.67
-824.54
-777.96
-728.10
-677.85
-627.50
-576.48
-524.89
-473.75
-424.84
-378.78
-334.86
-291.26
-246.18
-198.68
-148.86
-97.49
-44.66
9.98
67.55
128.33
190.45
249.40
299.11
334.34
352.51
359.54
360.96
361.63
363.34
364.95
364.20
359.32
351.74
342.85
333.34
322.43
309.55
293.84
275.95
257.56
240.46
225.85
213.61
202.88
191.97
179.69
165.42
149.42
132.54
115.94
100.72
87.39
76.02
66.06
57.29
50.21
46.30
47.38
54.70
68.06
85.45
103.82
119.97
131.68
138.03
139.13
135.66
128.62
119.40
109.62
100.87
93.83
87.81
80.78
70.26
54.58
33.79
9.76
-14.68
-36.83
-54.95
-68.43
-77.40
-82.36
-84.04
-83.71
-83.22
-84.74
-90.00
-99.42
-111.68
-124.13
-133.61
-137.64
-135.14
-126.59
-113.48
-97.88
-81.97
-67.99
-57.98
-53.42
-54.73
-60.92
-69.88
-79.10
-86.35
-90.15
-89.72
-84.79
-75.54
-62.73
-47.87
-33.12
-20.66
-11.90
-6.93
-4.82
-4.56
-5.58
-7.78
-10.68
-12.70
-11.23
-3.73
10.69
29.88
48.47
59.36
56.21
35.79
-0.31
-46.03
-91.96
-127.74
-145.10
-140.45
-115.74
-77.61
-34.83
5.06
37.76
64.21
89.55
119.34
155.50
194.47
228.49
249.11
251.16
233.59
201.03
162.10
125.20
94.86
70.95
50.19
28.34
2.09
-32.13
-75.34
-124.28
-172.66
-213.46
-240.80
-251.39
-245.29
-216.13
-167.57
-112.06
-62.88
-26.99
-4.71
6.91
12.03
15.51
23.06
37.96
60.62
88.76
116.47
135.11
136.87
118.74
78.43
24.12
-29.88
-74.43
-103.43
-112.44
-100.84
-72.33
-32.91
10.10
48.89
73.89
79.66
68.82
48.80
26.59
6.70
-7.10
-10.58
-0.76
23.10
58.78
101.82
145.78
183.61
202.42
195.69
165.70
122.94
80.80
48.83
29.98
20.85
15.05
8.26
0.26
-5.27
-3.83
7.13
25.42
45.84
62.50
71.12
69.82
57.99
37.04
9.89
-18.71
-44.08
-60.29
-61.10
-42.52
-5.98
40.75
85.89
117.72
128.80
115.03
77.07
19.31
-51.61
-128.63
-205.12
-273.73
-326.43
-343.03
-311.60
-237.85
-144.04
-54.58
17.32
70.82
113.17
151.88
191.16
225.61
246.21
246.24
225.94
192.42
154.20
118.84
90.44
70.80
56.97
44.25
29.38
12.61
-3.45
-18.95
-36.21
-58.80
-89.75
-132.03
-186.76
-252.32
-324.34
-382.10
-409.85
-402.69
-368.75
-322.42
-276.73
-238.97
-211.05
-191.65
-178.27
-170.37
-166.45
-162.57
-152.56
-131.33
-97.81
-55.90
-12.78
24.35
49.45
60.84
61.05
55.06
47.21
39.41
32.09
25.29
19.74
15.41
12.08
8.91
4.98
-0.76
-9.24
-20.46
-33.37
-46.24
-57.89
-67.72
-76.07
-83.49
-90.90
-99.01
-107.76
-116.17
-122.51
-124.95
-121.48
-113.49
-102.10
-88.79
-74.95
-61.37
-48.08
-34.61
-20.43
-4.57
12.94
31.36
49.12
64.71
77.50
88.06
97.76
108.11
121.90
140.44
163.35
188.69
214.07
238.04
260.45
282.07
303.92
329.68
361.90
401.23
445.80
491.68
533.93
567.59
588.75
595.76
593.57
588.26
584.26
582.04
578.28
568.37
548.98
519.76
460.15
363.55
236.76
97.85
-33.15
-143.31
-228.57
-290.61
-333.20
-360.23
-371.58
-367.92
-352.26
-329.60
-305.69
-284.59
-268.17
-256.56
-249.03
-241.73
-231.55
-217.95
-202.80
-189.68
-181.56
-180.24
-186.24
-198.93
-215.02
-230.78
-244.15
-252.12
-255.65
-256.42
-255.98
-255.53
-256.12
-260.76
-268.16
-276.74
-283.97
-286.16
-278.52
-257.32
-222.26
-177.45
-129.97
-87.19
-54.67
-34.36
-25.04
-23.46
-26.52
-32.38
-40.27
-49.35
-59.17
-68.29
-75.04
-78.63
-79.21
-77.79
-75.72
-73.88
-72.25
-69.75
-65.06
-57.17
-45.95
-32.06
-16.75
-1.43
12.81
25.53
36.96
47.86
59.10
71.50
85.73
102.23
121.08
141.78
163.24
183.98
202.79
219.64
236.54
257.29
285.81
323.56
367.17
408.03
434.43
435.69
405.90
346.23
264.65
173.43
86.20
15.41
-29.30
-42.27
-22.99
23.12
85.09
148.67
200.31
230.98
238.18
225.11
197.58
160.33
115.20
61.86
0.63
-64.51
-124.94
-169.04
-186.49
-173.07
-133.50
-80.70
-31.89
-2.98
-3.60
-34.33
-87.36
-149.64
-207.06
-248.27
-266.57
-259.97
-229.94
-179.96
-114.77
-40.46
35.15
102.81
153.74
182.26
188.21
177.11
158.11
139.91
127.27
119.80
113.44
103.44
86.69
62.87
33.98
3.34
-25.52
-49.77
-68.14
-81.97
-95.58
-115.48
-147.75
-194.66
-252.24
-310.47
-356.70
-380.49
-377.45
-350.31
-306.58
-254.52
-199.55
-143.12
-84.30
-22.83
38.55
93.92
136.37
161.38
169.09
164.25
153.85
143.85
136.83
131.84
126.03
117.11
104.81
90.86
77.65
66.65
57.66
49.22
39.80
28.88
17.37
7.35
1.18
0.79
7.29
20.69
39.63
61.09
80.33
91.32
87.69
64.64
21.03
-39.01
-105.86
-166.19
-206.44
-217.00
-195.36
-147.19
-84.39
-21.22
30.32
63.66
78.55
79.37
72.38
63.13
55.20
50.49
49.76
52.72
57.42
59.76
54.30
36.67
6.89
-28.97
-60.16
-75.66
-69.53
-43.98
-8.54
24.46
45.48
51.40
45.43
33.99
22.85
14.82
9.86
6.77
4.90
4.63
6.81
11.50
17.52
22.86
25.80
25.89
24.14
22.40
22.16
23.76
25.92
26.26
22.56
14.03
1.90
-10.94
-21.01
-25.53
-23.15
-14.61
-2.42
10.18
20.32
26.27
27.56
24.72
18.81
11.50
4.31
-1.64
-5.58
-7.03
-5.81
-1.97
4.31
13.05
24.87
39.81
56.46
71.91
82.43
84.75
77.31
61.05
36.06
6.40
-21.63
-42.36
-53.39
-56.04
-53.50
-48.64
-42.91
-36.67
-29.24
-20.28
-10.56
-1.33
6.14
11.01
12.99
12.56
10.50
8.26
6.80
6.10
5.05
1.89
-5.41
-18.82
-39.30
-66.84
-99.09
-129.31
-151.52
-161.35
-158.48
-147.12
-134.34
-126.54
-127.22
-135.39
-146.86
-156.82
-160.61
-154.73
-137.25
-110.56
-77.56
-45.64
-24.74
-23.26
-43.57
-79.05
-115.97
-139.35
-139.93
-117.39
-80.36
-41.20
-10.26
7.21
11.59
6.27
-5.30
-21.29
-40.68
-62.69
-85.26
-104.92
-117.95
-121.93
-116.83
-104.79
-90.23
-76.56
-65.53
-56.71
-48.09
-37.25
-22.46
-3.50
18.34
40.75
61.62
79.45
94.08
106.66
119.25
133.96
152.17
173.87
197.68
221.75
244.58
265.84
286.56
308.33
331.84
355.34
374.29
382.28
373.27
344.18
296.23
234.39
165.11
93.85
24.06
-41.64
-99.24
-142.29
-163.86
-160.71
-136.88
-103.62
-74.84
-60.21
-60.22
-66.71
-68.39
-58.26
-37.63
-14.69
1.49
7.25
6.25
6.07
11.73
21.27
26.58
18.69
-5.51
-40.07
-72.36
-89.26
-83.93
-58.77
-23.50
10.35
34.92
48.54
54.50
57.44
59.99
61.55
59.53
51.91
38.99
23.98
11.80
7.16
12.73
27.62
46.97
62.71
65.68
49.02
11.53
-40.36
-93.61
-132.62
-144.80
-125.73
-81.05
-24.37
27.66
60.80
66.87
44.88
0.11
-57.49
-115.54
-161.47
-185.06
-180.97
-150.39
-100.72
-43.37
9.89
50.48
74.35
81.91
76.89
64.82
51.81
43.23
42.61
50.57
65.37
82.64
97.00
104.14
102.70
95.15
86.81
83.63
89.52
105.79
129.86
156.28
178.91
193.10
197.10
191.87
180.00
158.51
127.58
90.61
53.96
24.22
5.37
-2.24
-0.86
6.32
16.07
27.11
38.82
50.67
61.98
71.79
79.41
84.64
87.76
88.82
88.73
88.20
87.45
86.09
83.31
78.13
69.33
58.71
46.99
35.13
23.67
12.75
2.14
-8.44
-18.98
-29.18
-38.43
-46.65
-53.69
-59.76
-65.41
-71.28
-77.79
-84.73
-91.27
-96.14
-98.50
-97.84
-94.32
-88.77
-82.25
-75.55
-68.85
-61.54
-52.76
-42.23
-30.64
-19.90
-12.82
-12.18
-19.75
-35.60
-58.03
-84.17
-111.26
-137.56
-163.03
-189.38
-219.46
-256.22
-301.33
-353.70
-408.74
-458.70
-494.33
-507.49
-493.58
-452.94
-390.82
-316.04
-238.77
-168.01
-109.67
-65.54
-33.68
-9.87
10.20
28.80
44.99
55.08
54.54
40.75
14.92
-17.88
-50.85
-77.91
-95.74
-103.87
-103.37
-95.32
-80.48
-60.05
-37.14
-17.28
-7.07
-11.50
-31.07
-60.55
-90.38
-110.27
-113.19
-98.11
-70.05
-37.65
-9.40
9.82
20.45
27.71
38.78
59.19
89.87
126.64
162.38
190.80
209.87
222.69
235.22
252.40
274.78
297.80
313.89
316.16
301.45
271.29
230.57
185.07
139.51
96.60
57.06
20.22
-15.61
-53.04
-95.22
-144.94
-203.11
-267.30
-331.40
-386.67
-424.27
-438.02
-426.40
-392.82
-344.20
-288.51
-232.40
-179.99
-132.92
-91.30
-54.47
-21.50
8.94
38.67
69.65
103.48
141.13
182.94
228.66
276.98
325.47
370.70
408.83
436.64
452.16
454.67
444.20
420.89
385.27
339.06
286.11
232.39
184.54
147.68
123.39
109.22
100.04
90.60
77.86
61.77
44.41
28.09
13.86
0.93
-12.39
-27.14
-42.76
-57.26
-68.49
-75.44
-78.86
-80.54
-82.07
-83.71
-84.32
-82.36
-76.89
-68.21
-57.49
-46.30
-36.57
-30.87
-32.40
-43.84
-65.40
-93.30
-119.96
-136.69
-137.45
-122.00
-96.36
-70.39
-53.60
-51.44
-63.79
-86.10
-111.80
-134.78
-150.67
-157.37
-155.12
-146.46
-135.97
-129.01
-129.91
-140.16
-157.61
-177.38
-193.93
-203.39
-204.79
-199.62
-190.08
-177.49
-161.64
-141.77
-118.00
-92.26
-67.83
-47.79
-33.46
-23.86
-16.44
-8.79
0.15
9.90
19.50
28.76
38.88
51.70
68.28
87.67
107.03
123.05
133.76
139.65
143.29
147.58
153.70
160.07
162.79
157.64
142.55
119.18
92.76
70.23
57.62
57.76
69.55
88.93
111.17
132.97
153.23
172.21
190.09
205.80
217.06
221.57
218.31
208.28
194.19
178.73
163.33
147.90
131.72
114.65
97.76
82.63
70.43
61.71
55.32
49.19
41.60
32.23
22.26
13.26
5.68
-1.06
-6.38
-9.57
-9.75
-6.39
0.11
8.33
16.09
20.56
20.37
18.12
16.30
15.69
14.83
11.69
6.37
1.77
1.56
10.12
33.15
72.38
125.18
185.74
247.56
305.91
357.88
400.44
407.80
363.37
265.50
130.92
-14.31
-148.12
-258.54
-335.88
-388.55
-424.46
-445.13
-450.66
-441.73
-420.78
-393.35
-363.58
-334.14
-307.46
-283.39
-258.57
-230.42
-198.32
-163.83
-129.54
-96.95
-65.98
-36.41
-6.87
24.59
57.68
90.10
118.33
139.32
152.16
157.90
158.35
156.57
156.39
160.88
171.59
187.67
205.66
220.62
227.74
224.07
210.37
190.72
170.19
152.57
138.80
127.24
115.24
100.93
84.21
66.96
51.80
40.62
33.68
29.72
26.79
23.50
19.49
15.54
12.71
11.40
10.90
9.59
5.97
-0.29
-8.04
-15.20
-19.91
-21.62
-21.48
-21.72
-24.55
-30.99
-40.35
-50.41
-58.37
-61.95
-60.33
-54.46
-46.62
-39.86
-37.01
-39.93
-48.88
-62.30
-77.11
-89.70
-97.01
-97.55
-91.64
-80.93
-67.42
-52.60
-37.18
-21.52
-6.20
7.51
17.80
22.79
21.17
12.76
-1.08
-17.37
-32.03
-41.15
-42.77
-38.21
-32.35
-32.30
-44.72
-72.79
-114.17
-160.89
-201.51
-224.67
-222.88
-194.93
-146.12
-86.31
-26.54
24.20
60.91
82.77
91.75
90.82
82.80
70.27
55.95
42.97
34.27
31.49
33.94
38.50
40.47
35.47
21.52
0.35
-22.86
-41.16
-48.64
-43.04
-26.84
-6.28
11.36
20.87
20.95
14.06
4.63
-3.41
-8.15
-9.79
-9.54
-8.30
-5.87
-1.26
6.56
17.70
30.84
43.41
52.33
54.94
49.96
37.91
20.85
1.91
-15.59
-28.84
-36.01
-36.53
-31.00
-20.88
-7.93
6.13
19.87
31.78
39.99
42.26
36.63
22.62
2.22
-20.14
-38.99
-49.82
-50.82
-43.37
-31.01
-17.61
-5.89
3.09
9.47
13.39
14.70
13.06
8.45
1.52
-6.55
-14.56
-21.81
-28.32
-35.06
-42.77
-51.34
-59.70
-66.23
-69.60
-69.53
-66.90
-63.30
-61.28
-62.66
-68.08
-76.86
-87.45
-97.98
-106.92
-113.33
-116.82
-118.67
-120.31
-122.88
-126.89
-132.05
-137.72
-143.54
-149.66
-149.51
-138.86
-115.95
-82.38
-42.50
-0.74
39.71
76.95
109.79
137.45
158.44
172.02
178.44
178.36
173.68
166.79
159.94
154.75
151.80
149.68
146.31
139.70
127.56
109.64
87.53
63.51
39.85
17.89
-2.63
-22.59
-43.14
-66.50
-93.67
-124.35
-156.87
-187.80
-212.18
-224.88
-222.12
-195.99
-150.59
-97.18
-48.92
-15.44
0.40
1.88
-4.84
-14.14
-22.99
-32.00
-41.70
-51.14
-58.41
-61.15
-58.16
-49.97
-38.43
-26.15
-16.32
-10.46
-8.02
-7.34
-6.41
-3.70
1.59
9.54
19.83
31.67
42.95
53.35
63.46
74.32
86.86
101.70
119.24
139.73
162.96
188.39
214.90
239.84
259.28
268.97
265.90
249.52
222.06
187.59
150.70
115.40
84.14
58.09
37.83
23.91
16.74
16.26
21.40
30.04
39.46
46.80
49.63
46.47
37.16
22.80
5.52
-12.08
-27.71
-39.90
-48.39
-53.68
-56.52
-57.25
-55.78
-51.96
-46.26
-40.06
-35.40
-34.16
-37.12
-43.47
-51.00
-56.98
-59.26
-57.04
-50.98
-42.68
-33.87
-25.66
-18.34
-11.62
-5.24
0.57
4.93
6.57
4.40
-1.92
-11.65
-23.01
-33.65
-41.25
-44.22
-42.16
-36.01
-27.73
-19.68
-13.87
-11.36
-12.12
-15.21
-19.26
-22.90
-25.06
-25.05
-22.66
-18.17
-12.46
-6.82
-2.55
-0.51
-0.74
-2.48
-4.57
-6.09
-6.59
-6.00
-4.14
-0.58
5.30
13.68
23.79
33.89
41.78
45.66
44.81
39.61
31.10
20.43
8.51
-3.89
-15.72
-25.51
-31.40
-31.62
-25.05
-11.90
6.20
26.14
43.75
54.70
55.56
44.91
24.03
-3.16
-31.19
-54.48
-68.91
-72.98
-67.81
-56.49
-42.81
-30.06
-20.20
-14.03
-11.39
-11.71
-14.49
-19.28
-25.70
-33.41
-42.13
-50.17
-55.81
-57.40
-53.78
-44.95
-31.84
-15.89
1.31
18.30
33.83
46.80
56.41
62.35
64.77
64.53
63.12
62.03
62.19
63.49
64.82
64.56
61.27
54.28
43.73
30.42
15.26
-1.39
-19.82
-40.78
-65.02
-91.43
-119.93
-150.11
-180.20
-206.42
-223.29
-225.28
-209.43
-177.37
-135.49
-93.26
-59.18
-37.59
-27.77
-25.36
-25.31
-24.24
-21.26
-16.85
-11.78
-5.88
1.91
12.43
25.46
39.37
51.81
60.40
64.16
63.32
59.33
54.22
49.74
46.81
45.28
44.25
42.61
40.09
36.99
34.32
33.41
35.50
41.49
51.99
67.66
86.57
107.79
130.01
151.30
169.07
180.72
184.49
180.09
168.81
152.88
135.01
117.07
100.02
84.09
69.33
55.87
43.86
33.26
23.64
14.52
5.33
-4.24
-13.99
-23.21
-30.89
-36.18
-38.77
-39.14
-38.25
-37.48
-37.92
-39.96
-43.08
-46.10
-47.87
-47.77
-46.12
-43.79
-41.91
-41.23
-41.84
-43.20
-44.44
-44.73
-43.50
-40.52
-35.72
-29.34
-21.93
-14.57
-8.78
-6.22
-8.09
-14.59
-24.51
-35.54
-44.92
-50.31
-50.46
-45.38
-35.95
-23.35
-8.58
7.58
24.21
39.72
51.67
57.26
54.39
42.79
24.56
3.68
-15.36
-29.23
-36.69
-38.50
-36.38
-31.86
-25.68
-18.12
-9.76
-2.00
3.26
4.46
1.40
-4.58
-11.09
-15.79
-17.32
-15.58
-11.41
-6.00
-0.37
4.74
8.80
11.44
12.48
11.95
10.13
7.33
3.83
-0.12
-4.11
-7.43
-9.18
-8.53
-5.32
-0.20
5.33
9.47
10.79
8.86
4.40
-0.99
-5.50
-7.75
-7.34
-4.79
-1.25
2.04
4.14
4.49
2.95
-0.34
-4.87
-9.88
-14.42
-17.64
-19.19
-19.16
-17.82
-15.14
-10.72
-4.31
3.60
11.40
16.89
18.37
15.70
10.45
5.04
1.45
0.08
-0.22
-1.24
-4.18
-8.84
-13.63
-16.44
-15.38
-9.46
0.96
14.04
26.50
34.28
33.69
22.91
2.69
-23.36
-49.76
-71.14
-83.86
-86.94
-81.81
-71.15
-57.76
-44.32
-32.90
-25.13
-22.26
-24.87
-32.58
-44.06
-57.44
-68.25
-73.12
-70.31
-60.28
-45.28
-27.93
-10.19
6.95
23.21
38.63
52.72
64.62
73.31
77.72
77.67
74.11
68.88
64.03
61.25
60.79
61.65
62.03
59.66
52.42
38.85
18.51
-7.33
-35.12
-59.44
-74.24
-73.41
-56.77
-29.52
-0.14
23.24
36.11
38.97
35.78
31.34
28.60
27.63
27.32
27.16
28.38
33.58
44.88
61.87
81.21
97.52
105.27
101.74
87.98
68.22
47.66
30.86
20.03
15.28
15.19
17.86
21.61
24.70
25.29
21.33
12.13
-1.29
-15.80
-27.60
-33.82
-33.91
-30.30
-25.18
-21.94
-22.38
-26.38
-29.56
-27.45
-17.21
0.77
22.79
44.35
59.84
69.52
75.38
79.29
81.59
81.10
76.85
67.47
52.49
32.49
9.60
-13.95
-36.31
-56.76
-75.76
-94.74
-115.63
-140.18
-169.82
-205.07
-245.72
-289.83
-333.31
-370.04
-393.41
-398.57
-384.12
-352.82
-310.21
-262.81
-215.93
-172.72
-134.45
-101.53
-74.38
-53.42
-38.69
-29.24
-23.02
-17.07
-7.94
7.43
30.79
61.56
96.53
130.68
158.88
177.80
187.30
190.17
190.86
193.40
200.20
211.39
225.23
238.74
248.52
251.83
247.74
237.77
225.54
215.13
208.65
204.84
199.58
187.91
166.50
135.13
96.53
54.71
13.62
-23.36
-53.10
-72.45
-78.58
-69.95
-47.07
-12.96
26.85
64.89
92.46
101.34
86.54
49.16
-2.39
-54.35
-92.53
-108.09
-100.91
-78.75
-52.83
-32.73
-23.14
-23.62
-30.44
-38.98
-45.11
-45.50
-38.22
-23.65
-5.14
11.45
20.22
18.30
7.85
-4.77
-11.91
-9.01
2.59
15.50
19.74
8.08
-19.66
-56.29
-90.90
-114.07
-122.10
-117.66
-106.79
-94.59
-82.47
-69.32
-54.90
-42.32
-36.98
-42.62
-57.60
-74.32
-82.44
-73.99
-47.40
-8.02
33.40
64.17
75.83
67.88
46.32
18.40
-10.78
-38.79
-64.48
-87.01
-105.39
-118.85
-127.38
-132.12
-135.39
-139.27
-144.85
-151.72
-158.41
-163.07
-164.19
-161.55
-156.33
-150.92
-147.58
-147.16
-148.65
-149.56
-146.84
-137.81
-123.29
-105.14
-86.09
-68.39
-52.84
-38.42
-22.97
-3.96
20.79
52.43
90.82
133.50
175.51
209.86
229.27
228.82
208.44
173.71
134.33
100.79
80.29
74.60
80.60
92.95
107.24
121.78
137.35
155.21
175.36
195.69
212.88
224.27
229.19
229.13
226.75
224.29
222.50
220.71
217.45
211.52
202.70
191.77
179.99
168.58
158.17
148.78
139.94
130.84
120.70
109.11
96.37
83.57
72.29
64.00
59.32
57.63
57.17
55.71
51.50
44.04
34.39
24.85
18.03
15.80
18.53
24.85
32.21
37.76
39.29
35.89
27.98
16.71
3.42
-11.03
-26.44
-43.19
-61.90
-83.26
-108.03
-136.86
-169.40
-203.26
-233.43
-253.37
-257.57
-244.79
-219.79
-192.25
-172.84
-168.02
-176.81
-190.89
-198.86
-191.65
-166.43
-127.11
-81.29
-36.38
3.17
35.93
62.01
81.07
92.32
95.56
92.59
87.26
83.60
83.34
84.35
81.65
69.09
41.95
-1.11
-57.44
-120.82
-182.67
-233.45
-264.50
-269.52
-247.27
-202.19
-142.60
-77.39
-12.67
49.31
109.06
167.26
223.33
273.65
312.84
336.09
341.28
329.67
304.83
271.40
228.81
179.75
129.59
85.19
52.26
33.35
27.75
32.41
43.59
57.71
72.64
86.63
98.27
106.78
111.95
114.21
113.91
111.52
107.45
102.58
97.27
91.18
83.19
71.55
57.15
40.38
21.94
2.86
-15.33
-31.59
-45.74
-58.58
-71.52
-85.93
-102.83
-121.99
-142.00
-160.45
-175.22
-185.33
-191.61
-196.76
-204.60
-219.29
-243.26
-275.68
-311.78
-344.17
-365.36
-370.72
-360.41
-339.22
-315.02
-295.44
-285.19
-284.56
-289.66
-293.22
-286.97
-264.49
-223.80
-169.25
-111.44
-64.82
-43.13
-54.35
-96.60
-158.35
-222.63
-272.87
-298.20
-295.52
-268.43
-224.04
-169.61
-109.95
-47.89
14.02
72.49
123.46
163.61
191.74
210.38
220.73
223.32
218.36
206.10
187.02
161.42
130.15
95.33
60.18
28.27
3.01
-13.80
-22.33
-24.29
-22.37
-19.05
-15.72
-12.34
-7.79
0.06
13.58
32.42
55.45
80.61
105.57
128.44
148.14
164.51
178.38
191.00
203.55
217.18
232.77
250.83
271.22
292.55
311.93
325.50
329.58
321.98
303.30
276.50
245.75
214.81
185.92
159.61
135.54
113.43
93.51
76.65
63.27
52.73
43.37
33.33
21.54
8.20
-5.28
-17.02
-25.27
-29.60
-31.11
-32.01
-34.63
-40.25
-48.55
-57.75
-65.44
-69.13
-67.44
-60.59
-50.30
-39.21
-30.19
-25.64
-27.13
-37.25
-56.07
-80.72
-105.99
-126.69
-139.88
-145.48
-145.02
-140.25
-132.43
-122.13
-110.40
-99.35
-91.76
-89.93
-94.38
-103.59
-114.89
-125.55
-133.64
-138.85
-142.46
-146.75
-154.10
-166.31
-183.98
-205.91
-228.84
-247.32
-255.46
-249.13
-227.87
-195.16
-157.08
-119.57
-85.76
-56.78
-30.96
-4.97
24.19
57.33
92.70
127.02
157.10
181.32
199.97
215.12
229.20
243.70
258.39
271.97
283.03
290.87
295.70
297.94
298.09
296.03
291.09
282.65
270.88
256.68
240.80
223.55
204.06
181.89
156.94
129.85
101.81
74.20
48.22
23.95
1.17
-21.26
-44.02
-68.36
-96.49
-131.05
-173.29
-220.79
-267.04
-301.07
-311.80
-290.46
-234.90
-150.65
-49.14
56.59
155.85
241.39
310.90
352.97
358.20
323.76
256.78
171.47
82.94
7.58
-54.04
-105.05
-149.86
-191.27
-230.66
-265.70
-292.28
-305.30
-300.06
-275.16
-232.12
-176.93
-117.31
-60.96
-13.28
23.13
48.31
63.98
71.61
73.31
70.68
65.78
60.66
57.10
55.84
56.76
59.03
60.96
61.55
60.11
56.84
52.46
47.81
43.02
37.48
30.14
19.89
6.83
-7.81
-21.80
-32.65
-38.48
-38.67
-33.84
-25.51
-15.55
-5.58
3.09
9.26
11.69
9.26
1.35
-11.51
-27.31
-42.87
-54.75
-60.49
-59.61
-53.67
-45.44
-37.62
-31.81
-28.17
-25.97
-24.27
-22.50
-20.63
-18.74
-16.79
-14.46
-11.42
-7.57
-3.22
1.05
4.70
7.41
9.20
10.20
10.38
9.46
7.04
2.89
-2.67
-8.70
-13.89
-17.09
-17.90
-16.80
-14.92
-13.31
-12.37
-11.60
-9.95
-6.53
-1.20
5.22
11.26
15.51
17.21
16.53
14.41
12.10
10.50
10.01
10.44
11.22
11.59
10.79
8.28
3.89
-2.05
-8.71
-14.89
-19.19
-20.50
-18.39
-13.31
-6.28
1.63
9.89
18.26
26.84
35.63
44.27
51.96
57.74
60.96
61.72
61.02
59.40
57.44
55.78
55.28
56.84
60.99
67.57
75.82
84.80
92.04
95.73
95.89
94.33
93.38
94.05
94.87
92.71
84.46
65.69
33.91
-9.92
-61.62
-115.56
-166.90
-213.38
-254.76
-291.69
-328.91
-371.85
-423.74
-483.87
-548.04
-610.30
-666.07
-712.56
-723.42
-680.38
-580.64
-440.11
-285.56
-140.68
-17.78
79.91
154.26
205.95
237.49
247.98
236.28
203.69
154.47
95.33
31.96
-30.57
-84.24
-119.89
-132.37
-122.53
-97.69
-73.64
-55.33
-42.93
-34.05
-25.07
-15.66
-7.74
-2.83
-0.34
2.77
11.15
26.76
48.86
75.06
101.47
124.09
141.05
153.24
163.71
176.77
194.81
218.26
245.78
273.90
297.36
310.95
311.49
299.66
280.57
261.03
247.08
241.38
241.87
242.83
238.30
225.58
206.88
188.26
175.65
171.42
173.08
174.74
170.54
158.00
138.84
117.33
97.05
78.30
58.13
32.70
0.28
-37.22
-74.88
-107.37
-131.36
-146.32
-153.39
-153.48
-146.07
-129.60
-103.24
-68.38
-29.42
7.53
36.89
55.70
64.47
66.32
65.01
63.05
61.11
58.00
52.27
44.07
35.82
31.43
34.29
45.39
62.78
83.13
102.79
119.76
134.43
148.70
164.27
180.98
196.49
207.32
211.05
206.42
193.67
174.24
149.90
122.21
92.29
61.14
26.34
-9.74
-41.65
-63.39
-71.37
-65.79
-49.92
-28.58
-6.56
11.80
25.28
34.26
40.16
44.53
48.18
50.93
51.24
46.73
36.83
21.67
1.55
-22.90
-50.12
-76.99
-98.79
-110.59
-109.35
-96.36
-76.76
-57.84
-45.73
-42.76
-46.76
-52.73
-55.78
-53.41
-47.55
-41.30
-36.45
-32.19
-26.14
-16.55
-3.83
9.43
19.70
20.92
9.71
-12.87
-41.80
-70.94
-96.13
-116.60
-134.33
-152.50
-178.69
-217.20
-266.87
-321.38
-372.92
-416.27
-450.40
-477.52
-501.30
-532.12
-577.72
-640.52
-716.17
-795.90
-869.80
-928.79
-965.80
-936.47
-820.20
-628.38
-402.22
-188.01
-14.22
112.94
200.94
260.97
302.02
321.24
319.02
298.97
269.46
240.21
217.85
204.17
197.43
194.31
187.15
170.44
143.75
111.85
81.39
57.19
40.73
30.94
25.57
19.40
9.22
-5.26
-21.16
-34.56
-42.77
-45.26
-43.07
-37.96
-33.08
-30.44
-30.39
-31.62
-32.17
-30.71
-26.94
-21.39
-14.96
-8.96
-4.17
-0.55
2.60
6.25
10.98
16.80
23.23
29.55
35.21
40.04
44.37
48.87
54.31
61.24
69.65
79.02
88.47
97.20
104.98
112.28
120.26
130.27
143.29
159.46
177.88
196.89
214.75
230.27
243.48
255.75
269.61
287.88
312.50
343.15
376.50
406.56
426.33
430.11
415.86
386.25
347.96
309.48
278.25
258.44
250.04
249.37
250.45
246.60
232.17
204.07
163.01
113.71
63.82
21.48
-7.49
-21.38
-22.68
-16.36
-7.58
0.13
5.16
6.95
4.87
-2.22
-15.28
-34.08
-56.57
-79.30
-98.40
-110.81
-114.96
-110.79
-99.47
-82.86
-63.12
-42.45
-22.91
-6.22
6.39
14.30
17.64
17.24
14.57
11.57
10.26
12.16
17.56
24.77
30.02
28.33
15.44
-9.85
-43.90
-78.61
-104.11
-112.62
-101.89
-76.16
-44.08
-14.71
6.11
17.41
21.95
23.46
24.26
24.41
22.65
18.16
11.66
5.35
1.78
2.42
6.86
13.00
17.99
19.56
17.05
11.60
5.62
1.61
1.02
3.53
7.23
9.62
8.75
4.19
-2.78
-9.77
-14.46
-15.58
-13.43
-9.63
-6.33
-5.21
-6.91
-10.94
-16.06
-20.94
-24.69
-26.97
-27.97
-28.20
-28.40
-29.31
-31.48
-34.97
-39.15
-42.79
-44.39
-42.80
-37.78
-30.09
-21.19
-12.71
-5.83
-1.03
1.84
3.24
3.61
3.20
2.15
0.54
-1.49
-3.74
-5.94
-7.84
-9.24
-10.00
-10.09
-9.61
-8.77
-7.92
-7.42
-7.58
-8.57
-10.35
-12.65
-15.11
-17.34
-19.13
-20.51
-21.63
-22.72
-23.92
-25.20
-26.39
-27.31
-27.80
-27.85
-27.53
-26.92
-26.04
-24.90
-23.49
-21.82
-19.95
-17.94
-15.92
-14.13
-12.95
-12.81
-13.98
-16.32
-19.16
-21.38
-21.81
-19.68
-15.11
-9.15
-3.63
-0.58
-1.58
-7.13
-16.34
-27.01
-36.16
-41.06
-40.05
-33.20
-22.18
-9.51
2.38
11.98
18.88
23.49
26.34
27.67
27.28
24.99
20.99
16.13
11.56
8.28
6.67
6.47
7.04
7.83
8.63
9.52
10.52
11.29
11.26
9.99
7.62
5.03
3.49
3.96
6.60
10.61
14.64
17.53
18.73
18.40
17.06
15.21
13.03
10.52
7.68
4.84
2.57
1.49
1.86
3.31
4.86
5.36
3.99
0.73
-3.56
-7.50
-9.76
-9.67
-7.52
-4.41
-1.76
-0.75
-1.88
-4.76
-8.40
-11.47
-12.87
-12.08
-9.29
-5.29
-1.17
2.11
3.91
3.99
2.44
-0.45
-4.29
-8.49
-12.35
-15.17
-16.52
-16.41
-15.30
-13.91
-12.83
-12.24
-11.85
-11.17
-9.93
-8.35
-7.09
-6.87
-8.01
-10.16
-12.42
-13.77
-13.58
-11.83
-9.09
-6.13
-3.61
-1.89
-1.05
-0.99
-1.53
-2.49
-3.62
-4.77
-5.98
-7.49
-9.60
-12.37
-15.39
-17.86
-18.92
-18.03
-15.24
-11.15
-6.59
-2.40
0.70
2.07
1.13
-2.43
-8.26
-15.14
-21.00
-23.54
-21.18
-13.70
-2.51
9.96
21.22
29.63
34.79
37.51
39.00
40.23
41.51
42.50
42.58
41.22
38.23
33.67
27.87
21.08
13.58
5.83
-1.26
-6.32
-7.90
-5.16
1.43
10.10
17.94
22.19
21.55
16.96
11.12
7.02
6.15
5.53
0.82
-11.83
-32.81
-57.88
-79.98
-93.14
-94.97
-87.27
-74.51
-61.13
-50.16
-42.78
-38.99
-38.47
-40.56
-43.44
-43.40
-35.83
-16.58
16.42
61.62
113.44
163.41
201.78
219.95
213.05
180.83
127.54
59.98
-14.26
-87.93
-152.39
-197.64
-216.28
-205.21
-167.50
-112.93
-56.86
-15.60
-0.66
-14.18
-48.68
-90.94
-127.43
-149.29
-154.13
-144.77
-126.18
-103.00
-78.04
-52.82
-29.21
-8.12
8.68
19.81
25.12
25.94
24.42
22.42
21.00
19.20
14.65
4.21
-14.52
-42.14
-77.13
-116.02
-153.50
-182.85
-197.23
-190.70
-160.10
-106.57
-36.30
40.26
109.73
158.97
180.56
176.07
155.68
133.21
119.44
117.01
119.45
115.40
95.47
57.77
8.66
-40.87
-81.15
-108.30
-124.51
-134.92
-143.30
-149.38
-149.49
-139.68
-119.01
-90.70
-60.73
-34.93
-17.01
-8.31
-9.22
-20.55
-43.91
-80.46
-129.09
-185.24
-241.34
-288.87
-320.81
-333.21
-325.33
-298.67
-255.97
-200.40
-135.16
-63.21
12.89
91.19
170.12
248.09
322.88
391.45
450.31
496.30
527.35
542.72
542.75
528.35
500.72
461.70
414.17
362.36
311.20
265.01
226.17
194.42
167.42
142.22
116.86
91.01
65.64
41.78
19.77
-0.86
-20.82
-40.27
-58.77
-75.85
-91.84
-108.21
-127.05
-150.18
-178.08
-209.35
-240.57
-266.78
-282.52
-283.37
-267.51
-236.85
-196.93
-155.47
-120.03
-95.68
-83.66
-81.55
-84.62
-87.67
-86.71
-79.92
-67.68
-52.05
-35.60
-20.21
-6.16
7.83
23.48
41.63
61.34
80.24
95.69
106.28
112.41
115.77
118.06
119.75
119.79
116.25
107.59
93.85
76.98
60.18
46.61
38.26
35.27
36.28
39.15
41.86
42.97
41.72
37.85
31.48
23.11
13.67
4.48
-3.11
-8.15
-10.37
-10.16
-8.12
-4.75
-0.27
5.09
10.87
16.21
20.12
21.92
21.54
19.51
16.65
13.57
10.43
6.92
2.67
-2.42
-7.89
-12.84
-16.17
-17.04
-15.14
-10.86
-5.13
0.90
6.21
10.14
12.53
13.67
14.05
14.13
14.21
14.32
14.38
14.31
14.11
13.91
13.95
14.48
15.70
17.67
20.18
22.78
24.82
25.80
25.57
24.52
23.42
23.12
24.11
26.37
29.53
33.00
36.04
37.54
35.83
28.85
14.96
-6.03
-32.10
-59.21
-82.30
-96.92
-100.57
-93.19
-76.69
-53.89
-27.58
-0.20
25.85
47.76
62.19
66.10
58.06
39.18
13.14
-15.08
-41.02
-62.25
-78.45
-90.15
-97.22
-98.13
-91.00
-75.52
-54.37
-32.96
-17.23
-10.85
-13.48
-21.16
-28.49
-31.20
-27.71
-19.13
-7.94
3.46
13.61
22.00
28.61
33.41
36.17
36.53
34.08
28.63
20.38
10.23
-0.26
-9.13
-14.66
-16.08
-13.95
-9.97
-6.25
-4.47
-5.25
-8.08
-11.72
-14.90
-16.76
-16.94
-15.38
-12.10
-7.26
-1.43
4.28
8.35
9.44
7.08
2.01
-4.09
-9.39
-12.74
-13.94
-13.43
-11.62
-8.54
-3.90
2.15
8.62
13.60
14.95
11.19
2.32
-10.08
-23.33
-34.49
-41.40
-42.99
-39.25
-31.03
-19.80
-7.46
3.74
11.53
14.06
10.27
0.58
-13.05
-27.69
-40.39
-49.14
-53.25
-53.26
-50.39
-46.42
-42.92
-40.90
-40.76
-42.23
-44.68
-47.57
-50.93
-53.35
-54.45
-54.13
-51.95
-47.10
-38.74
-26.99
-13.21
0.50
12.43
21.70
28.70
34.29
38.68
41.36
41.43
38.44
33.03
26.98
22.17
20.08
20.99
23.42
25.06
23.11
14.82
-1.76
-26.81
-58.17
-90.86
-116.48
-127.80
-121.31
-99.13
-68.55
-39.04
-18.09
-8.63
-8.40
-11.87
-14.17
-12.72
-7.37
0.77
10.43
20.72
30.04
35.78
34.87
25.33
8.16
-12.35
-30.02
-39.47
-38.07
-26.94
-9.83
9.03
26.48
41.19
53.17
62.88
68.41
69.06
65.05
57.55
48.36
39.08
30.79
23.90
18.29
13.48
9.13
4.63
-0.52
-6.33
-12.01
-16.10
-16.99
-13.62
-5.93
5.66
20.28
37.05
55.18
73.69
91.04
105.35
114.81
118.55
117.09
112.03
105.39
98.82
93.25
88.76
84.98
81.26
76.96
71.53
64.53
55.78
45.52
34.57
24.16
15.52
9.50
6.18
4.96
4.77
4.52
3.51
1.63
-0.76
-3.12
-5.06
-6.57
-8.02
-9.96
-12.97
-17.50
-23.94
-32.56
-43.25
-55.24
-66.90
-75.83
-79.57
-76.48
-66.44
-50.96
-32.61
-13.94
3.34
18.51
31.17
40.38
44.36
41.14
29.80
11.66
-9.71
-29.74
-44.64
-52.84
-55.19
-53.89
-50.99
-47.43
-43.06
-37.45
-30.78
-24.02
-18.44
-14.82
-12.91
-11.56
-9.33
-5.21
0.96
8.40
15.77
21.62
24.92
25.31
23.16
19.23
14.48
9.70
5.44
2.03
-0.36
-1.82
-2.80
-4.02
-6.16
-9.44
-13.21
-16.15
-16.70
-13.91
-7.92
-0.09
7.45
12.65
14.22
12.01
6.89
0.41
-5.80
-10.56
-13.39
-14.56
-14.77
-14.65
-14.44
-14.12
-13.42
-12.32
-11.21
-10.91
-12.19
-15.35
-19.80
-24.10
-26.87
-27.03
-24.21
-18.88
-12.20
-5.75
-1.22
0.01
-2.75
-9.81
-20.49
-33.17
-45.82
-56.55
-64.36
-69.32
-72.17
-73.68
-75.01
-76.91
-79.68
-83.40
-88.01
-93.61
-100.65
-109.73
-116.54
-117.60
-110.55
-95.02
-72.44
-45.17
-15.92
12.18
36.29
54.70
66.78
73.68
77.51
80.44
83.55
86.36
87.01
83.41
73.84
56.76
31.62
-0.48
-36.11
-69.57
-92.10
-97.53
-84.90
-59.14
-29.32
-4.65
9.28
12.27
8.42
3.13
-0.17
-0.76
0.38
2.54
6.17
12.80
23.95
40.01
59.99
81.64
102.55
120.99
136.19
147.39
153.50
153.34
146.18
132.37
113.47
92.19
69.56
48.06
29.47
14.55
3.30
-4.59
-9.49
-11.94
-12.77
-13.07
-13.61
-15.07
-17.53
-20.50
-23.09
-24.63
-24.96
-24.48
-23.77
-22.98
-22.03
-20.52
-17.96
-14.18
-9.52
-4.80
-1.03
1.09
1.63
1.17
0.67
0.99
2.61
5.40
8.69
11.59
13.30
13.49
12.25
10.04
7.52
5.36
4.01
3.64
4.14
5.20
6.51
7.83
9.02
10.00
10.75
11.23
11.39
11.29
11.04
10.80
10.73
10.88
11.21
11.68
12.24
12.87
13.64
14.58
15.67
16.89
18.13
19.34
20.49
21.63
22.76
23.82
24.62
24.93
24.60
23.74
22.73
22.12
22.24
22.88
23.06
21.43
16.97
9.74
1.09
-6.85
-12.10
-13.74
-12.27
-9.35
-7.01
-6.81
-9.25
-13.74
-19.07
-23.84
-26.94
-27.85
-26.76
-24.42
-21.80
-19.55
-17.78
-16.53
-15.55
-14.30
-12.05
-8.43
-4.35
-2.75
-8.38
-26.30
-59.75
-106.63
-157.97
-199.84
-218.49
-206.42
-165.80
-107.34
-45.52
6.24
40.95
59.26
67.09
71.15
74.60
76.12
71.64
57.08
28.67
-14.90
-71.91
-137.56
-204.74
-265.12
-309.61
-329.20
-308.09
-239.57
-132.76
-12.87
89.87
154.85
177.75
167.73
139.77
107.73
79.53
59.25
49.93
54.27
74.53
108.80
149.59
185.99
207.82
208.72
188.94
154.88
115.96
80.77
53.80
34.87
21.42
11.31
3.02
-3.48
-7.01
-5.95
0.77
12.68
27.59
43.24
58.30
72.28
85.35
97.64
108.93
118.71
126.60
131.63
133.82
134.11
133.82
133.85
134.24
134.49
134.01
132.21
126.24
112.70
88.74
53.59
9.51
-38.70
-85.21
-125.39
-157.65
-186.33
-217.70
-256.33
-302.47
-351.94
-398.63
-437.44
-466.12
-469.69
-439.21
-374.29
-284.84
-186.33
-92.13
-9.90
57.87
111.64
153.60
184.36
204.97
217.48
224.40
228.44
230.79
232.15
232.35
231.29
227.49
220.02
208.94
194.64
178.03
159.79
140.36
120.06
99.55
77.99
53.58
27.96
0.94
-27.83
-58.79
-92.27
-128.68
-168.23
-211.05
-255.55
-297.48
-330.58
-348.12
-346.12
-326.11
-295.49
-264.19
-240.67
-228.61
-226.40
-230.83
-240.17
-255.09
-276.40
-301.69
-322.93
-329.17
-311.98
-269.43
-208.41
-141.95
-83.32
-40.14
-12.85
4.79
20.88
41.52
71.03
110.40
156.38
201.49
235.70
248.24
234.01
195.12
141.39
89.87
57.68
54.80
80.74
126.28
177.16
222.69
257.03
265.84
240.45
181.92
100.61
10.14
-69.96
-137.94
-193.28
-234.86
-261.69
-274.95
-276.20
-269.38
-259.57
-250.69
-245.15
-240.65
-233.18
-218.50
-192.85
-154.93
-107.05
-53.88
0.15
51.62
100.70
149.46
201.44
259.36
323.29
389.95
454.36
512.19
560.08
596.23
619.70
631.91
633.75
624.89
603.65
568.47
519.57
458.58
387.89
312.11
240.93
184.94
153.02
149.35
172.53
216.73
272.80
329.57
354.27
325.98
243.25
125.82
1.15
-110.57
-200.73
-262.16
-302.78
-327.41
-334.00
-320.18
-286.78
-239.31
-188.86
-145.53
-116.66
-106.54
-113.38
-129.17
-145.19
-155.42
-158.49
-156.69
-153.24
-150.89
-152.11
-157.08
-163.43
-168.87
-171.88
-171.81
-168.02
-158.54
-140.31
-110.62
-67.45
-11.11
53.51
117.13
168.37
197.56
200.71
180.70
145.58
105.59
69.27
40.77
19.76
3.23
-11.97
-27.17
-41.56
-53.15
-60.06
-61.65
-58.87
-53.61
-47.88
-42.98
-39.21
-36.22
-33.68
-31.73
-31.02
-32.27
-35.63
-40.35
-44.95
-47.79
-47.83
-44.99
-40.07
-34.32
-28.92
-24.55
-21.31
-18.81
-16.51
-13.99
-11.17
-8.36
-6.06
-4.74
-4.51
-5.15
-6.13
-6.87
-6.99
-6.44
-5.43
-4.32
-3.39
-2.78
-2.46
-2.34
-2.35
-2.51
-2.95
-3.80
-5.14
-6.92
-8.98
-11.12
-13.19
-15.10
-16.86
-18.44
-19.79
-20.81
-21.42
-21.68
-21.74
-21.88
-22.36
-23.32
-24.66
-26.18
-27.63
-28.89
-29.99
-31.06
-32.26
-33.65
-35.09
-36.40
-37.36
-37.93
-38.26
-38.65
-39.47
-40.99
-43.29
-46.18
-49.22
-51.76
-53.08
-52.47
-49.48
-44.00
-36.34
-27.25
-17.67
-8.64
-0.96
4.83
8.58
10.39
10.61
9.71
8.19
6.57
5.26
4.52
4.43
4.87
5.55
6.17
6.49
6.42
6.10
5.75
5.59
5.71
6.01
6.26
6.15
5.47
4.12
2.22
0.02
-2.18
-4.11
-5.59
-6.59
-7.24
-7.77
-8.48
-9.56
-11.10
-12.97
-14.97
-16.88
-18.57
-20.06
-21.52
-23.15
-25.12
-27.43
-29.91
-32.20
-33.86
-34.42
-33.55
-31.10
-27.17
-22.07
-16.32
-10.46
-5.01
-0.35
3.32
5.98
7.69
8.56
8.74
8.41
7.85
7.34
7.15
7.41
8.09
9.01
9.92
10.64
11.10
11.36
11.47
11.48
11.35
11.04
10.52
9.83
9.03
8.14
7.12
5.87
4.27
2.25
-0.22
-3.09
-6.25
-9.57
-12.95
-16.27
-19.44
-22.33
-24.77
-26.49
-27.06
-26.04
-23.08
-18.12
-11.53
-4.10
3.12
9.18
13.47
15.87
16.81
17.03
17.40
18.68
21.35
25.46
30.65
36.26
41.49
45.71
48.65
50.44
51.41
51.81
51.55
50.22
47.33
42.63
36.25
28.63
20.24
11.43
2.45
-6.28
-14.10
-20.16
-23.72
-24.58
-23.19
-20.48
-17.52
-15.12
-13.72
-13.49
-14.45
-16.47
-19.09
-21.40
-22.08
-19.85
-13.96
-4.79
6.08
16.30
23.65
26.90
26.34
23.49
20.25
17.94
16.72
15.70
13.67
9.94
4.77
-0.76
-5.46
-8.86
-11.51
-14.75
-20.00
-27.93
-38.21
-49.55
-60.39
-69.49
-76.37
-81.22
-84.61
-87.00
-88.47
-88.67
-87.14
-83.55
-77.93
-70.69
-62.43
-53.70
-44.85
-36.10
-27.63
-19.70
-12.60
-6.60
-1.65
2.64
6.90
11.62
16.72
21.45
24.64
25.32
23.42
20.03
17.00
16.08
17.93
21.70
25.44
27.20
26.02
22.40
17.61
12.70
7.64
1.50
-6.55
-16.20
-25.61
-32.31
-34.80
-33.81
-32.23
-33.59
-39.85
-49.93
-59.94
-64.95
-61.44
-48.91
-30.05
-9.37
8.77
21.75
29.09
31.92
31.88
30.25
27.72
24.69
21.71
19.66
19.56
22.14
27.48
34.92
43.25
51.09
57.21
60.78
61.43
59.27
54.85
49.10
43.13
38.00
34.33
32.15
30.90
29.85
28.43
26.59
24.70
23.26
22.55
22.36
22.04
20.87
18.43
14.80
10.51
6.22
2.41
-0.79
-3.62
-6.44
-9.58
-13.15
-17.14
-21.44
-25.98
-30.70
-35.46
-39.82
-42.94
-43.77
-41.39
-35.50
-26.67
-16.24
-5.75
3.71
11.89
19.22
26.26
33.02
38.75
42.20
42.42
39.34
33.99
28.07
23.24
20.43
19.58
19.93
20.51
20.64
20.14
19.29
18.57
18.41
18.95
20.08
21.56
23.04
24.22
24.85
24.70
23.63
21.75
19.43
17.34
16.19
16.41
17.88
19.93
21.66
22.44
22.23
21.60
21.34
21.95
23.24
24.35
24.22
22.17
18.24
13.24
8.31
4.42
1.94
0.48
-0.89
-3.22
-7.19
-12.67
-18.70
-23.71
-26.02
-24.43
-18.60
-9.15
2.62
15.19
27.21
37.77
46.37
52.88
57.53
60.93
63.88
67.06
70.54
73.61
74.99
73.49
68.77
61.77
54.41
48.77
46.08
46.16
47.50
48.16
46.75
43.06
37.90
32.37
26.93
20.96
13.05
2.05
-12.00
-27.53
-41.91
-52.67
-58.48
-59.68
-57.76
-54.46
-50.98
-47.90
-45.58
-44.67
-46.18
-50.96
-58.98
-69.08
-79.33
-87.93
-94.04
-98.05
-101.17
-104.47
-108.23
-111.72
-113.81
-113.81
-111.98
-109.45
-107.40
-106.27
-105.27
-102.84
-97.50
-88.93
-78.35
-68.20
-61.21
-59.26
-62.68
-70.21
-79.44
-87.59
-92.19
-91.38
-84.11
-70.23
-50.62
-27.24
-3.09
18.41
34.28
43.00
45.22
43.46
41.19
41.29
44.77
50.42
55.55
57.42
54.55
47.22
37.08
26.28
16.50
8.66
3.02
-0.44
-1.64
-0.51
2.71
7.12
11.24
13.47
12.85
9.77
6.03
4.14
6.26
13.00
22.96
33.21
40.37
42.09
37.78
28.75
17.62
7.42
0.78
-0.61
3.77
13.34
26.90
42.63
58.59
73.21
85.64
95.77
103.88
110.31
115.18
118.93
121.79
124.01
125.96
128.24
131.36
135.41
139.88
143.85
147.31
150.46
153.78
157.88
163.08
169.03
174.64
178.47
179.38
177.79
173.90
167.02
155.41
136.96
110.48
76.54
37.63
-7.86
-56.47
-102.14
-138.78
-163.32
-176.18
-179.61
-176.05
-167.55
-156.14
-142.78
-128.82
-115.48
-103.68
-93.45
-83.98
-74.31
-63.98
-53.54
-43.30
-34.07
-26.22
-19.82
-14.23
-8.45
-2.06
4.40
8.90
9.44
4.29
-6.75
-22.65
-41.19
-59.80
-76.79
-90.00
-100.43
-109.49
-120.71
-133.74
-147.57
-161.25
-173.63
-182.66
-184.85
-176.31
-154.57
-121.15
-81.77
-45.14
-18.78
-5.27
-1.30
0.14
6.87
21.99
42.20
60.35
69.95
69.41
62.30
54.00
48.04
44.23
39.73
31.72
19.69
5.53
-7.70
-17.23
-21.97
-22.89
-22.16
-22.26
-24.76
-29.55
-35.22
-39.79
-41.88
-41.19
-38.81
-36.74
-37.05
-40.93
-48.17
-57.28
-66.19
-73.07
-77.17
-78.66
-78.73
-78.97
-80.56
-83.78
-87.84
-91.25
-92.63
-91.32
-87.49
-82.35
-77.57
-74.48
-73.31
-72.92
-70.90
-64.26
-52.95
-36.89
-16.97
4.54
23.84
35.95
36.08
21.67
-5.53
-38.93
-68.11
-82.58
-75.21
-44.46
5.61
67.15
131.06
189.21
235.58
266.92
282.23
282.64
271.04
251.45
228.05
204.31
182.58
164.25
150.16
140.26
133.69
128.82
123.82
117.38
109.44
101.23
94.51
90.83
90.53
92.67
95.49
97.17
96.59
93.54
88.54
82.28
75.18
67.21
58.03
47.41
35.49
22.94
10.67
-0.43
-9.99
-18.36
-26.51
-35.64
-46.56
-59.29
-72.90
-85.81
-96.30
-103.19
-105.99
-104.88
-100.37
-92.99
-83.23
-71.70
-59.39
-47.48
-37.12
-28.84
-22.25
-16.28
-9.73
-2.05
6.33
14.12
19.77
22.09
20.91
17.25
13.00
10.26
10.59
14.51
21.47
30.15
38.82
46.28
52.19
57.08
61.71
66.23
69.86
71.67
71.62
70.91
72.13
77.71
88.00
100.26
108.96
108.00
93.68
66.23
28.83
-13.49
-55.68
-93.31
-121.93
-136.82
-133.45
-108.86
-63.71
-3.79
58.27
107.04
130.44
126.37
103.11
73.17
46.03
28.35
15.94
3.25
-12.64
-30.99
-48.32
-60.84
-67.11
-67.30
-63.42
-58.89
-55.98
-55.08
-54.92
-53.53
-49.79
-44.28
-38.72
-35.03
-34.60
-36.87
-39.93
-41.51
-39.99
-35.22
-28.58
-22.05
-17.42
-15.74
-16.59
-18.59
-20.23
-20.45
-19.08
-16.78
-14.45
-12.87
-12.45
-12.91
-13.68
-14.18
-14.06
-13.27
-12.04
-10.66
-9.43
-8.54
-8.00
-7.71
-7.52
-7.32
-7.05
-6.75
-6.43
-6.19
-6.12
-6.27
-6.59
-6.99
-7.31
-7.46
-7.40
-7.23
-7.07
-7.05
-7.24
-7.67
-8.31
-9.11
-9.97
-10.81
-11.53
-12.01
-12.19
-12.14
-11.98
-11.85
-11.86
-12.01
-12.24
-12.43
-12.46
-12.27
-11.93
-11.56
-11.30
-11.18
-11.08
-10.77
-10.08
-9.00
-7.68
-6.50
-5.74
-5.45
-5.42
-5.34
-4.98
-4.34
-3.64
-3.22
-3.76
-5.85
-9.92
-15.92
-23.09
-29.99
-34.75
-35.61
-31.54
-23.37
-13.10
-3.28
3.98
7.72
8.29
6.82
4.67
2.86
0.73
-2.95
-9.47
-19.48
-32.58
-47.61
-63.12
-77.89
-91.02
-103.25
-115.48
-128.49
-142.77
-158.71
-177.05
-199.02
-225.82
-248.75
-259.05
-249.27
-217.21
-167.42
-108.72
-49.86
3.17
47.96
84.75
113.59
134.52
147.36
152.41
150.97
145.43
138.65
133.15
130.61
130.42
130.86
129.83
125.88
118.84
110.03
101.61
95.62
93.42
94.35
96.51
97.33
94.53
86.98
75.10
60.36
44.46
28.68
13.10
-3.05
-20.78
-39.65
-59.79
-81.01
-102.82
-124.11
-142.49
-154.18
-154.73
-140.87
-112.68
-74.60
-34.23
0.33
23.43
33.68
33.73
28.20
21.36
15.58
11.10
7.30
3.78
0.78
-0.83
0.01
4.11
11.58
21.50
32.14
41.72
48.98
53.44
54.79
52.06
43.08
25.45
-1.51
-34.88
-67.99
-92.73
-103.11
-98.17
-82.13
-62.10
-44.36
-31.71
-23.30
-16.63
-10.14
-4.58
-2.25
-5.20
-13.78
-26.36
-40.25
-53.00
-63.49
-71.95
-79.36
-86.75
-94.36
-101.73
-107.99
-112.05
-113.03
-110.33
-103.67
-92.87
-79.48
-64.28
-47.65
-29.57
-9.73
12.28
36.78
64.01
94.21
127.69
164.81
204.93
245.73
283.01
311.49
326.53
325.87
310.67
285.01
254.39
223.56
195.18
169.85
147.08
126.47
108.18
92.71
80.13
69.77
60.24
50.11
38.71
26.39
14.30
3.80
-4.22
-9.63
-12.97
-15.12
-16.89
-18.72
-20.59
-22.12
-22.86
-22.50
-20.92
-18.19
-14.42
-9.56
-3.36
4.62
14.81
27.44
42.31
58.80
75.90
92.59
107.94
121.30
132.17
140.10
144.64
145.33
142.04
135.13
125.64
115.10
105.17
97.06
91.28
87.67
85.72
84.82
84.16
82.44
77.70
67.73
50.94
27.36
-0.97
-30.51
-57.60
-79.81
-96.77
-109.85
-121.10
-132.24
-143.98
-156.06
-167.59
-177.40
-184.24
-187.13
-185.66
-180.45
-173.14
-165.95
-160.77
-158.39
-158.33
-159.14
-158.91
-155.75
-148.03
-134.62
-115.35
-91.73
-67.37
-47.56
-37.90
-42.38
-61.71
-92.96
-130.68
-169.10
-204.37
-235.76
-265.42
-296.71
-331.91
-370.38
-408.01
-438.35
-454.96
-453.92
-435.37
-403.40
-364.29
-324.19
-287.17
-254.60
-225.90
-199.71
-174.97
-151.22
-128.30
-105.73
-82.50
-57.38
-29.43
1.48
34.65
69.18
104.67
141.76
181.74
225.28
271.12
315.38
352.28
376.07
383.40
374.74
354.27
328.16
302.25
280.20
262.99
249.60
238.43
228.42
219.36
211.48
204.85
199.02
193.08
186.08
177.32
166.59
153.90
138.98
121.35
101.02
79.55
60.39
48.29
47.49
59.76
83.49
113.57
143.37
167.30
182.74
190.31
192.59
192.26
190.80
188.82
185.85
181.20
174.49
165.78
155.18
142.78
128.94
114.64
102.04
92.52
85.55
78.27
66.45
46.21
15.85
-23.18
-70.07
-118.59
-160.21
-187.98
-199.55
-197.15
-185.22
-167.71
-147.13
-124.85
-101.10
-76.46
-52.14
-29.40
-9.16
7.87
21.31
31.18
37.08
38.72
35.79
28.74
19.59
11.63
7.39
7.42
9.57
9.68
3.83
-10.18
-32.38
-61.53
-92.38
-121.36
-146.29
-166.26
-181.04
-190.74
-196.05
-198.12
-198.09
-196.22
-192.40
-186.12
-177.91
-169.68
-163.98
-162.38
-163.79
-164.14
-157.68
-139.92
-108.94
-65.66
-12.50
48.15
114.28
183.15
250.04
307.89
348.81
367.88
366.14
351.19
334.49
326.33
331.06
345.37
360.49
366.85
358.89
337.25
307.43
276.27
248.45
224.98
204.20
183.96
163.48
143.62
125.82
110.57
96.57
81.16
61.67
36.78
7.27
-24.29
-54.77
-81.90
-105.15
-125.91
-146.66
-169.79
-196.54
-226.55
-258.32
-289.92
-320.06
-348.62
-376.67
-406.17
-439.52
-478.75
-524.63
-575.82
-628.52
-676.99
-714.78
-736.61
-739.70
-724.34
-693.34
-650.79
-600.82
-546.92
-491.87
-437.93
-387.06
-340.67
-299.43
-263.07
-230.60
-200.75
-172.47
-145.20
-118.91
-94.03
-71.25
-51.12
-33.86
-19.28
-6.78
4.37
14.81
24.83
34.27
42.60
49.26
53.84
56.45
57.71
58.65
60.36
63.62
68.63
74.93
81.67
88.03
93.59
98.64
104.11
111.20
120.85
133.36
148.15
164.16
180.21
195.55
210.13
224.58
239.86
257.23
278.05
303.55
334.22
368.76
403.38
432.12
448.54
448.22
430.72
399.68
360.99
320.02
279.42
238.99
197.18
153.13
107.74
63.20
21.45
-17.02
-52.98
-87.15
-118.66
-144.54
-160.79
-164.25
-154.27
-133.20
-105.40
-75.44
-46.62
-20.06
4.91
29.76
55.90
84.25
115.39
149.52
185.93
222.00
252.70
271.21
271.01
248.64
205.58
148.23
85.81
27.26
-21.19
-56.96
-80.27
-92.69
-95.94
-91.54
-81.17
-66.86
-50.69
-34.20
-17.86
-1.13
16.99
37.18
59.01
80.61
98.81
109.82
110.28
98.52
75.46
44.81
12.11
-17.00
-38.72
-52.21
-59.34
-63.72
-68.76
-76.36
-86.21
-95.82
-101.29
-98.41
-84.30
-59.27
-28.01
0.85
17.42
14.44
-9.24
-47.57
-89.45
-123.32
-141.51
-142.28
-128.83
-105.86
-76.41
-40.61
2.79
53.54
107.58
157.45
195.17
216.05
220.96
215.65
207.78
202.90
202.23
202.83
200.17
191.16
176.11
158.37
142.35
131.11
125.20
123.00
121.96
120.01
116.16
110.89
105.70
102.16
101.09
102.35
105.34
108.97
112.24
114.17
114.77
114.60
114.31
114.08
113.68
113.71
114.75
117.33
120.60
123.85
126.03
126.00
122.57
115.55
107.49
101.69
100.86
104.44
111.03
118.40
124.34
126.53
123.56
116.76
107.63
96.74
81.57
60.83
34.71
5.33
-24.92
-63.31
-111.80
-167.96
-215.01
-248.66
-270.09
-285.66
-299.34
-315.14
-336.34
-362.91
-392.51
-420.49
-442.68
-453.01
-446.44
-418.73
-372.79
-318.11
-265.20
-221.39
-186.10
-157.29
-131.59
-107.29
-83.19
-59.16
-34.42
-5.90
29.72
73.79
122.65
169.90
207.76
230.18
234.33
222.23
200.18
175.47
153.06
133.37
114.47
94.44
73.54
53.84
38.10
27.95
22.56
18.94
13.31
3.58
-9.85
-24.71
-38.74
-51.15
-63.07
-76.71
-94.00
-115.47
-139.59
-163.14
-182.04
-192.43
-191.13
-176.25
-147.07
-104.32
-50.81
8.42
66.54
116.35
152.12
171.41
174.80
165.91
149.95
132.07
116.09
104.06
96.56
93.35
94.08
97.35
101.76
105.93
108.29
106.88
99.08
82.04
53.71
13.86
-37.15
-97.24
-163.03
-230.33
-294.83
-352.87
-401.96
-441.10
-460.79
-454.52
-420.48
-363.25
-292.15
-217.12
-145.43
-80.93
-24.99
22.53
61.00
90.12
110.25
122.58
128.97
131.56
132.48
133.42
135.61
138.67
141.57
143.14
142.68
140.18
136.22
131.66
126.93
122.32
117.09
110.26
101.05
89.42
76.20
62.86
51.12
41.81
35.17
30.31
25.66
19.59
11.13
0.31
-11.83
-23.86
-35.09
-45.41
-55.77
-67.82
-83.53
-104.85
-133.42
-170.47
-211.54
-252.67
-289.13
-316.37
-331.30
-332.96
-322.21
-300.80
-270.29
-231.60
-186.15
-135.97
-84.09
-34.26
9.83
44.96
68.56
78.65
74.27
55.80
26.40
-8.05
-40.52
-65.36
-79.91
-85.15
-84.05
-79.51
-73.22
-65.20
-55.31
-45.40
-39.95
-44.80
-64.22
-97.53
-138.22
-176.12
-201.03
-206.71
-193.49
-167.37
-136.49
-107.66
-83.49
-62.95
-43.88
-25.03
-6.00
12.39
29.33
45.01
59.64
74.86
91.96
110.63
129.07
146.37
161.25
172.88
181.31
185.72
188.29
191.88
198.20
207.76
223.05
245.57
276.14
314.49
356.02
398.58
440.10
477.53
508.04
532.77
552.51
567.21
575.87
573.45
560.98
542.94
524.48
483.13
405.49
288.57
142.79
12.82
-90.07
-165.13
-214.44
-248.32
-270.80
-280.07
-274.29
-252.80
-216.96
-174.01
-127.54
-80.18
-35.54
2.57
32.49
52.59
62.11
61.56
49.58
29.17
4.37
-22.05
-48.23
-71.80
-91.05
-104.75
-112.49
-116.95
-119.45
-120.90
-122.22
-123.42
-123.35
-120.86
-115.19
-106.51
-96.79
-87.36
-79.09
-72.54
-67.68
-63.98
-60.89
-57.96
-54.94
-52.16
-49.64
-47.27
-45.01
-42.77
-40.55
-38.36
-36.16
-33.92
-31.67
-29.52
-27.62
-26.12
-25.10
-24.49
-24.13
-23.84
-23.43
-22.86
-22.12
-21.34
-20.62
-20.07
-19.68
-19.41
-19.14
-18.83
-18.48
-18.15
-17.91
-17.79
-17.74
-17.65
-17.46
-17.15
-16.88
-16.83
-17.18
-17.97
-19.09
-20.32
-21.43
-22.31
-23.01
-23.72
-24.71
-26.19
-28.23
-30.77
-33.57
-36.28
-38.44
-39.49
-38.88
-36.24
-31.54
-25.22
-18.06
-11.00
-4.81
0.11
3.83
6.73
9.17
11.29
12.98
13.96
14.07
13.38
12.21
11.01
10.16
9.82
9.88
10.09
10.27
10.38
10.53
10.80
11.16
11.50
11.63
11.24
10.22
8.86
7.85
7.95
9.58
12.57
16.40
20.18
22.74
23.33
21.72
18.09
12.85
6.33
-1.03
-8.00
-13.21
-15.72
-14.89
-10.58
-2.94
7.79
21.19
36.63
53.61
70.07
81.96
84.42
73.23
46.37
5.16
-46.34
-102.24
-155.72
-195.23
-211.03
-198.01
-158.65
-102.24
-40.11
18.65
64.59
99.24
125.61
144.90
156.79
160.03
153.43
138.45
116.81
90.84
63.70
37.18
11.41
-14.56
-42.17
-72.53
-106.21
-143.77
-185.64
-231.27
-279.23
-325.85
-364.44
-386.80
-386.04
-359.85
-312.31
-252.58
-191.04
-136.11
-91.81
-57.93
-32.22
-12.71
1.37
10.17
14.57
16.80
19.34
23.50
28.77
33.17
34.66
32.56
28.11
23.79
22.04
23.94
28.86
34.84
39.50
40.90
38.01
30.84
20.38
8.32
-3.17
-11.84
-15.90
-14.75
-9.47
-2.85
1.40
-0.01
-8.52
-23.03
-40.26
-56.13
-67.47
-73.11
-73.84
-71.49
-67.75
-63.43
-58.76
-54.03
-50.32
-49.52
-53.60
-63.63
-79.14
-98.21
-118.24
-136.86
-152.47
-164.21
-171.46
-173.32
-168.59
-156.08
-135.34
-107.19
-73.79
-38.23
-3.70
27.30
53.53
75.22
93.85
111.74
131.58
156.00
187.15
226.06
271.82
321.13
368.54
407.73
433.55
443.89
440.39
427.66
411.20
395.21
381.48
369.62
358.35
346.91
335.53
324.96
315.50
306.38
295.95
282.62
265.98
247.23
228.96
214.13
204.85
201.44
202.16
203.49
201.04
190.73
169.95
138.37
98.06
52.82
7.04
-35.68
-73.34
-105.59
-133.05
-156.41
-175.85
-191.17
-202.39
-210.40
-217.22
-225.59
-238.46
-258.43
-287.53
-326.69
-374.89
-428.33
-480.31
-522.48
-547.25
-550.63
-533.73
-502.36
-464.44
-426.91
-393.49
-364.39
-337.71
-311.44
-284.66
-257.64
-230.86
-204.09
-176.15
-145.47
-110.95
-72.61
-31.51
10.88
53.63
96.59
140.05
183.72
225.67
262.28
289.14
302.68
301.66
287.75
264.77
237.03
207.88
179.00
150.98
124.27
99.91
79.48
64.34
54.73
49.55
46.91
45.11
43.43
42.22
42.22
43.78
46.45
49.24
51.36
52.85
54.59
57.85
63.37
70.87
78.92
85.54
88.86
87.84
82.54
74.04
64.12
54.63
46.98
41.73
38.58
36.75
35.53
34.73
34.73
36.02
38.76
42.41
45.93
48.32
49.12
48.63
47.71
47.19
47.40
47.97
48.00
46.54
43.14
38.04
32.08
26.34
21.57
17.93
14.95
11.87
8.05
3.31
-2.04
-7.38
-12.17
-16.15
-19.37
-22.05
-24.39
-26.51
-28.41
-30.13
-31.73
-33.38
-35.20
-37.16
-39.01
-40.22
-40.13
-38.06
-33.61
-26.74
-17.96
-8.17
1.42
9.64
15.59
18.86
19.57
18.36
16.11
13.71
11.76
10.43
9.55
8.73
7.63
6.15
4.44
2.78
1.40
0.39
-0.18
-0.16
0.63
2.19
3.96
4.72
2.95
-2.37
-10.95
-20.97
-29.56
-33.93
-32.48
-25.36
-14.21
-1.32
11.31
22.38
31.36
38.09
42.48
44.53
44.37
42.45
39.40
35.81
31.83
27.07
20.67
11.77
0.21
-12.90
-25.18
-33.54
-35.37
-29.79
-18.26
-4.22
8.17
15.68
17.24
14.12
9.08
4.96
3.49
4.74
7.55
10.38
12.26
13.44
15.21
19.30
26.95
38.33
52.62
68.67
85.87
104.46
125.24
148.54
173.29
196.87
216.07
228.59
234.36
235.56
235.48
236.93
241.18
247.82
255.57
262.80
267.70
267.99
260.86
243.48
214.24
173.77
125.09
72.78
21.23
-26.65
-70.06
-109.86
-147.70
-185.25
-223.32
-261.27
-296.71
-326.15
-346.06
-354.28
-351.12
-339.50
-323.86
-308.45
-295.91
-286.77
-280.33
-275.78
-272.90
-271.75
-271.64
-270.54
-265.39
-253.45
-233.94
-208.90
-182.72
-160.53
-146.32
-141.43
-144.28
-151.29
-158.54
-163.08
-163.61
-160.42
-154.80
-148.17
-141.47
-134.93
-128.39
-121.89
-116.07
-112.13
-111.09
-113.12
-117.35
-122.37
-127.31
-132.49
-139.31
-149.02
-161.25
-173.32
-180.71
-178.77
-164.65
-138.44
-102.93
-62.29
-20.51
19.62
56.60
89.67
118.30
142.23
161.75
178.04
192.84
207.78
223.59
239.65
254.35
265.80
272.72
274.76
272.31
266.07
256.73
245.00
231.87
218.57
206.50
197.08
191.56
190.84
195.05
203.07
212.13
218.33
217.41
206.63
186.27
160.10
134.41
115.84
109.10
115.70
134.26
161.05
191.31
220.19
243.12
256.05
255.78
240.59
210.85
169.60
121.13
69.99
19.94
-26.63
-68.64
-105.95
-138.85
-167.92
-191.58
-207.04
-211.47
-203.82
-185.63
-160.00
-130.12
-98.46
-69.15
-43.12
-21.86
-7.58
-2.31
-7.13
-21.62
-44.28
-71.71
-101.14
-130.60
-160.41
-192.87
-231.24
-277.86
-331.83
-387.79
-436.28
-466.46
-469.40
-441.96
-387.91
-316.62
-239.86
-168.38
-109.65
-67.10
-40.73
-27.54
-22.55
-19.57
-12.65
1.68
22.74
45.71
63.77
71.37
67.23
54.85
40.73
30.98
28.28
31.02
34.81
35.40
31.13
23.47
15.62
10.28
8.11
7.83
7.48
6.09
4.49
4.72
8.38
15.11
21.92
24.25
18.25
3.05
-18.32
-40.13
-56.62
-64.93
-66.38
-65.44
-66.89
-72.99
-82.25
-90.68
-94.38
-91.67
-83.55
-72.27
-59.34
-44.64
-27.05
-6.23
16.26
37.40
54.41
66.65
76.37
87.85
105.13
129.53
158.63
187.11
209.34
222.00
225.60
223.68
220.48
218.49
217.29
214.39
207.26
195.28
180.20
165.03
152.16
142.27
134.69
128.65
124.41
123.15
125.80
131.84
139.14
144.91
147.34
146.76
145.77
148.13
157.28
175.08
201.50
234.83
272.34
310.78
346.58
376.02
395.53
402.18
394.37
372.32
338.04
294.96
247.06
197.99
150.61
106.56
66.45
29.88
-4.30
-37.87
-72.60
-109.54
-148.36
-187.52
-225.21
-260.26
-292.25
-320.34
-342.12
-353.85
-352.30
-337.11
-311.83
-282.64
-255.41
-233.43
-217.33
-206.86
-202.95
-207.71
-222.49
-245.46
-270.96
-291.53
-301.65
-300.62
-292.35
-282.79
-276.80
-276.60
-282.09
-292.09
-304.82
-317.57
-326.44
-327.25
-317.58
-298.54
-274.84
-252.54
-235.84
-224.82
-215.60
-202.55
-181.41
-151.32
-114.63
-75.15
-35.82
2.71
41.77
83.22
127.77
173.95
218.41
257.13
286.95
306.68
317.28
321.09
320.70
317.75
312.66
305.09
294.97
283.47
273.05
266.49
265.45
269.39
275.59
280.31
280.63
275.78
267.51
259.40
255.34
258.11
268.62
286.06
308.53
333.62
358.69
380.79
396.60
402.75
396.62
377.22
345.79
305.65
261.33
217.29
176.75
141.11
110.17
82.82
57.76
34.09
11.23
-11.27
-33.96
-57.63
-83.09
-110.99
-141.82
-175.94
-213.49
-254.13
-296.55
-338.10
-375.09
-403.79
-421.79
-428.96
-427.74
-422.05
-415.62
-410.56
-406.81
-402.67
-395.85
-384.40
-366.90
-342.35
-310.22
-270.97
-226.73
-181.40
-139.80
-106.00
-81.93
-66.75
-57.80
-52.15
-47.88
-44.37
-41.67
-39.65
-37.79
-35.62
-33.29
-31.60
-31.27
-32.11
-32.81
-31.58
-27.27
-20.26
-12.24
-5.00
0.64
5.27
10.27
16.61
23.86
30.31
33.81
33.03
28.14
20.59
12.16
3.89
-4.35
-13.52
-24.55
-37.59
-51.81
-65.73
-77.95
-87.74
-95.21
-101.21
-106.98
-113.91
-123.30
-136.15
-152.75
-172.28
-192.49
-209.88
-220.43
-220.74
-209.07
-185.87
-153.66
-116.15
-77.16
-39.63
-5.12
26.25
55.34
83.52
112.20
142.40
174.21
206.37
236.19
260.10
274.90
279.13
273.92
262.80
250.26
239.89
232.93
228.09
222.61
214.10
201.69
186.37
170.17
155.03
141.83
130.29
119.53
108.87
98.48
88.98
80.90
74.31
68.90
64.50
61.56
61.07
63.99
70.66
79.78
88.67
94.48
95.57
92.37
87.25
83.52
84.13
91.24
104.87
123.17
143.21
162.00
177.22
187.48
191.95
189.77
180.39
162.41
134.24
95.24
46.60
-8.52
-65.49
-119.60
-172.52
-223.23
-269.27
-307.34
-335.31
-353.94
-367.03
-379.26
-393.73
-409.71
-421.98
-424.06
-410.84
-380.89
-336.22
-282.98
-228.73
-179.28
-136.75
-98.83
-61.32
-20.32
25.94
76.35
127.04
172.88
209.02
232.51
243.59
245.14
241.44
236.18
231.13
225.72
218.14
206.92
191.90
174.46
156.42
139.00
122.51
106.66
91.27
76.79
64.21
54.47
48.22
45.37
44.87
45.15
44.52
41.88
37.17
31.40
26.23
23.10
22.59
24.08
26.27
27.85
28.24
27.85
27.70
28.87
31.78
35.90
39.88
41.91
40.43
34.72
25.28
13.98
3.60
-2.84
-3.19
2.96
13.94
26.41
36.41
40.74
37.85
28.05
13.04
-5.05
-24.29
-43.25
-60.78
-75.70
-86.78
-93.06
-94.32
-91.31
-85.44
-78.17
-70.29
-61.72
-51.77
-39.80
-25.72
-10.27
5.28
19.59
31.57
40.60
46.34
48.70
47.83
44.27
39.01
33.37
28.62
25.57
24.36
24.53
25.30
25.93
25.88
24.73
22.08
17.50
10.70
1.72
-8.94
-20.42
-31.71
-41.99
-50.79
-58.05
-64.02
-69.17
-74.03
-79.07
-84.53
-90.25
-95.65
-99.80
-101.75
-100.92
-97.27
-91.25
-83.61
-75.08
-66.16
-57.06
-47.85
-38.62
-29.70
-21.51
-14.42
-8.53
-3.66
0.55
4.46
8.24
11.75
14.49
16.00
16.17
15.28
13.88
12.53
11.52
10.80
9.98
8.20
4.87
-0.07
-6.17
-12.69
-19.02
-24.84
-30.04
-34.74
-39.60
-45.13
-51.59
-59.33
-68.99
-81.47
-97.48
-116.72
-137.92
-159.62
-179.86
-196.52
-207.80
-212.49
-210.08
-200.87
-185.50
-161.02
-127.50
-87.54
-45.59
-5.97
28.71
57.96
82.35
103.93
124.79
145.72
167.34
190.34
215.31
242.24
270.47
295.20
312.45
318.76
311.45
289.90
255.87
213.21
166.94
122.17
82.81
51.59
29.20
14.55
6.03
2.19
1.98
4.37
8.02
11.04
11.86
9.51
4.14
-2.70
-8.69
-11.66
-10.48
-5.34
2.42
11.19
19.28
25.03
27.05
24.28
16.19
3.08
-13.58
-31.12
-45.90
-54.18
-53.19
-42.23
-23.32
-0.95
19.19
31.99
34.71
27.78
14.40
-1.02
-14.56
-24.06
-29.59
-32.84
-36.27
-42.58
-54.40
-73.56
-100.16
-131.33
-161.17
-182.22
-188.35
-177.71
-153.79
-124.16
-97.02
-77.72
-66.88
-61.30
-56.95
-51.92
-47.53
-46.95
-52.42
-62.95
-74.06
-79.78
-75.61
-60.72
-38.19
-13.47
8.49
25.50
38.68
51.14
65.85
83.85
103.64
122.26
136.75
145.57
149.02
148.75
146.75
144.36
141.83
138.54
133.55
126.27
116.77
105.90
94.93
85.16
77.43
72.10
69.17
68.49
69.93
73.43
78.97
86.28
94.71
103.01
109.80
114.10
115.72
115.33
113.85
111.77
108.72
103.61
95.00
82.26
66.11
48.17
30.03
12.53
-4.11
-19.28
-31.22
-38.32
-39.40
-35.03
-28.07
-22.98
-24.06
-33.79
-52.11
-77.22
-109.12
-147.52
-190.27
-231.36
-261.51
-271.55
-256.95
-220.77
-173.28
-131.57
-110.05
-115.01
-142.70
-183.12
-225.95
-265.17
-299.78
-331.66
-367.38
-411.29
-463.83
-521.17
-577.86
-629.70
-675.24
-715.06
-720.95
-673.19
-566.47
-415.96
-248.76
-89.63
47.40
158.37
244.94
310.85
355.39
377.93
377.94
359.64
328.50
290.26
250.44
214.79
189.07
174.15
170.63
174.27
178.29
175.97
163.69
142.05
115.08
87.93
62.06
37.05
11.13
-15.89
-41.87
-63.16
-76.63
-81.12
-77.61
-69.77
-61.12
-54.48
-50.49
-47.94
-44.57
-38.33
-27.77
-11.98
5.34
21.92
36.27
48.38
59.35
70.90
84.59
101.31
121.15
143.66
168.82
196.46
226.24
257.10
286.80
312.03
329.15
335.35
329.61
313.44
289.74
261.75
232.22
202.89
174.74
148.44
124.64
103.90
86.70
72.90
61.77
52.42
44.11
36.47
29.43
23.14
17.72
13.33
9.96
7.47
5.59
3.91
1.98
-0.60
-4.07
-8.43
-13.38
-18.44
-23.06
-26.69
-28.83
-29.09
-27.22
-23.26
-17.52
-10.64
-3.45
3.22
8.72
12.75
15.38
16.95
17.79
17.93
16.94
14.05
8.59
0.43
-9.68
-20.27
-29.57
-36.21
-39.66
-40.31
-39.15
-37.33
-35.77
-35.01
-35.24
-36.40
-38.23
-40.32
-42.18
-43.35
-43.70
-43.53
-43.52
-44.55
-47.39
-52.32
-58.98
-66.35
-73.10
-78.01
-80.43
-80.60
-79.52
-78.54
-78.77
-80.47
-82.85
-84.30
-82.90
-77.15
-66.46
-51.39
-33.31
-13.99
4.98
22.52
38.18
51.99
64.16
74.70
83.35
89.54
92.65
92.25
88.35
81.45
72.44
62.35
52.08
42.22
33.03
24.57
16.83
9.79
3.42
-2.41
-7.94
-13.40
-18.84
-24.04
-28.56
-31.94
-33.95
-34.78
-34.91
-34.92
-35.15
-35.60
-36.02
-36.16
-36.03
-35.91
-36.26
-37.35
-39.13
-41.15
-42.80
-43.62
-43.49
-42.67
-41.64
-40.80
-40.38
-40.33
-40.49
-40.72
-40.86
-40.77
-40.14
-38.49
-35.26
-30.01
-22.58
-13.28
-2.73
8.29
19.07
29.05
37.88
45.29
51.01
54.84
56.72
56.89
55.93
54.55
53.38
52.73
52.53
52.40
51.96
51.00
49.66
48.29
47.26
46.77
46.73
46.91
46.96
46.65
45.91
44.81
43.45
41.95
40.35
38.69
37.09
35.80
35.17
35.55
37.08
39.60
42.59
45.40
47.46
48.59
49.12
49.77
51.29
53.97
57.38
60.38
61.69
60.49
56.82
51.58
46.14
41.86
39.84
40.94
45.95
55.64
70.57
90.80
115.50
143.04
171.08
196.91
217.66
230.64
233.71
225.83
207.65
181.68
151.76
121.91
95.08
72.26
52.57
34.03
14.62
-6.99
-31.38
-58.45
-87.55
-117.30
-145.56
-169.92
-188.76
-202.49
-213.81
-226.41
-242.67
-261.38
-277.37
-283.35
-273.49
-246.60
-207.32
-164.49
-127.66
-103.38
-93.08
-93.31
-97.99
-101.15
-98.98
-90.40
-76.31
-58.38
-38.07
-16.34
6.07
28.25
49.03
67.32
82.66
95.56
107.26
119.12
131.84
144.93
156.80
165.38
169.17
167.98
163.28
157.54
153.18
151.30
151.10
150.32
146.34
137.31
122.74
103.41
80.91
57.13
34.10
13.82
-1.97
-12.38
-17.79
-19.78
-20.32
-20.93
-22.01
-23.12
-23.67
-23.50
-22.83
-21.68
-19.45
-15.20
-8.67
-1.24
3.91
2.93
-6.92
-25.85
-51.34
-79.33
-106.01
-129.30
-149.22
-167.39
-186.13
-207.66
-233.43
-263.64
-296.70
-329.21
-356.59
-374.42
-379.97
-373.10
-356.05
-332.39
-305.63
-278.36
-252.12
-227.80
-205.78
-185.61
-165.70
-143.38
-115.76
-81.26
-40.79
1.96
41.59
72.88
92.54
100.29
98.61
91.66
83.80
78.31
76.75
78.90
83.19
87.44
89.61
88.34
83.28
74.99
64.69
53.83
43.76
35.54
29.84
26.93
26.58
28.03
29.96
30.78
29.09
24.29
16.89
8.39
0.84
-4.02
-5.39
-3.82
-0.91
1.41
1.65
-0.58
-4.52
-8.71
-11.71
-12.76
-12.00
-10.28
-8.60
-7.63
-7.45
-7.67
-7.80
-7.50
-6.85
-6.26
-6.20
-6.91
-8.23
-9.49
-9.70
-7.94
-3.78
2.47
9.69
16.37
21.06
22.98
22.19
19.44
15.79
12.11
8.82
5.90
3.11
0.31
-2.47
-5.00
-6.95
-8.03
-8.04
-6.90
-4.68
-1.67
1.59
4.40
6.08
6.33
5.34
3.81
2.65
2.54
3.63
5.45
7.19
8.18
8.23
7.65
7.09
7.14
8.15
10.17
13.05
16.52
20.36
24.27
27.88
30.77
32.56
33.04
32.21
30.32
27.77
25.07
22.63
20.64
18.92
16.94
13.99
9.63
4.03
-1.88
-6.76
-9.32
-8.89
-5.62
-0.31
5.92
12.08
17.40
21.32
23.44
23.52
21.65
18.41
14.82
11.98
10.70
11.15
12.89
15.17
17.46
19.65
22.06
25.03
28.63
32.46
35.89
38.37
39.73
40.24
40.31
40.20
39.79
38.62
36.22
32.38
27.32
21.63
16.08
11.36
7.96
5.95
5.04
4.62
3.93
2.39
-0.21
-3.55
-6.92
-9.50
-10.77
-10.67
-9.65
-8.45
-7.76
-8.04
-9.34
-11.36
-13.47
-14.81
-14.58
-12.16
-7.46
-1.04
5.99
12.27
16.71
18.78
18.62
16.75
13.81
10.21
6.18
1.89
-2.31
-5.90
-8.30
-9.11
-8.34
-6.40
-3.92
-1.50
0.46
1.86
2.82
3.49
4.00
4.24
4.03
3.13
1.47
-0.84
-3.45
-5.97
-8.11
-9.74
-10.92
-11.74
-12.30
-12.65
-12.78
-12.75
-12.62
-12.43
-12.16
-11.76
-11.25
-10.82
-10.83
-11.68
-13.62
-16.44
-19.50
-21.82
-22.44
-20.77
-16.84
-11.27
-5.01
0.92
5.78
9.20
11.16
11.82
11.35
9.88
7.54
4.45
0.79
-3.20
-7.25
-11.10
-14.50
-17.21
-19.07
-20.01
-20.14
-19.77
-19.30
-19.11
-19.47
-20.44
-21.95
-23.89
-26.29
-29.35
-33.43
-38.81
-45.54
-53.29
-61.42
-69.23
-76.19
-82.19
-87.40
-92.03
-96.05
-99.24
-101.34
-102.41
-102.82
-102.66
-101.10
-96.15
-85.40
-67.52
-43.65
-17.63
5.34
21.02
28.11
28.47
25.72
22.98
21.43
20.46
19.19
17.88
18.30
22.51
31.25
43.03
54.85
63.79
68.62
70.24
70.70
71.73
73.56
74.93
74.04
69.75
62.31
53.14
44.06
36.43
30.70
26.52
23.21
20.26
17.72
16.01
15.68
16.92
19.32
21.83
23.17
22.30
18.90
13.49
7.21
1.36
-3.20
-6.24
-8.09
-9.35
-10.60
-12.23
-14.46
-17.37
-20.78
-24.28
-27.26
-29.19
-29.96
-30.08
-30.58
-32.50
-36.34
-41.76
-47.76
-53.20
-57.35
-60.16
-62.05
-63.44
-64.21
-63.57
-60.21
-53.01
-41.55
-26.54
-9.72
6.52
19.75
28.12
30.83
28.19
21.64
13.50
6.65
3.85
6.92
15.89
28.60
41.36
50.36
53.48
51.41
47.37
45.63
49.50
59.75
74.44
89.97
102.66
110.07
111.44
107.41
99.26
88.50
76.56
64.76
54.39
46.62
42.30
41.68
44.16
48.24
51.77
52.73
49.97
43.88
36.43
30.55
29.04
33.49
43.89
58.75
75.83
92.89
108.16
120.50
129.33
134.55
136.43
135.55
132.68
128.81
125.20
123.26
124.31
128.97
136.81
146.25
155.21
161.86
165.05
164.35
159.23
148.54
130.53
103.47
66.57
20.52
-32.87
-91.70
-154.68
-220.90
-288.66
-354.09
-410.97
-452.22
-472.28
-469.48
-446.78
-410.67
-368.59
-326.43
-287.13
-250.75
-215.84
-180.83
-144.65
-106.63
-65.98
-21.79
26.18
76.52
125.55
168.10
199.09
215.62
218.13
210.21
197.10
183.65
172.85
165.37
160.15
155.49
149.98
142.92
134.32
124.56
114.18
103.73
93.58
83.90
74.67
65.76
57.06
48.60
40.51
32.98
26.07
19.69
13.61
7.48
0.92
-6.51
-15.29
-25.81
-38.11
-51.56
-64.55
-74.62
-79.05
-75.87
-64.72
-47.20
-26.51
-6.29
10.49
22.40
29.62
33.45
35.47
37.03
38.94
41.57
44.99
48.98
53.03
56.34
58.06
57.74
55.72
53.20
51.95
53.53
58.54
66.02
73.59
78.29
77.83
71.67
61.49
50.75
43.42
42.55
48.88
60.59
73.79
83.93
87.61
84.26
76.86
71.17
73.36
87.04
110.90
138.59
160.97
170.00
162.20
139.93
109.80
79.34
53.44
32.80
14.50
-5.97
-32.64
-67.90
-112.03
-162.92
-215.99
-264.32
-300.50
-319.58
-322.02
-314.71
-309.47
-318.76
-350.81
-406.06
-476.49
-548.10
-605.34
-635.39
-631.13
-591.84
-521.93
-428.75
-320.62
-205.81
-92.55
10.71
95.76
156.32
190.29
201.17
197.24
188.41
182.22
181.09
182.34
180.87
172.35
155.77
133.67
110.52
90.68
76.90
69.95
69.04
72.48
78.07
83.68
87.81
90.12
91.71
94.60
100.57
109.95
121.11
131.16
137.32
138.23
134.37
127.27
118.32
108.07
96.45
83.50
70.02
57.31
46.41
37.38
29.35
21.27
13.17
6.54
3.58
5.77
12.65
21.78
30.03
35.27
37.39
38.22
40.42
45.76
54.43
65.14
76.31
87.41
99.52
114.42
133.75
157.85
185.14
212.60
236.35
253.23
261.77
262.20
255.20
241.61
221.73
194.92
159.94
114.24
55.53
-16.78
-100.12
-188.94
-273.34
-340.27
-377.24
-376.57
-341.15
-284.13
-225.36
-184.82
-177.61
-207.53
-266.16
-336.69
-399.36
-440.37
-454.36
-444.10
-407.26
-348.11
-276.09
-202.48
-140.33
-89.11
-46.56
-12.00
14.26
33.19
46.66
58.42
73.12
95.03
128.15
172.06
222.33
270.89
309.56
330.28
328.03
302.48
252.11
183.95
110.53
52.11
17.45
8.92
23.26
54.53
93.42
128.78
151.73
156.60
143.14
115.83
83.57
54.78
34.37
22.49
15.82
10.72
3.79
-7.13
-23.06
-42.20
-61.13
-75.91
-83.33
-81.98
-72.51
-58.49
-45.70
-40.37
-45.56
-59.74
-76.87
-88.57
-87.38
-69.87
-38.65
-1.73
30.41
49.21
50.75
36.47
11.62
-17.21
-44.33
-66.24
-81.45
-89.37
-88.82
-77.85
-54.61
-19.00
25.88
73.54
115.41
143.19
151.21
137.77
105.12
58.83
6.58
-42.89
-80.98
-100.54
-97.40
-71.50
-27.11
28.21
85.68
137.60
178.92
207.75
224.73
232.11
232.70
229.17
223.64
217.72
212.54
208.92
207.47
208.33
210.93
213.88
215.32
213.52
207.53
197.41
183.95
168.14
150.69
131.81
111.54
90.10
68.07
46.36
25.72
6.40
-11.96
-30.13
-48.86
-68.57
-89.30
-110.96
-133.55
-157.38
-183.14
-211.80
-244.22
-280.46
-319.10
-356.79
-388.53
-408.77
-413.23
-400.45
-372.59
-334.93
-294.26
-256.80
-226.72
-205.88
-194.43
-191.82
-197.33
-209.72
-226.41
-242.97
-253.70
-253.23
-238.65
-210.89
-174.81
-137.55
-106.03
-84.64
-74.23
-72.63
-76.18
-81.33
-85.52
-87.22
-85.46
-79.53
-68.99
-54.05
-35.88
-16.48
1.95
17.74
30.25
39.90
47.62
54.11
59.23
62.11
61.66
57.28
49.52
40.06
31.17
24.69
21.03
18.78
14.92
5.88
-11.23
-37.52
-71.75
-110.31
-147.91
-178.68
-197.63
-202.03
-192.19
-171.18
-143.56
-113.88
-85.25
-58.96
-34.68
-11.31
12.38
37.60
65.69
97.88
134.76
175.48
217.44
257.09
290.77
315.77
331.01
337.24
336.52
331.35
323.85
315.25
306.52
297.73
287.92
275.56
259.30
238.75
214.74
188.85
162.63
138.26
116.97
98.44
80.93
62.17
40.87
17.86
-3.46
-17.50
-16.58
5.01
47.86
106.13
169.05
224.64
263.48
281.11
269.11
226.66
161.17
86.49
16.75
-39.23
-78.89
-103.40
-115.25
-116.83
-109.17
-94.06
-74.57
-54.56
-37.36
-24.42
-15.19
-8.54
-3.17
2.49
8.87
15.17
19.94
22.09
21.87
20.87
20.82
23.29
29.75
40.49
54.60
70.16
85.00
97.25
108.39
118.85
128.82
138.52
147.79
156.16
162.95
167.59
169.95
170.32
168.80
165.69
161.37
156.16
150.24
143.69
136.58
129.07
121.40
113.53
105.53
97.43
89.19
80.74
71.95
62.67
52.76
42.15
30.62
18.19
5.01
-8.63
-22.33
-35.65
-48.15
-59.42
-69.19
-77.39
-83.99
-89.04
-92.60
-94.76
-95.60
-95.26
-93.85
-91.57
-88.64
-85.26
-81.58
-77.68
-73.61
-69.42
-65.19
-61.07
-57.30
-54.11
-51.72
-50.13
-49.18
-48.53
-47.79
-46.66
-45.10
-43.30
-41.63
-40.45
-39.87
-39.69
-39.46
-38.64
-37.03
-34.87
-32.95
-32.29
-33.71
-37.45
-42.95
-49.08
-54.50
-58.35
-60.67
-62.42
-65.17
-70.37
-78.82
-90.32
-104.20
-119.63
-136.53
-155.81
-179.17
-208.83
-247.00
-295.74
-356.33
-428.36
-508.43
-589.54
-661.84
-715.06
-741.86
-740.36
-714.73
-673.23
-624.94
-576.75
-532.04
-491.36
-454.16
-420.36
-390.48
-364.99
-343.31
-323.59
-303.36
-280.61
-254.58
-225.92
-196.30
-167.41
-140.24
-114.77
-90.24
-65.67
-40.52
-15.03
9.87
32.88
52.92
69.52
82.93
93.88
103.17
111.26
118.15
123.49
126.77
127.81
126.86
124.66
122.17
120.26
119.34
119.29
119.42
118.64
115.77
109.83
100.17
86.63
69.46
49.32
27.11
3.90
-19.26
-41.46
-61.97
-80.38
-96.54
-110.56
-122.69
-133.23
-142.36
-150.08
-156.15
-160.09
-161.30
-159.12
-153.02
-142.74
-128.38
-110.43
-89.71
-67.25
-44.17
-21.53
-0.27
18.87
35.35
48.87
59.35
67.07
72.64
77.01
81.33
86.82
94.44
104.73
117.67
132.68
148.88
165.32
181.18
195.85
208.85
219.58
227.14
230.31
227.80
218.71
203.00
181.78
157.22
132.00
108.56
88.49
72.19
59.23
49.02
41.46
37.36
38.29
46.03
62.09
87.49
122.74
167.52
220.07
276.62
331.66
379.21
414.92
437.59
449.26
453.79
454.91
454.42
451.80
445.04
431.90
411.07
382.80
349.02
312.91
277.83
246.23
218.88
195.12
173.80
154.73
139.38
130.11
128.41
133.32
141.41
148.66
152.92
155.17
158.51
165.33
174.92
182.79
182.54
169.23
142.10
105.07
64.90
28.48
0.26
-18.70
-30.05
-36.49
-40.26
-42.59
-43.94
-44.70
-45.44
-46.80
-48.90
-50.93
-51.43
-48.93
-42.85
-34.05
-24.54
-16.70
-12.39
-12.55
-17.21
-25.93
-37.90
-51.60
-64.33
-72.17
-71.18
-59.28
-37.80
-11.63
12.38
28.35
33.83
30.70
24.01
19.45
20.99
29.83
44.72
63.24
82.86
101.35
116.62
126.69
130.01
126.40
117.57
106.91
98.53
95.68
99.64
109.40
122.53
136.51
149.79
161.93
172.91
182.27
188.60
190.12
185.58
175.21
160.70
144.34
127.92
111.86
95.44
77.58
58.01
37.76
18.86
3.25
-8.25
-16.24
-22.34
-28.56
-35.91
-44.76
-54.79
-65.30
-75.29
-83.56
-88.75
-89.67
-85.99
-78.03
-67.34
-55.76
-44.70
-34.53
-24.74
-14.53
-3.58
7.27
17.77
27.47
36.69
46.38
57.41
69.65
81.63
90.84
93.38
89.06
77.85
61.48
42.69
24.17
7.53
-7.21
-21.44
-39.80
-60.67
-83.96
-108.14
-131.01
-150.90
-167.94
-184.43
-204.33
-236.37
-279.48
-335.58
-403.97
-480.91
-559.65
-631.35
-686.91
-719.51
-732.16
-721.01
-691.85
-651.14
-603.16
-548.89
-487.21
-417.73
-308.59
-212.02
-130.80
-73.67
-45.01
-42.72
-58.39
-79.43
-92.65
-88.20
-68.46
-31.83
10.23
43.32
54.83
37.96
-6.17
-69.46
-140.03
-210.49
-267.60
-307.34
-328.82
-332.80
-320.82
-295.09
-259.17
-218.22
-180.95
-149.20
-125.75
-109.50
-96.37
-81.39
-61.17
-35.57
-7.52
17.27
37.63
51.90
62.31
73.15
88.65
110.97
139.12
169.51
196.86
219.72
235.00
244.68
253.10
265.20
284.32
310.54
340.07
365.63
381.03
374.63
341.34
282.07
204.82
123.34
53.52
8.53
-5.11
14.68
55.66
107.02
159.74
209.30
255.92
302.66
352.38
380.74
413.30
438.79
449.54
440.03
408.47
357.24
291.86
219.53
147.84
87.93
42.18
15.10
8.19
19.15
42.25
70.11
96.30
117.23
135.42
149.13
159.16
164.40
162.08
149.12
123.95
87.25
41.65
-7.54
-58.86
-109.70
-158.05
-202.35
-241.68
-276.57
-309.36
-343.90
-382.59
-426.62
-471.44
-507.96
-525.39
-515.07
-474.07
-406.55
-322.99
-236.94
-163.29
-114.53
-98.68
-117.33
-164.49
-227.31
-289.06
-333.87
-351.13
-338.45
-301.24
-249.20
-192.37
-138.13
-90.46
-50.92
-20.01
3.30
20.59
34.25
47.57
63.82
85.02
110.96
139.18
166.22
191.46
215.70
240.84
268.93
301.04
337.06
375.96
416.31
456.36
497.20
537.63
573.88
601.24
617.37
624.63
629.08
636.29
647.05
660.19
668.92
664.89
642.72
602.76
550.81
494.69
440.39
365.89
261.43
131.08
-6.57
-129.03
-222.56
-285.78
-325.86
-350.27
-367.81
-377.96
-377.69
-365.06
-341.92
-314.68
-292.10
-282.45
-292.04
-321.78
-364.38
-408.76
-442.14
-453.82
-438.90
-399.78
-346.28
-293.12
-253.55
-234.90
-237.84
-256.41
-275.50
-279.64
-258.50
-212.91
-163.48
-121.60
-91.36
-73.19
-63.66
-61.28
-65.15
-73.10
-77.80
-72.06
-51.43
-19.49
15.09
44.32
64.13
74.33
76.79
73.34
64.59
52.34
38.23
24.77
14.99
10.69
11.27
13.97
15.24
11.86
3.46
-8.71
-22.09
-33.63
-41.35
-44.96
-45.71
-45.59
-46.58
-49.32
-53.32
-57.32
-59.65
-59.35
-56.50
-52.13
-47.78
-44.95
-44.37
-46.00
-49.23
-52.83
-55.89
-58.06
-59.53
-60.84
-62.58
-65.03
-68.00
-70.99
-73.03
-73.50
-72.28
-69.63
-65.91
-61.22
-54.97
-45.75
-34.42
-20.72
-4.54
13.72
33.32
53.30
72.91
91.86
110.28
128.62
147.91
169.19
193.30
220.56
250.13
279.52
304.77
321.26
325.30
315.89
294.88
266.34
235.03
204.71
177.25
152.81
130.73
110.51
92.41
76.86
63.99
53.22
43.44
33.55
23.05
12.15
1.65
-7.50
-14.86
-20.63
-25.52
-30.37
-35.69
-41.48
-47.29
-52.46
-56.47
-59.15
-60.67
-61.47
-62.01
-62.55
-63.13
-63.66
-63.92
-63.76
-63.15
-62.09
-60.59
-58.51
-55.65
-51.75
-46.75
-40.77
-34.26
-27.84
-22.15
-17.74
-14.87
-13.56
-13.55
-14.37
-15.50
-16.51
-17.21
-17.59
-17.85
-18.17
-18.58
-18.95
-18.98
-18.38
-16.99
-14.83
-12.05
-8.85
-5.34
-1.49
2.86
7.88
13.54
19.54
25.17
29.49
31.45
30.21
25.34
17.15
6.73
-4.24
-14.11
-21.88
-27.62
-32.54
-38.19
-45.67
-54.75
-63.88
-70.80
-73.48
-70.68
-61.91
-47.03
-26.02
0.69
31.77
64.60
95.55
120.60
135.87
137.87
123.61
90.98
39.95
-25.97
-98.85
-167.10
-218.06
-241.71
-233.67
-196.29
-137.53
-68.32
0.57
60.75
107.28
138.64
155.96
161.91
159.60
151.88
141.03
128.71
116.10
103.96
92.55
81.48
69.91
57.01
42.58
27.44
13.32
2.14
-4.79
-7.38
-6.89
-5.40
-4.97
-6.84
-11.01
-16.40
-21.45
-24.87
-26.09
-25.36
-23.52
-21.49
-19.93
-19.03
-18.66
-18.51
-18.33
-17.98
-17.45
-16.80
-16.08
-15.36
-14.69
-14.08
-13.49
-12.85
-12.07
-11.12
-10.04
-8.91
-7.77
-6.64
-5.45
-4.18
-2.85
-1.64
-0.80
-0.61
-1.19
-2.44
-4.08
-5.66
-6.88
-7.62
-7.98
-8.24
-8.64
-9.26
-9.95
-10.46
-10.52
-10.10
-9.39
-8.69
-8.36
-8.56
-9.20
-10.00
-10.53
-10.27
-8.98
-6.59
-3.28
0.39
3.78
6.30
7.60
7.55
6.52
4.70
2.17
-1.05
-5.53
-11.99
-21.05
-32.95
-47.36
-62.73
-77.54
-90.15
-98.97
-103.62
-104.62
-102.95
-99.73
-95.88
-91.12
-86.03
-81.76
-79.77
-82.61
-92.47
-109.93
-133.38
-159.59
-183.81
-203.58
-218.94
-224.89
-218.45
-198.60
-166.89
-127.49
-92.77
-64.87
-41.04
-15.89
16.67
62.44
122.03
191.25
262.04
324.59
371.06
395.43
395.48
373.25
333.54
282.74
227.84
175.05
128.85
92.50
66.35
48.98
38.25
31.38
25.48
18.45
9.31
-1.60
-12.34
-21.18
-27.11
-29.82
-29.92
-28.65
-27.10
-26.00
-25.60
-25.50
-25.16
-24.32
-22.93
-21.10
-19.36
-18.33
-18.64
-20.73
-24.48
-28.96
-33.16
-36.11
-37.02
-36.07
-34.38
-33.78
-36.11
-42.20
-50.94
-60.37
-68.28
-72.51
-72.21
-67.94
-61.58
-55.90
-53.46
-56.03
-65.28
-82.41
-103.68
-123.71
-136.15
-136.40
-124.08
-107.62
-92.42
-81.89
-78.64
-84.25
-98.58
-121.66
-153.17
-191.90
-234.95
-279.16
-317.66
-344.38
-353.39
-339.94
-300.72
-236.05
-155.60
-65.53
26.97
113.80
188.16
247.82
290.05
315.93
328.69
332.27
331.51
330.56
332.55
338.48
346.83
353.14
352.08
339.20
313.04
276.89
236.65
198.73
167.46
143.98
126.38
111.77
97.63
83.04
69.19
57.86
50.61
48.04
49.71
54.37
60.64
67.31
73.51
78.88
82.99
85.15
84.37
79.68
70.73
58.45
45.05
33.26
25.35
21.90
21.62
21.93
20.17
14.69
5.28
-7.36
-22.55
-40.22
-60.76
-84.32
-109.78
-134.49
-154.71
-166.79
-168.23
-158.08
-136.34
-103.15
-58.41
-2.22
63.54
133.89
200.42
253.00
282.81
285.31
261.75
218.12
162.50
102.09
41.38
-17.71
-74.52
-128.32
-177.83
-221.83
-260.50
-296.18
-332.78
-373.59
-418.76
-463.83
-500.48
-519.68
-515.56
-488.30
-444.39
-393.98
-346.79
-308.61
-280.03
-257.80
-237.44
-215.70
-191.24
-164.05
-134.10
-100.63
-62.40
-18.60
30.23
82.17
134.32
184.35
231.06
274.99
317.41
358.80
397.41
428.63
446.04
443.30
417.34
369.09
304.37
231.84
160.18
95.71
40.88
-5.06
-45.43
-82.90
-119.91
-157.09
-194.16
-230.20
-263.49
-290.96
-307.38
-308.40
-289.75
-251.78
-198.50
-137.17
-75.70
-19.86
27.94
68.67
96.65
113.43
113.46
92.94
53.21
2.66
-45.15
-76.52
-81.74
-61.98
-23.64
22.94
70.13
115.07
158.87
203.37
239.65
273.43
297.40
307.43
302.27
285.33
262.76
240.56
222.07
206.66
191.40
169.11
135.40
89.08
34.39
-19.93
-63.41
-87.72
-89.85
-72.30
-44.47
-15.84
6.36
19.66
25.73
28.01
29.04
29.17
27.84
23.46
16.98
11.24
9.81
14.93
26.30
40.87
53.98
61.55
60.87
52.55
39.85
27.17
18.23
14.68
15.77
18.68
20.07
17.16
9.12
-2.90
-16.48
-28.97
-37.90
-41.37
-38.70
-30.92
-21.14
-14.11
-15.13
-28.36
-55.26
-93.90
-137.16
-174.76
-197.39
-201.25
-189.05
-167.22
-142.08
-117.56
-94.91
-73.75
-53.84
-35.31
-19.09
-6.37
2.03
5.90
4.86
-1.96
-15.40
-35.54
-59.98
-83.57
-99.42
-101.12
-85.40
-53.55
-10.95
35.45
75.85
103.27
115.92
116.42
108.90
96.66
81.57
64.85
48.07
33.09
21.98
15.70
13.53
13.49
13.22
11.31
7.72
3.51
0.03
-1.24
0.74
6.08
14.13
23.33
31.55
36.30
35.21
26.88
11.90
-7.16
-26.55
-42.63
-53.11
-57.47
-56.84
-53.21
-48.55
-44.07
-40.24
-37.02
-34.22
-31.72
-29.34
-27.36
-26.66
-28.58
-34.31
-43.76
-55.18
-65.40
-71.03
-69.30
-59.63
-43.79
-25.06
-6.76
7.58
14.71
12.32
0.75
-14.61
-24.27
-17.57
12.57
65.47
131.82
198.74
255.19
295.32
320.28
335.54
347.00
357.39
365.10
365.85
355.87
334.33
300.29
257.15
209.00
158.56
106.75
53.51
-0.33
-51.96
-96.80
-129.68
-145.80
-143.01
-122.83
-90.50
-54.14
-22.92
-4.78
-4.31
-21.76
-52.99
-92.06
-133.48
-174.07
-213.02
-251.01
-289.09
-327.55
-365.21
-398.82
-423.75
-435.11
-429.46
-406.36
-368.72
-321.64
-269.79
-215.39
-157.84
-95.95
-30.78
32.78
87.37
126.74
149.38
159.69
165.71
174.65
188.95
205.31
217.06
218.17
206.86
186.32
163.13
143.97
133.04
131.18
136.42
145.26
153.58
157.16
152.10
135.55
106.64
66.86
19.99
-29.28
-76.92
-120.63
-160.24
-197.38
-234.71
-274.81
-318.82
-364.95
-407.68
-438.49
-448.31
-431.06
-386.48
-320.61
-243.66
-166.23
-95.76
-35.03
16.93
62.98
105.90
147.62
189.05
229.83
267.93
299.34
318.73
321.20
304.55
270.43
224.24
173.19
123.82
80.25
43.86
14.26
-9.44
-27.74
-40.78
-48.85
-52.87
-54.29
-54.52
-54.26
-53.22
-50.23
-44.00
-33.92
-20.57
-5.61
8.77
20.85
29.95
36.59
42.02
47.47
53.42
59.38
64.22
66.72
66.19
62.74
57.15
50.49
43.69
37.30
31.51
26.39
22.06
18.83
17.02
16.83
18.12
20.35
22.66
24.07
23.73
21.23
16.79
11.22
5.67
1.19
-1.82
-3.84
-6.19
-10.45
-17.66
-27.72
-39.37
-50.73
-60.02
-66.37
-70.15
-72.86
-76.25
-81.47
-88.44
-96.03
-102.61
-106.61
-107.17
-104.70
-100.68
-97.07
-95.22
-95.16
-95.76
-95.42
-92.74
-87.26
-80.17
-74.21
-72.73
-78.00
-89.74
-104.92
-118.51
-124.40
-117.04
-93.81
-56.06
-9.47
37.50
75.91
98.39
100.92
84.53
58.50
38.10
37.02
58.76
94.83
132.54
161.55
177.26
181.46
180.12
176.36
172.46
168.19
161.40
149.45
130.81
105.96
78.02
52.42
34.62
27.85
30.87
38.50
44.34
44.28
38.78
32.91
33.65
45.41
65.43
85.86
97.29
93.88
76.32
50.05
21.08
-7.02
-33.95
-60.81
-87.67
-112.62
-133.82
-149.45
-158.63
-161.79
-159.62
-152.69
-140.85
-123.05
-98.28
-66.71
-30.04
8.34
43.83
71.58
89.08
98.03
102.86
109.96
123.56
142.31
161.50
173.54
173.77
162.91
143.89
122.59
103.86
89.05
76.14
61.99
44.48
24.16
3.72
-13.79
-26.39
-34.32
-39.46
-43.75
-47.90
-51.08
-51.28
-46.87
-37.90
-26.15
-14.72
-6.68
-3.83
-6.14
-12.45
-21.32
-32.03
-44.78
-59.97
-77.57
-96.52
-114.55
-128.62
-135.89
-134.42
-123.82
-105.61
-83.21
-61.68
-46.65
-42.60
-50.93
-68.64
-88.37
-100.57
-96.98
-74.31
-35.98
9.20
50.22
77.94
87.90
80.80
61.11
34.36
4.93
-24.64
-52.71
-77.41
-95.85
-103.87
-96.78
-71.33
-28.13
26.85
83.00
128.71
155.87
162.91
155.38
143.58
138.07
146.29
168.73
197.86
221.50
230.03
219.25
189.92
146.07
93.38
37.70
-15.18
-60.95
-97.26
-123.68
-141.93
-155.49
-168.40
-183.53
-200.86
-216.64
-223.81
-213.89
-180.55
-123.40
-49.39
28.57
95.58
139.29
153.34
138.84
104.11
62.28
27.63
11.73
20.43
52.55
100.55
153.10
198.56
227.98
236.97
225.81
198.57
161.79
122.83
88.24
62.27
46.11
38.01
34.57
32.27
28.78
23.20
15.60
6.42
-3.70
-13.58
-21.40
-25.40
-25.20
-22.88
-22.59
-28.62
-42.71
-62.47
-81.83
-93.78
-93.59
-81.03
-60.21
-37.34
-17.73
-3.80
5.09
11.17
16.41
21.33
25.20
27.10
26.88
25.40
23.71
22.09
19.47
13.83
3.19
-13.38
-35.33
-61.02
-88.29
-114.78
-137.70
-153.64
-158.69
-149.63
-125.52
-88.88
-45.61
-3.49
30.02
49.68
53.55
43.05
22.23
-3.23
-27.23
-44.66
-52.81
-52.54
-48.31
-46.77
-54.31
-74.21
-104.93
-140.00
-169.73
-184.29
-177.05
-146.84
-98.65
-42.07
11.71
53.27
77.61
84.92
79.88
69.49
60.48
56.81
58.45
61.43
59.64
47.42
22.21
-13.95
-54.72
-91.62
-116.98
-126.32
-119.32
-99.05
-70.36
-38.44
-7.92
17.61
36.20
47.93
55.03
60.99
68.72
78.64
87.78
90.61
81.51
57.36
19.15
-28.30
-77.98
-122.67
-156.23
-174.28
-174.31
-156.26
-123.16
-81.21
-38.70
-3.50
19.52
29.90
31.17
28.58
26.53
26.83
28.47
28.60
23.83
11.46
-10.06
-40.91
-79.61
-122.68
-164.64
-198.56
-217.63
-217.07
-195.50
-155.08
-100.35
-36.48
31.73
99.95
163.24
215.52
250.35
263.18
253.56
225.90
187.79
146.74
107.14
69.27
30.93
-9.95
-53.33
-97.36
-140.25
-182.40
-226.74
-276.93
-334.22
-395.42
-453.06
-497.85
-522.48
-524.22
-505.51
-472.36
-431.59
-388.19
-344.38
-299.96
-253.68
-204.46
-151.88
-95.94
-36.39
27.35
95.63
167.29
238.67
303.69
355.37
388.23
400.47
394.77
377.15
354.71
333.06
315.08
301.05
289.91
280.73
273.46
268.81
267.53
269.62
273.73
277.30
277.18
270.64
256.60
236.07
211.90
187.63
166.19
148.85
135.27
124.21
114.59
106.13
99.18
93.98
89.97
85.69
79.35
69.78
57.14
42.96
29.53
18.90
11.94
8.03
5.35
1.78
-4.22
-13.02
-23.82
-35.08
-45.11
-52.64
-57.07
-58.53
-57.77
-55.99
-54.49
-54.38
-56.13
-59.56
-63.80
-67.72
-70.26
-70.77
-69.24
-66.30
-63.28
-62.15
-65.09
-73.86
-88.76
-108.12
-128.49
-145.93
-157.67
-163.43
-165.45
-167.17
-171.45
-179.19
-189.17
-199.05
-206.84
-211.89
-214.91
-217.30
-220.32
-224.52
-229.70
-235.22
-240.14
-243.42
-244.03
-241.12
-234.30
-223.62
-209.22
-191.04
-168.67
-141.51
-109.15
-71.96
-31.36
10.19
49.65
84.39
112.73
134.35
150.21
162.00
171.52
179.89
187.28
192.91
195.86
194.87
188.15
173.59
149.36
115.24
73.63
29.61
-10.28
-38.83
-51.33
-46.95
-28.76
-1.81
29.32
62.01
95.63
130.20
166.94
206.00
245.71
282.82
313.86
336.60
350.84
357.91
359.81
360.60
364.65
375.11
393.43
419.49
452.41
490.95
533.22
558.84
550.73
500.86
414.08
305.50
191.94
84.81
-12.08
-100.18
-178.70
-249.61
-310.92
-358.25
-388.14
-400.35
-398.04
-386.43
-370.93
-353.77
-334.80
-311.80
-282.95
-248.52
-211.08
-174.41
-141.94
-115.85
-96.66
-82.86
-71.25
-58.65
-43.20
-24.64
-3.88
17.70
38.87
58.90
77.87
96.81
116.63
137.07
156.76
173.79
186.47
193.86
195.68
191.89
182.47
167.24
145.38
116.09
79.00
34.28
-17.44
-75.55
-139.22
-206.19
-271.63
-328.38
-367.59
-381.08
-364.30
-318.49
-251.38
-175.38
-103.72
-46.38
-8.58
9.45
10.05
-4.53
-33.19
-75.84
-131.15
-194.06
-249.59
-280.42
-273.07
-225.46
-149.98
-68.28
-2.85
30.92
28.91
-2.41
-50.12
-99.91
-140.71
-169.50
-187.18
-197.72
-206.58
-218.79
-237.19
-261.29
-287.15
-308.86
-320.59
-318.22
-301.10
-271.71
-232.64
-188.40
-143.20
-99.94
-60.64
-26.81
0.55
20.96
35.17
45.46
54.91
66.33
81.07
98.50
116.73
133.96
149.26
162.75
174.92
185.72
194.35
199.42
199.57
194.43
185.17
174.21
164.44
158.43
157.69
162.86
173.78
189.60
208.95
229.99
250.55
268.46
282.05
290.52
294.08
293.71
290.51
285.21
277.89
268.20
255.73
240.41
222.70
203.46
183.63
163.93
144.84
126.63
109.45
93.44
78.68
65.23
53.07
42.23
32.72
24.60
17.86
12.37
7.97
4.43
1.65
-0.33
-1.36
-1.38
-0.56
0.68
1.70
1.99
1.23
-0.55
-3.08
-6.05
-9.20
-12.44
-15.72
-19.00
-22.13
-24.92
-27.22
-29.01
-30.40
-31.56
-32.61
-33.51
-34.18
-34.46
-34.27
-33.65
-32.75
-31.77
-30.91
-30.29
-29.88
-29.51
-28.78
-27.15
-24.05
-19.15
-12.40
-4.20
4.81
13.92
22.51
30.25
37.14
43.48
49.73
56.42
63.83
71.89
80.08
87.50
93.17
96.37
96.76
94.48
89.92
83.52
75.70
66.77
56.95
46.36
35.00
22.80
9.82
-3.58
-16.62
-28.21
-37.26
-43.10
-45.72
-45.77
-44.30
-42.29
-40.30
-38.35
-36.08
-33.10
-29.34
-25.15
-21.21
-18.15
-16.24
-15.28
-14.81
-14.33
-13.62
-12.82
-12.28
-12.39
-13.38
-15.33
-18.21
-21.99
-26.64
-31.97
-37.55
-42.70
-46.76
-49.40
-50.87
-52.04
-54.13
-58.18
-64.65
-73.22
-82.94
-92.72
-101.66
-109.25
-115.21
-119.26
-120.96
-119.81
-115.63
-108.80
-100.39
-91.77
-84.14
-78.17
-73.90
-70.97
-68.82
-66.72
-63.72
-58.64
-50.50
-39.07
-25.35
-11.36
0.73
9.57
15.14
18.32
19.74
18.95
14.62
5.70
-7.19
-21.25
-32.54
-37.89
-36.63
-30.84
-23.95
-18.58
-15.13
-11.85
-6.41
2.33
13.47
24.76
34.02
40.61
45.69
51.40
59.37
69.61
80.60
90.31
97.53
102.49
106.33
109.76
111.96
110.60
102.91
87.29
64.59
37.93
11.36
-11.98
-31.04
-46.80
-61.11
-75.33
-89.67
-103.22
-114.77
-123.45
-129.10
-132.20
-133.64
-134.46
-135.61
-137.93
-142.14
-148.94
-159.18
-173.90
-194.09
-219.89
-249.61
-279.16
-302.48
-313.29
-307.40
-284.46
-248.26
-205.34
-162.45
-124.08
-91.22
-61.75
-32.29
-0.48
33.38
66.19
93.36
111.13
118.48
117.86
114.21
112.93
117.88
130.36
149.66
174.43
204.30
239.85
281.73
329.32
379.86
428.89
471.58
504.20
524.44
531.47
524.67
503.19
466.22
413.96
348.58
274.34
196.90
121.62
52.93
-6.97
-57.69
-99.79
-133.94
-160.51
-179.64
-191.44
-196.93
-196.22
-190.42
-180.86
-168.97
-156.12
-143.44
-131.70
-121.31
-113.70
-107.61
-103.06
-100.01
-98.21
-97.40
-97.36
-98.04
-99.65
-104.52
-110.90
-119.09
-129.30
-141.55
-155.70
-171.32
-187.63
-203.65
-221.00
-236.34
-249.51
-260.44
-268.60
-272.69
-270.84
-261.39
-227.50
-190.44
-149.90
-110.01
-75.78
-52.12
-42.78
-49.19
-69.75
-99.79
-134.98
-165.09
-184.14
-188.99
-179.87
-159.71
-132.84
-103.45
-74.42
-48.86
-24.35
-0.01
24.67
49.18
72.21
92.46
109.51
124.31
137.34
151.32
166.24
180.69
192.69
200.99
205.64
207.61
207.56
204.45
197.66
186.32
171.25
155.27
141.96
134.07
132.34
135.56
141.59
149.50
159.47
172.47
189.12
208.79
229.41
248.11
262.01
268.88
267.43
257.48
239.80
215.94
187.73
156.85
124.52
91.55
58.69
26.91
-2.65
-28.83
-50.75
-67.78
-79.40
-85.05
-84.15
-76.49
-62.75
-44.78
-25.19
-6.76
8.45
19.62
27.14
32.19
36.10
39.73
43.12
45.39
45.06
40.65
31.37
17.62
0.96
-16.28
-31.92
-44.78
-55.15
-64.54
-74.96
-87.90
-103.60
-120.93
-137.81
-152.09
-162.19
-167.47
-167.94
-163.83
-155.11
-141.48
-122.61
-98.61
-70.58
-40.72
-12.46
10.07
22.72
22.41
8.35
-17.08
-48.21
-77.43
-97.48
-104.03
-97.27
-81.77
-64.71
-53.34
-52.87
-65.16
-88.40
-117.53
-145.36
-164.50
-169.52
-158.97
-136.08
-107.70
-81.56
-63.25
-54.29
-52.07
-51.96
-49.69
-42.99
-31.55
-15.93
3.84
28.69
59.73
96.88
137.57
176.72
207.93
225.97
228.84
218.88
201.80
184.24
171.08
163.77
160.52
157.88
152.97
144.79
134.37
123.74
114.77
108.37
104.50
102.75
102.78
104.60
108.46
114.35
121.74
129.43
135.78
138.99
137.48
130.11
116.37
96.50
71.47
42.83
12.49
-17.63
-46.08
-71.98
-95.08
-115.46
-133.24
-148.28
-160.14
-168.26
-172.30
-172.40
-169.23
-163.79
-157.05
-149.57
-141.34
-131.91
-120.75
-107.72
-93.35
-78.70
-65.05
-53.32
-43.77
-36.05
-29.52
-23.73
-18.66
-14.73
-12.43
-12.01
-13.21
-15.37
-17.71
-19.62
-20.82
-21.33
-21.30
-20.90
-20.25
-19.59
-19.29
-19.89
-21.73
-24.83
-28.73
-32.69
-36.07
-38.61
-40.53
-42.19
-43.81
-45.25
-46.15
-46.23
-45.63
-44.93
-44.90
-46.05
-48.33
-51.16
-53.67
-55.08
-55.03
-53.69
-51.58
-49.42
-47.79
-46.98
-46.92
-47.28
-47.71
-48.04
-48.45
-49.43
-51.43
-54.70
-59.02
-63.83
-68.44
-72.35
-75.46
-78.02
-80.41
-82.89
-85.34
-87.33
-88.25
-87.59
-85.20
-81.25
-76.15
-70.21
-63.54
-56.04
-47.56
-38.18
-28.30
-18.59
-9.64
-1.68
5.40
11.84
17.63
22.29
25.03
25.22
22.95
19.23
15.73
14.13
15.55
20.09
27.08
35.48
44.37
53.20
61.77
69.93
77.44
83.94
89.04
92.53
94.51
95.26
95.20
94.63
93.65
92.17
90.04
87.20
83.79
80.13
76.64
73.67
71.39
69.78
68.56
67.32
65.58
62.91
59.07
54.05
48.16
41.85
35.62
29.82
24.61
19.95
15.71
11.74
7.88
3.95
-0.26
-4.92
-9.99
-15.18
-19.95
-23.58
-25.50
-25.36
-23.22
-19.43
-14.48
-8.83
-2.75
3.71
10.68
18.27
26.37
34.48
41.79
47.41
50.68
51.48
50.19
47.54
44.27
41.00
38.18
36.21
35.53
36.57
39.54
44.32
50.47
57.40
64.68
72.15
79.79
87.52
95.00
101.57
106.43
108.79
108.08
104.12
97.09
87.55
76.38
64.65
53.42
43.56
35.58
29.62
25.45
22.55
20.25
17.89
15.01
11.46
7.56
3.84
0.95
-0.63
-0.72
0.55
2.88
5.89
9.18
12.39
15.21
17.38
18.81
19.45
19.38
18.65
17.22
15.00
11.96
8.19
4.00
-0.11
-3.63
-6.17
-7.66
-8.46
-9.16
-10.33
-12.24
-14.61
-16.73
-17.85
-17.53
-16.00
-14.07
-12.68
-12.38
-13.01
-13.69
-13.30
-11.05
-6.77
-0.94
5.64
12.11
17.75
21.72
23.09
20.97
15.01
5.95
-4.25
-13.03
-18.18
-18.82
-15.87
-11.59
-8.69
-9.40
-14.81
-24.86
-38.64
-55.02
-72.92
-91.50
-109.95
-127.40
-142.74
-154.50
-161.00
-160.88
-153.72
-140.51
-123.52
-105.67
-89.72
-77.59
-69.81
-65.71
-63.99
-63.45
-63.47
-63.81
-64.37
-64.79
-64.44
-62.22
-56.63
-45.98
-28.80
-4.20
28.10
67.45
112.21
157.94
197.87
225.01
235.08
228.24
208.25
180.44
149.59
119.22
91.69
68.72
51.40
39.71
31.98
24.93
15.15
0.16
-20.47
-45.17
-71.00
-94.72
-113.99
-127.91
-138.17
-145.90
-151.88
-156.18
-158.19
-156.84
-150.72
-138.62
-118.80
-92.30
-61.39
-29.19
1.09
26.77
46.14
58.88
65.93
69.05
70.03
70.69
72.14
74.57
78.12
81.50
83.34
82.49
78.26
70.41
59.56
46.91
33.83
21.55
10.63
1.28
-6.60
-13.21
-18.74
-23.07
-26.03
-27.51
-27.46
-25.92
-22.68
-17.44
-10.17
-1.47
7.44
14.90
19.25
19.40
15.18
6.95
-3.70
-14.54
-23.28
-27.87
-26.83
-19.37
-5.61
13.35
35.46
58.08
78.30
93.67
102.79
105.59
103.22
97.46
89.98
81.92
73.76
65.45
56.78
47.66
38.20
28.68
19.39
10.60
2.53
-4.48
-10.18
-14.45
-17.41
-19.34
-20.53
-21.03
-20.64
-19.13
-16.59
-13.83
-12.26
-13.46
-18.38
-26.72
-36.90
-46.57
-53.68
-57.25
-57.75
-56.69
-55.70
-55.83
-57.16
-59.02
-60.50
-60.87
-59.90
-57.66
-54.39
-50.39
-46.03
-41.86
-38.61
-37.01
-37.60
-40.40
-44.96
-50.47
-56.14
-61.50
-66.48
-71.19
-75.53
-78.76
-79.52
-76.15
-67.41
-53.14
-34.48
-13.55
7.26
26.01
41.74
54.55
65.32
75.17
85.03
95.27
105.44
114.21
119.59
119.34
111.75
96.36
74.32
48.32
21.73
-2.49
-22.78
-39.29
-53.42
-66.72
-79.89
-92.35
-102.60
-109.28
-112.17
-112.54
-112.69
-114.86
-120.12
-127.78
-135.68
-140.96
-140.97
-133.85
-118.63
-95.12
-63.88
-26.30
15.00
56.10
92.25
118.95
133.31
135.01
126.24
110.69
92.10
73.28
55.86
40.86
29.32
22.32
20.45
23.10
28.18
32.91
35.17
34.83
34.07
36.44
45.27
62.10
85.96
113.54
140.25
161.62
174.70
178.89
175.97
169.29
162.41
157.81
156.08
156.15
156.20
154.90
152.19
149.04
146.49
144.64
142.06
136.35
125.46
109.00
88.83
68.48
51.60
40.38
34.80
32.99
32.60
32.07
31.04
29.78
28.27
25.74
21.02
13.55
4.10
-5.32
-12.33
-15.32
-14.24
-10.40
-5.68
-1.79
0.31
0.37
-1.45
-4.91
-9.75
-15.76
-22.68
-30.32
-38.85
-48.71
-60.48
-74.53
-90.76
-108.37
-126.06
-142.41
-156.34
-167.94
-178.06
-187.91
-198.63
-210.96
-225.14
-240.87
-257.25
-272.96
-287.22
-299.11
-307.85
-313.22
-315.81
-316.68
-316.49
-314.48
-308.31
-295.88
-275.07
-244.78
-205.94
-161.93
-118.26
-81.28
-56.41
-46.64
-53.29
-73.98
-102.95
-132.54
-155.38
-166.26
-163.08
-146.67
-110.06
-53.57
15.82
86.55
147.50
192.51
221.23
237.00
243.85
243.89
236.81
221.72
198.93
170.94
141.93
116.31
97.25
85.91
82.38
84.01
87.96
92.61
97.74
103.81
110.89
118.11
124.00
127.26
126.56
121.83
114.38
106.14
98.65
92.37
86.61
80.27
72.52
62.98
52.10
40.99
30.84
22.39
15.67
10.16
5.14
0.05
-5.68
-12.32
-19.88
-28.09
-36.49
-44.40
-51.10
-55.81
-57.92
-57.16
-53.70
-48.04
-40.96
-33.27
-25.73
-18.92
-13.26
-9.07
-6.61
-5.98
-7.10
-9.60
-12.95
-16.51
-19.81
-22.61
-24.93
-26.92
-28.66
-30.10
-31.00
-31.16
-30.50
-29.26
-27.91
-26.94
-26.51
-26.29
-25.52
-23.26
-18.91
-12.30
-3.92
5.31
14.31
22.18
28.40
32.90
35.92
37.90
39.60
41.79
44.96
49.28
54.45
59.81
64.59
68.08
69.81
70.17
69.77
69.05
68.00
66.02
62.28
56.18
47.86
38.43
30.76
27.99
32.42
44.60
63.16
85.44
108.52
130.19
149.31
166.89
184.34
202.41
220.51
236.79
248.81
254.21
251.26
231.74
191.57
132.08
61.03
-9.51
-67.91
-107.58
-128.52
-135.90
-135.86
-133.45
-130.56
-126.31
-118.36
-104.46
-83.29
-54.86
-20.66
15.01
47.23
70.54
80.32
74.62
55.42
28.50
1.79
-17.47
-25.34
-21.60
-9.43
6.44
21.86
34.30
42.89
47.71
48.83
46.07
39.50
29.65
17.66
4.97
-7.25
-18.54
-29.16
-39.71
-50.61
-61.51
-71.45
-79.16
-83.69
-84.81
-83.15
-79.92
-76.43
-73.69
-72.06
-71.15
-70.10
-67.84
-63.65
-57.51
-50.16
-42.81
-36.61
-32.22
-29.55
-27.92
-26.26
-23.53
-19.05
-12.70
-5.17
2.09
7.13
8.14
4.25
-3.98
-14.71
-25.58
-34.71
-41.44
-46.35
-50.58
-54.97
-59.39
-62.76
-63.53
-60.62
-53.95
-44.70
-34.95
-27.03
-22.86
-23.33
-28.27
-36.68
-47.13
-58.21
-68.71
-77.85
-85.18
-90.37
-93.05
-92.49
-87.45
-75.99
-55.88
-25.49
14.84
61.80
109.13
149.23
175.80
186.37
183.26
172.32
159.90
149.75
141.46
131.04
113.53
85.74
48.02
4.25
-39.62
-77.44
-104.19
-116.49
-112.68
-92.86
-59.25
-16.50
28.68
68.88
97.93
112.65
113.45
103.47
86.95
67.48
47.00
25.92
3.72
-20.28
-46.32
-73.91
-101.44
-125.97
-143.42
-149.37
-140.60
-116.42
-79.02
-32.62
17.83
67.61
112.60
148.87
172.61
180.81
172.27
148.57
114.04
74.56
35.73
1.40
-26.94
-50.12
-70.41
-90.73
-113.40
-138.97
-165.45
-188.22
-201.37
-199.72
-180.84
-145.70
-98.14
-43.53
12.45
64.34
107.19
136.78
150.07
146.09
126.46
94.73
55.21
11.58
-33.71
-79.01
-122.49
-161.69
-193.62
-215.71
-226.77
-227.36
-219.38
-205.23
-187.08
-166.50
-144.60
-122.24
-100.27
-79.39
-60.00
-41.92
-24.65
-7.63
9.33
25.80
40.87
53.24
61.66
65.39
64.31
58.94
50.17
39.14
26.95
14.64
2.88
-8.08
-18.55
-29.25
-40.90
-53.63
-66.29
-76.41
-80.50
-75.07
-57.51
-27.01
15.11
65.17
117.51
165.32
202.13
223.62
228.80
220.19
202.48
180.37
156.51
130.62
100.33
63.26
19.32
-28.03
-72.10
-104.90
-119.69
-112.87
-84.89
-39.61
17.25
79.23
139.78
192.36
230.41
248.32
243.10
215.95
172.73
122.73
75.46
37.22
8.99
-13.37
-36.60
-66.28
-103.89
-145.63
-183.63
-208.78
-214.00
-196.64
-158.70
-105.55
-43.88
19.90
80.26
132.32
171.54
194.30
198.52
184.50
155.25
115.54
70.40
23.70
-22.72
-68.89
-115.19
-160.57
-201.65
-232.64
-247.07
-240.18
-210.98
-162.81
-102.06
-35.84
29.98
91.13
144.09
184.87
208.68
211.20
190.68
149.59
94.41
33.50
-25.81
-79.56
-127.81
-173.08
-217.99
-263.09
-306.14
-343.01
-369.73
-384.25
-387.15
-380.96
-368.57
-351.70
-330.50
-304.19
-272.37
-236.15
-198.08
-161.29
-128.04
-98.66
-71.47
-43.75
-13.12
21.36
58.58
95.76
129.26
155.74
173.26
181.81
183.10
179.71
174.11
167.89
161.57
155.01
148.07
140.97
134.24
128.31
123.15
118.27
112.98
106.84
99.80
92.17
84.29
76.23
67.72
58.42
48.20
37.36
26.64
16.95
9.13
3.71
0.86
0.49
2.40
6.34
12.00
18.88
26.28
33.37
39.29
43.41
45.53
45.81
44.71
42.78
40.55
38.51
37.16
36.91
38.02
40.42
43.72
47.29
50.55
53.18
55.27
57.23
59.60
62.77
66.83
71.61
76.69
81.64
86.12
89.92
92.94
95.18
96.64
97.25
96.86
95.29
92.37
88.01
82.25
75.28
67.47
59.37
51.64
44.89
39.46
35.28
31.78
28.16
23.75
18.44
12.93
8.51
6.67
8.40
13.86
22.25
32.14
42.01
50.68
57.42
61.96
64.17
63.93
61.12
55.81
48.43
39.82
31.02
22.97
16.20
10.79
6.48
2.94
-0.06
-2.57
-4.59
-6.21
-7.64
-9.20
-11.15
-13.59
-16.45
-19.54
-22.63
-25.53
-28.13
-30.34
-32.11
-33.39
-34.16
-34.43
-34.30
-33.97
-33.75
-34.06
-35.28
-37.76
-41.67
-47.02
-53.60
-60.97
-68.56
-75.68
-81.77
-86.50
-89.87
-92.09
-93.45
-94.04
-93.74
-92.29
-89.51
-85.51
-80.80
-76.12
-72.24
-69.54
-67.83
-66.35
-63.97
-59.67
-52.83
-43.40
-31.75
-18.31
-3.20
13.92
33.57
56.24
81.76
109.13
136.50
161.28
180.21
189.96
187.81
172.58
145.20
108.74
67.91
28.06
-5.97
-30.69
-44.48
-47.54
-41.45
-28.41
-10.44
11.31
36.41
64.60
95.00
125.37
152.19
171.50
180.02
176.03
159.74
132.75
97.08
54.73
7.46
-42.77
-93.14
-139.68
-177.77
-202.98
-212.38
-205.15
-182.48
-146.87
-101.05
-47.48
11.43
72.49
131.38
182.84
221.83
244.86
250.72
240.64
217.62
185.36
147.49
107.03
65.82
24.36
-18.10
-62.88
-110.40
-158.69
-202.78
-235.52
-249.69
-240.34
-206.36
-150.81
-80.12
-2.71
72.40
136.78
183.57
208.46
210.50
192.32
159.42
118.30
74.50
31.05
-11.77
-55.15
-100.05
-145.68
-188.86
-224.91
-249.24
-258.61
-251.73
-228.84
-191.12
-140.60
-80.83
-17.59
41.28
87.48
114.79
121.18
109.14
83.97
51.16
14.40
-24.53
-64.33
-102.61
-135.41
-158.57
-169.68
-169.54
-161.97
-152.00
-143.61
-138.23
-134.78
-130.73
-123.89
-113.47
-100.25
-85.89
-72.08
-59.85
-49.43
-40.62
-33.23
-27.45
-23.81
-22.81
-24.47
-28.21
-32.90
-37.30
-40.58
-42.60
-43.90
-45.39
-47.84
-51.65
-56.62
-62.01
-66.65
-69.05
-67.49
-60.22
-45.70
-23.03
7.69
45.13
86.73
128.86
167.17
197.26
215.73
221.21
215.13
201.12
183.62
165.96
148.77
129.54
103.83
67.43
18.95
-38.86
-99.39
-153.87
-194.02
-214.11
-211.94
-188.60
-147.45
-93.28
-32.20
28.19
79.55
114.45
129.24
125.88
111.51
95.17
83.39
76.67
69.06
51.52
16.96
-35.36
-98.64
-160.85
-209.48
-235.80
-237.15
-216.19
-178.35
-129.46
-74.50
-18.21
33.78
74.96
99.37
104.56
93.29
73.18
53.18
39.20
30.89
21.79
3.08
-31.56
-81.84
-140.06
-193.80
-230.77
-243.04
-229.19
-193.48
-143.02
-84.87
-24.44
33.85
85.27
124.01
144.47
144.38
127.50
104.35
88.99
93.14
120.65
165.16
212.38
245.66
252.30
227.11
173.00
98.61
15.37
-64.83
-131.14
-174.84
-190.39
-176.23
-135.29
-74.62
-4.43
63.51
118.09
151.23
160.07
148.29
125.02
101.28
85.37
79.22
77.57
70.77
49.66
10.11
-44.74
-105.61
-160.48
-198.54
-213.06
-202.36
-168.93
-117.79
-54.88
13.83
82.24
143.80
191.61
219.59
224.51
208.04
177.27
142.87
115.34
100.97
99.59
105.22
108.95
103.01
83.40
50.21
5.99
-46.10
-103.00
-160.96
-214.26
-254.94
-274.66
-267.81
-233.98
-178.74
-111.87
-44.48
13.83
56.83
82.52
93.28
94.89
94.72
98.83
109.08
121.94
129.66
123.73
98.59
53.89
-5.84
-73.23
-140.69
-201.93
-252.35
-288.84
-309.66
-314.79
-306.27
-287.92
-264.47
-240.16
-217.46
-196.54
-175.72
-152.43
-124.65
-92.09
-56.68
-21.94
8.27
31.18
46.09
54.10
57.36
58.18
58.36
59.05
60.88
64.07
68.44
73.27
77.47
80.03
80.39
78.73
75.87
72.80
70.30
68.62
67.57
66.76
65.89
64.84
63.61
62.19
60.48
58.39
55.88
53.14
50.55
48.62
47.90
48.80
51.51
55.96
61.89
68.86
76.39
84.04
91.48
98.44
104.68
109.89
113.64
115.51
115.08
112.16
106.86
99.56
90.86
81.36
71.56
61.77
52.18
42.89
34.15
26.26
19.59
14.42
10.75
8.37
6.87
5.84
5.01
4.33
3.87
3.67
3.64
3.51
3.02
1.93
0.26
-1.82
-4.04
-6.18
-8.14
-9.93
-11.66
-13.41
-15.24
-17.17
-19.25
-21.56
-24.18
-27.05
-29.91
-32.28
-33.48
-32.91
-30.18
-25.30
-18.68
-10.99
-2.96
4.82
11.94
18.22
23.55
27.91
31.26
33.60
34.98
35.56
35.61
35.44
35.37
35.58
36.15
37.03
38.10
39.18
40.12
40.81
41.16
41.15
40.76
40.01
38.89
37.43
35.62
33.50
31.08
28.39
25.47
22.33
19.06
15.75
12.56
9.61
6.99
4.65
2.47
0.31
-1.94
-4.24
-6.52
-8.60
-10.41
-11.95
-13.36
-14.87
-16.73
-19.12
-22.00
-25.07
-27.68
-29.04
-28.37
-25.23
-19.64
-12.04
-3.22
6.03
15.10
23.68
31.71
39.24
46.23
52.50
57.84
62.09
65.31
67.80
70.04
72.53
75.59
79.22
83.09
86.64
89.26
90.50
90.10
88.06
84.53
79.85
74.45
68.86
63.57
58.92
54.97
51.44
47.83
43.62
38.54
32.67
26.38
20.13
14.22
8.72
3.53
-1.49
-6.31
-10.70
-14.27
-16.65
-17.64
-17.33
-16.02
-14.15
-12.12
-10.24
-8.65
-7.34
-6.28
-5.40
-4.71
-4.35
-4.55
-5.66
-7.98
-11.64
-16.51
-22.11
-27.77
-32.81
-36.77
-39.54
-41.26
-42.20
-42.55
-42.33
-41.42
-39.68
-37.13
-33.98
-30.62
-27.42
-24.68
-22.52
-20.87
-19.64
-18.71
-17.98
-17.34
-16.64
-15.77
-14.72
-13.60
-12.68
-12.29
-12.67
-13.88
-15.76
-18.02
-20.34
-22.49
-24.31
-25.79
-26.98
-28.05
-29.21
-30.66
-32.46
-34.49
-36.48
-38.19
-39.54
-40.71
-41.99
-43.64
-45.68
-47.84
-49.66
-50.70
-50.74
-49.77
-47.92
-45.33
-42.02
-37.86
-32.66
-26.31
-18.91
-10.94
-3.18
3.35
7.77
9.67
9.31
7.66
6.06
5.70
7.11
9.90
12.96
15.00
15.11
13.22
10.15
7.34
6.33
8.37
14.13
23.32
34.33
44.04
48.22
43.15
27.96
6.46
-13.20
-21.56
-12.59
12.51
44.67
70.41
77.55
60.27
20.77
-32.79
-90.23
-142.57
-183.21
-207.44
-212.14
-196.93
-165.83
-127.44
-92.48
-69.07
-58.17
-52.56
-40.58
-12.58
32.97
87.34
134.73
159.17
151.36
112.66
54.19
-7.79
-57.22
-82.76
-79.93
-50.90
-3.19
51.85
101.02
131.69
135.03
109.45
62.33
9.27
-30.39
-40.25
-13.23
45.54
120.48
191.40
240.96
259.81
248.06
212.97
164.82
113.83
69.04
37.96
25.81
33.83
57.20
85.10
103.88
102.19
76.17
31.50
-19.13
-61.41
-84.95
-86.90
-72.03
-49.98
-31.45
-24.42
-32.04
-52.07
-78.21
-102.85
-120.53
-130.30
-135.83
-143.40
-158.22
-181.33
-208.60
-232.25
-244.40
-240.80
-222.65
-195.89
-168.44
-146.71
-133.19
-126.23
-121.73
-115.74
-106.53
-94.82
-82.65
-71.65
-61.93
-52.32
-41.55
-29.52
-17.80
-8.93
-5.06
-6.63
-12.02
-18.19
-21.98
-21.51
-16.77
-9.58
-2.63
1.65
2.08
-0.96
-5.92
-10.86
-14.33
-15.89
-16.16
-16.42
-17.90
-21.16
-25.88
-30.87
-34.54
-35.46
-32.84
-26.78
-18.14
-8.18
1.87
11.16
19.30
26.25
32.08
36.75
40.14
42.13
42.81
42.49
41.69
40.95
40.64
40.86
41.50
42.36
43.26
44.12
44.89
45.46
45.67
45.26
44.03
41.96
39.18
35.98
32.65
29.35
26.09
22.76
19.27
15.62
11.88
8.22
4.75
1.44
-1.78
-5.07
-8.45
-11.90
-15.27
-18.43
-21.28
-23.84
-26.21
-28.53
-31.02
-33.87
-37.27
-41.21
-45.43
-49.27
-51.73
-51.70
-48.32
-41.34
-31.18
-18.95
-6.01
6.30
17.00
25.57
31.81
35.82
37.82
38.12
37.16
35.43
33.44
31.63
30.27
29.48
29.24
29.42
29.90
30.54
31.25
31.96
32.63
33.15
33.36
33.04
32.00
30.16
27.68
24.87
22.10
19.63
17.49
15.53
13.54
11.35
8.94
6.44
3.98
1.66
-0.52
-2.61
-4.68
-6.76
-8.89
-11.08
-13.38
-15.80
-18.34
-20.92
-23.39
-25.65
-27.71
-29.75
-32.10
-35.08
-38.79
-42.84
-46.40
-48.31
-47.46
-43.19
-35.54
-25.22
-13.39
-1.28
10.13
20.17
28.53
35.04
39.59
42.11
42.63
41.35
38.71
35.38
32.09
29.44
27.75
26.98
26.76
26.57
25.97
24.79
23.17
21.43
19.84
18.54
17.39
16.17
14.65
12.81
10.76
8.70
6.79
5.10
3.60
2.25
1.03
-0.12
-1.31
-2.72
-4.53
-6.88
-9.72
-12.85
-16.01
-18.92
-21.51
-23.88
-26.28
-29.02
-32.38
-36.46
-41.08
-45.68
-49.35
-51.03
-49.82
-45.24
-37.46
-27.28
-15.88
-4.52
5.82
14.54
21.37
26.33
29.52
31.06
31.13
29.98
28.00
25.68
23.56
22.11
21.61
22.13
23.45
25.19
26.92
28.27
29.03
29.18
28.82
28.12
27.24
26.24
25.06
23.61
21.71
19.21
16.00
12.06
7.46
2.34
-3.08
-8.56
-13.85
-18.70
-22.99
-26.69
-29.91
-32.78
-35.46
-37.98
-40.29
-42.35
-44.23
-46.11
-48.27
-50.96
-54.27
-58.03
-61.74
-64.60
-65.66
-63.98
-58.93
-50.37
-38.74
-25.01
-10.33
4.17
17.65
29.59
39.69
47.73
53.58
57.22
58.89
59.15
58.78
58.57
59.08
60.54
62.74
65.20
67.28
68.43
68.26
66.67
63.76
59.75
54.85
49.13
42.56
35.14
27.04
18.66
10.57
3.36
-2.51
-6.79
-9.37
-10.19
-9.25
-6.66
-2.84
1.45
5.14
7.11
6.61
3.47
-1.78
-8.17
-14.72
-20.79
-26.32
-31.79
-37.83
-44.86
-52.75
-60.75
-67.69
-72.33
-73.78
-71.73
-66.40
-58.40
-48.46
-37.32
-25.76
-14.64
-4.96
2.31
6.51
7.56
6.04
3.02
-0.43
-3.58
-6.22
-8.49
-10.61
-12.59
-14.18
-15.11
-15.30
-15.08
-15.03
-15.72
-17.36
-19.64
-21.85
-23.29
-23.58
-22.88
-21.77
-20.87
-20.50
-20.48
-20.15
-18.61
-15.17
-9.51
-1.75
7.60
17.81
28.07
37.58
45.64
51.66
55.31
56.53
55.53
52.75
48.70
43.82
38.37
32.41
25.79
18.44
10.56
2.80
-3.82
-8.24
-9.82
-8.73
-5.87
-2.40
0.91
4.16
8.19
13.94
21.63
30.35
38.19
43.18
44.14
41.33
36.29
31.15
27.71
26.86
28.34
31.13
33.95
35.73
35.83
34.01
30.29
24.86
18.07
10.43
2.66
-4.41
-9.99
-13.55
-15.03
-14.83
-13.75
-12.71
-12.48
-13.38
-15.15
-17.05
-18.12
-17.51
-14.87
-10.45
-4.93
0.92
6.60
12.11
17.87
24.42
32.11
40.91
50.27
59.17
66.24
69.84
68.54
61.56
49.26
33.33
16.48
1.74
-8.54
-13.28
-12.89
-8.82
-2.84
3.47
8.98
12.89
14.51
13.25
8.69
0.90
-9.47
-21.17
-32.63
-42.35
-49.32
-53.29
-54.70
-54.57
-54.00
-53.83
-54.27
-54.94
-55.09
-54.01
-51.41
-47.50
-42.83
-37.99
-33.23
-28.42
-23.22
-17.41
-11.14
-5.04
-0.02
2.99
3.46
1.51
-2.10
-6.12
-9.25
-10.49
-9.45
-6.40
-2.17
2.10
5.19
6.15
4.53
0.66
-4.33
-8.68
-10.51
-8.49
-2.37
6.83
17.21
26.67
33.57
37.16
37.57
35.40
31.49
26.56
21.30
16.37
12.42
10.04
9.49
10.75
13.36
16.73
20.27
23.63
26.70
29.44
31.75
33.33
33.94
33.54
32.58
31.99
32.93
36.26
42.15
49.67
56.80
60.89
59.10
49.29
30.70
4.29
-27.28
-60.30
-90.96
-116.27
-134.38
-145.09
-149.64
-150.39
-150.30
-152.36
-158.93
-171.20
-188.76
-208.83
-227.40
-239.95
-242.71
-233.67
-213.10
-183.35
-148.21
-111.98
-77.39
-46.12
-18.24
7.35
32.41
58.92
88.65
122.58
160.36
201.45
243.86
285.40
324.04
358.54
388.95
416.47
442.73
459.86
460.85
440.14
397.09
336.10
264.57
189.71
116.31
46.22
-20.68
-81.41
-135.78
-181.93
-216.99
-238.61
-246.05
-240.45
-224.41
-200.05
-169.61
-136.05
-102.03
-70.18
-42.87
-21.74
-7.26
1.18
4.83
5.38
3.98
1.74
-0.55
-2.34
-3.18
-2.72
-0.96
1.50
3.94
5.59
6.32
6.52
6.71
7.28
8.18
8.88
8.54
6.33
1.72
-5.23
-13.86
-23.08
-31.39
-37.14
-38.90
-35.99
-29.14
-20.43
-12.74
-8.63
-9.35
-14.34
-21.64
-28.97
-34.61
-38.02
-39.57
-40.04
-40.19
-40.88
-42.91
-47.02
-52.75
-57.68
-57.45
-47.17
-23.69
12.36
55.90
98.36
130.29
144.58
138.17
113.21
76.27
35.98
0.37
-25.33
-39.69
-44.51
-43.24
-39.24
-34.61
-30.06
-25.66
-21.77
-19.06
-18.22
-19.34
-21.67
-24.00
-25.21
-24.65
-22.49
-19.52
-16.62
-14.56
-13.77
-14.33
-15.98
-18.19
-20.25
-21.44
-21.24
-19.53
-16.82
-13.98
-12.07
-11.79
-13.31
-16.27
-20.20
-24.52
-28.22
-29.55
-26.21
-16.55
-1.07
16.73
31.11
36.48
30.34
15.04
-3.11
-16.64
-20.59
-14.36
-1.47
12.96
24.72
31.99
35.15
35.41
33.78
30.45
25.55
19.41
12.74
6.34
0.63
-4.40
-9.03
-13.37
-17.25
-20.20
-21.61
-20.92
-17.47
-10.61
0.19
14.59
30.86
45.56
54.50
54.48
45.00
28.88
11.32
-1.99
-7.37
-4.25
5.35
17.76
29.28
36.79
37.98
30.59
14.00
-9.90
-36.11
-57.63
-67.90
-63.35
-44.82
-17.03
13.54
41.15
61.86
74.53
80.01
80.01
76.59
71.97
67.85
64.68
60.94
53.42
39.19
17.54
-8.99
-35.15
-55.48
-67.05
-70.51
-68.98
-65.67
-61.86
-56.73
-49.32
-40.38
-32.71
-29.91
-33.98
-43.87
-56.21
-67.04
-73.70
-75.69
-74.33
-70.97
-66.22
-60.29
-52.76
-44.50
-37.57
-34.79
-37.99
-46.90
-58.03
-65.23
-62.29
-45.29
-14.72
24.29
63.74
96.30
117.07
124.80
120.64
106.46
83.36
51.78
13.43
-27.18
-61.64
-80.80
-78.01
-52.71
-11.30
34.91
73.77
96.95
102.30
93.54
76.58
57.16
38.79
22.44
7.86
-5.33
-16.70
-25.13
-29.44
-29.06
-23.91
-14.39
-1.27
14.70
32.57
51.13
68.41
82.00
89.53
89.65
82.50
69.73
53.65
36.32
18.78
0.99
-17.42
-36.37
-54.70
-70.36
-81.13
-85.66
-83.98
-77.43
-68.02
-57.84
-48.41
-40.50
-34.24
-29.00
-23.89
-17.97
-10.74
-2.52
5.43
11.44
13.99
12.57
8.37
3.94
2.58
7.16
19.07
37.51
59.44
80.37
94.38
98.06
90.24
72.37
47.77
20.80
-4.36
-24.58
-38.15
-44.79
-45.26
-41.86
-36.74
-32.19
-29.92
-30.49
-33.21
-36.48
-38.46
-37.58
-33.41
-26.52
-18.16
-9.70
-2.11
4.18
9.26
13.54
17.71
22.44
28.13
34.57
40.92
45.89
48.32
47.84
45.03
41.25
37.77
35.10
32.67
29.42
24.61
18.37
11.54
5.93
3.17
4.15
8.56
15.08
21.99
27.82
31.41
31.94
28.82
21.79
11.06
-3.04
-20.11
-39.11
-58.24
-75.46
-89.43
-100.13
-108.76
-116.95
-126.42
-138.18
-151.56
-164.36
-173.85
-177.87
-175.13
-164.63
-144.99
-115.55
-77.12
-31.82
17.33
66.80
112.92
149.32
167.99
166.77
150.64
126.67
100.50
76.18
57.00
45.51
42.95
48.85
60.96
74.74
84.30
85.04
75.57
57.95
36.45
15.79
-0.19
-9.06
-10.80
-7.75
-3.32
-0.53
-1.35
-6.42
-14.86
-24.65
-32.86
-37.06
-36.11
-30.17
-19.58
-4.95
12.91
33.03
52.70
69.60
82.50
91.37
97.01
101.54
107.27
115.72
126.61
137.79
146.19
148.78
143.66
130.16
109.53
84.07
56.20
27.61
-1.07
-29.90
-59.60
-86.53
-108.30
-123.42
-131.83
-134.98
-135.31
-135.17
-135.50
-135.37
-132.28
-123.96
-109.08
-88.11
-63.42
-38.41
-16.34
0.80
12.57
19.88
23.78
25.36
25.31
23.92
21.17
17.05
11.66
5.12
-2.47
-11.41
-22.04
-34.54
-48.57
-63.18
-76.89
-88.07
-95.53
-98.73
-98.10
-94.62
-89.52
-83.80
-78.02
-72.39
-66.95
-61.82
-57.20
-53.45
-50.79
-49.31
-48.49
-47.27
-44.41
-39.21
-31.80
-23.08
-14.19
-5.92
1.23
7.50
13.67
20.50
28.21
36.44
44.55
52.01
58.52
63.30
65.83
66.05
64.25
60.70
55.39
48.22
39.11
28.20
15.09
-0.11
-16.34
-31.93
-45.30
-55.46
-62.00
-64.99
-59.50
-43.89
-20.90
3.90
25.89
42.99
54.86
61.88
64.68
64.08
60.43
54.54
47.82
41.83
37.55
35.03
33.83
33.48
33.82
34.52
35.53
37.01
39.21
42.03
45.23
48.68
52.85
57.76
62.98
67.65
70.87
71.91
70.37
66.25
60.01
52.18
43.40
34.12
24.70
15.59
7.41
0.78
-3.72
-5.64
-4.99
-2.07
2.41
7.43
11.77
14.31
14.16
10.64
5.20
-1.30
-7.93
-13.93
-18.92
-22.98
-26.59
-30.32
-34.63
-39.58
-45.06
-50.54
-55.31
-58.77
-60.58
-60.80
-59.78
-58.11
-56.26
-54.65
-53.21
-51.49
-48.79
-44.47
-38.17
-29.82
-19.63
-8.05
4.25
16.52
27.91
37.62
45.03
49.94
52.67
53.96
54.73
55.57
56.57
57.34
57.22
55.59
52.20
47.25
41.25
34.87
28.70
23.15
18.46
14.70
11.72
9.33
7.32
5.45
3.60
1.70
-0.27
-2.36
-4.64
-7.30
-10.54
-14.55
-19.39
-25.07
-31.53
-38.60
-46.01
-53.37
-60.41
-66.94
-72.84
-78.00
-82.28
-85.46
-87.10
-86.74
-83.99
-78.97
-72.03
-63.53
-53.74
-42.91
-31.52
-20.16
-9.55
-0.41
6.13
9.48
9.85
8.07
5.12
1.27
-3.43
-8.94
-14.80
-21.20
-27.91
-34.24
-39.34
-42.66
-45.03
-47.27
-49.60
-51.06
-51.26
-49.46
-44.89
-37.07
-26.17
-14.54
-4.16
4.46
20.08
46.63
81.82
119.51
154.09
181.17
194.18
189.05
162.41
114.71
49.76
-25.17
-101.76
-173.73
-223.06
-237.69
-216.74
-171.48
-117.89
-69.84
-34.31
-12.07
0.43
8.68
15.87
24.03
34.21
47.01
61.34
74.81
84.11
86.62
81.65
68.99
50.58
30.45
12.86
1.86
0.07
7.24
20.67
36.27
48.98
55.63
56.24
54.13
52.45
54.81
61.17
68.11
71.44
68.22
58.48
44.79
30.96
19.79
13.09
10.11
9.50
10.07
10.63
10.20
8.10
4.61
0.02
-4.66
-8.24
-10.27
-9.95
-6.12
2.26
15.11
31.18
46.26
55.82
56.57
44.63
20.21
-13.07
-50.00
-86.27
-119.03
-149.57
-180.28
-204.52
-215.23
-209.20
-188.41
-155.67
-117.52
-68.31
-6.31
64.93
138.99
204.39
249.39
266.79
256.13
223.17
178.28
129.38
81.17
35.48
-8.72
-52.72
-96.61
-138.48
-173.75
-194.64
-195.32
-172.97
-128.40
-67.19
1.72
68.22
119.84
142.84
136.16
111.04
81.00
53.82
31.55
14.50
3.69
0.33
4.99
14.82
21.47
14.71
-11.88
-56.57
-109.28
-155.56
-182.68
-184.05
-155.62
-104.35
-44.12
10.42
49.07
68.07
69.33
58.20
41.70
26.98
18.56
18.48
26.97
43.38
66.64
95.48
128.17
162.43
195.38
222.92
241.47
249.23
246.75
236.40
221.20
203.76
185.88
168.64
152.20
136.54
121.52
106.85
92.06
76.79
61.04
45.42
30.80
17.58
5.77
-5.01
-15.11
-24.48
-32.67
-39.07
-43.13
-44.67
-43.99
-41.73
-38.78
-36.04
-34.20
-33.38
-33.02
-31.83
-28.38
-21.80
-12.41
-1.71
8.33
16.14
21.27
24.16
25.52
25.47
23.28
18.03
9.39
-1.74
-13.38
-23.42
-30.74
-35.60
-39.41
-43.73
-49.43
-56.38
-63.73
-70.47
-75.72
-78.83
-79.27
-76.69
-71.14
-63.27
-54.33
-45.77
-38.60
-33.22
-29.36
-26.57
-24.87
-25.03
-28.56
-36.61
-49.15
-64.80
-81.52
-97.62
-112.48
-126.75
-141.54
-157.64
-174.49
-190.19
-202.57
-210.60
-214.88
-216.91
-218.07
-218.89
-219.35
-218.79
-216.37
-211.30
-203.78
-193.92
-181.31
-165.76
-148.45
-133.97
-127.79
-133.79
-152.15
-180.29
-211.63
-236.66
-245.94
-233.38
-201.08
-155.49
-104.24
-53.89
-11.40
19.43
39.45
53.62
68.24
83.93
99.57
113.62
123.76
123.48
107.11
73.51
27.33
-24.54
-81.58
-143.46
-207.25
-241.82
-224.57
-157.72
-66.13
12.18
77.73
133.32
181.95
229.84
280.00
329.49
373.72
410.30
442.13
472.13
494.83
503.22
492.16
458.76
400.37
318.66
209.41
93.02
2.12
-45.00
-50.94
-31.44
-4.53
14.81
19.36
10.17
-4.19
-16.05
-24.64
-31.67
-38.21
-44.03
-48.88
-52.32
-53.81
-51.69
-46.84
-43.73
-45.88
-53.85
-65.73
-79.08
-91.77
-102.75
-111.11
-118.05
-126.41
-138.00
-152.16
-166.22
-176.99
-181.88
-179.95
-171.68
-159.62
-147.31
-137.57
-131.26
-126.17
-120.11
-110.19
-93.92
-69.89
-38.90
-3.75
31.90
64.85
93.43
117.37
137.42
154.00
166.64
174.29
176.57
174.68
171.41
169.97
172.12
177.23
182.29
183.42
177.98
166.00
150.29
135.02
123.85
118.59
119.06
123.84
131.40
140.74
151.50
163.50
176.26
189.12
201.77
215.02
230.50
249.67
272.19
294.99
312.71
319.37
310.79
286.19
248.39
202.49
153.94
106.83
63.74
26.08
-5.51
-31.20
-51.94
-69.75
-87.26
-106.93
-130.18
-156.34
-182.65
-205.15
-220.05
-224.88
-219.10
-204.13
-182.74
-158.71
-135.23
-114.23
-96.62
-82.74
-72.61
-66.18
-63.36
-63.98
