1678364812.00
64.000000
-0.00
-0.00
-0.00
-0.00
-0.00
-0.00
-0.00
-0.00
-0.00
-0.00
0.00
0.01
0.01
-0.00
-0.03
-0.05
-0.05
0.00
0.13
0.36
0.66
1.01
1.37
1.72
2.06
2.40
2.79
3.24
3.80
4.42
5.06
5.66
6.20
6.68
7.15
7.68
8.31
9.14
10.09
11.04
11.88
12.56
13.14
13.76
14.65
15.96
17.91
20.32
22.90
25.38
27.58
29.57
31.68
34.32
37.81
42.54
48.15
54.10
59.83
64.97
69.58
74.14
79.34
85.71
93.76
103.00
112.62
121.73
129.77
136.75
143.30
150.75
157.77
166.64
177.95
191.79
206.97
220.57
228.25
225.36
208.53
176.87
132.76
80.05
23.07
-34.94
-92.44
-149.16
-205.23
-260.37
-313.74
-363.87
-409.83
-450.91
-486.50
-515.74
-537.23
-549.22
-549.96
-538.37
-514.21
-478.67
-433.88
-382.45
-327.02
-269.84
-212.63
-156.66
-102.95
-52.37
-5.90
35.58
71.43
101.35
125.50
144.38
158.69
169.15
176.37
180.75
182.57
182.07
179.51
175.23
169.65
163.18
156.15
148.81
141.30
133.69
126.02
118.33
110.69
103.16
95.80
88.68
81.83
75.25
68.95
62.95
57.25
51.86
46.78
42.03
37.59
33.45
29.61
26.07
22.81
19.83
17.11
14.67
12.48
10.54
8.83
7.35
6.07
4.97
4.05
3.27
2.62
2.09
1.65
1.30
1.01
0.79
0.61
0.47
0.37
0.29
0.23
0.19
0.16
0.15
0.15
0.16
0.17
0.19
0.22
0.26
0.29
0.34
0.38
0.42
0.47
0.52
0.56
0.61
0.67
0.72
0.78
0.85
0.92
1.00
1.09
1.19
1.30
1.42
1.56
1.72
1.89
2.08
2.30
2.54
2.80
3.09
3.42
3.77
4.15
4.57
5.02
5.51
6.04
6.61
7.22
7.87
8.56
9.30
10.08
10.91
11.79
12.70
13.67
14.70
15.78
16.94
18.15
19.41
20.70
21.95
23.11
24.07
24.72
24.94
24.58
23.57
21.83
19.35
16.17
12.36
8.09
3.56
-1.02
-5.43
-9.44
-12.89
-15.65
-17.63
-18.83
-19.26
-19.01
-18.19
-16.93
-15.37
-13.66
-11.91
-10.22
-8.60
-7.02
-5.49
-3.98
-2.46
-0.95
0.54
1.98
3.38
4.82
6.40
8.15
10.08
12.18
14.44
16.74
19.01
21.23
23.48
26.01
28.79
31.84
35.16
38.60
41.91
44.90
47.47
49.81
52.41
55.36
58.82
62.77
66.89
70.60
73.37
74.90
75.41
75.63
75.86
76.43
77.22
77.50
75.96
71.05
61.26
45.11
26.11
5.95
-14.10
-33.47
-52.29
-71.27
-91.44
-113.92
-139.66
-168.86
-201.06
-233.66
-262.10
-280.95
-285.66
-274.39
-248.86
-213.76
-174.92
-137.80
-105.40
-78.28
-55.59
-36.26
-19.87
-6.45
4.02
12.21
19.05
25.74
33.03
40.86
48.45
54.69
58.86
60.91
61.58
61.81
62.46
63.82
65.53
66.77
66.63
64.56
60.62
55.35
49.55
43.91
38.78
34.01
29.19
23.78
17.46
10.21
2.31
-5.73
-13.49
-20.63
-27.04
-32.88
-38.52
-44.51
-51.47
-59.90
-69.80
-80.52
-90.63
-98.16
-101.15
-98.24
-89.18
-74.84
-57.01
-37.76
-18.92
-1.78
13.09
25.61
36.01
44.61
51.69
57.49
62.13
65.68
68.21
69.76
70.40
70.27
69.56
68.51
67.39
66.38
65.58
64.87
64.09
62.95
61.32
59.14
56.44
53.29
49.72
45.74
41.33
36.54
31.43
26.13
20.82
15.62
10.59
5.63
0.63
-4.59
-10.14
-15.98
-21.92
-27.78
-33.41
-38.80
-44.15
-49.72
-55.88
-62.89
-70.86
-79.62
-88.58
-96.70
-102.53
-104.62
-101.81
-93.73
-80.90
-64.74
-47.10
-29.78
-14.14
-0.79
10.28
19.42
26.99
33.22
38.19
41.87
44.39
45.99
47.02
47.77
48.41
48.95
49.26
49.24
48.86
48.28
47.69
47.25
46.90
46.41
45.33
43.26
40.08
36.00
31.55
27.32
23.70
20.67
17.79
14.40
9.91
4.11
-2.84
-10.37
-17.82
-24.64
-30.58
-35.74
-40.56
-45.69
-51.74
-59.12
-67.74
-76.90
-85.29
-91.22
-93.09
-89.81
-81.21
-68.10
-52.07
-35.03
-18.72
-4.37
7.55
17.04
24.50
30.39
35.11
38.90
41.86
44.03
45.45
46.26
46.72
47.17
47.88
48.95
50.27
51.63
52.74
53.46
53.74
53.62
53.14
52.25
50.77
48.54
45.39
41.30
36.42
31.06
25.56
20.19
14.99
9.73
4.08
-2.27
-9.32
-16.79
-24.15
-30.90
-36.85
-42.19
-47.38
-53.00
-59.55
-67.26
-76.12
-85.75
-95.37
-103.77
-109.46
-110.95
-107.22
-98.05
-84.16
-67.06
-48.63
-30.59
-14.19
0.02
12.00
22.08
30.60
37.82
43.85
48.69
52.36
54.91
56.48
57.27
57.52
57.43
57.18
56.95
56.85
56.93
57.12
57.35
57.40
57.10
56.25
54.68
52.25
48.94
44.81
40.03
34.85
29.46
23.95
18.35
12.59
6.57
0.22
-6.43
-13.29
-20.11
-26.62
-32.55
-37.70
-42.06
-45.83
-49.45
-53.50
-58.64
-65.35
-73.71
-83.19
-92.54
-99.98
-103.61
-101.99
-94.62
-82.16
-66.22
-48.85
-31.94
-16.72
-3.69
7.29
16.63
24.66
31.55
37.25
41.71
44.96
47.22
48.82
50.05
51.07
51.89
52.48
52.83
53.04
53.34
53.91
54.74
55.61
56.03
55.45
53.45
49.90
45.11
39.65
34.19
29.23
24.90
20.91
16.74
11.89
6.11
-0.48
-7.40
-14.08
-20.08
-25.29
-29.92
-34.45
-39.42
-45.27
-52.31
-60.60
-69.96
-79.76
-88.89
-95.78
-98.79
-96.57
-88.66
-75.67
-59.17
-41.20
-23.70
-7.97
5.48
16.81
26.38
34.49
41.17
46.30
49.82
51.94
53.12
53.95
54.83
55.83
56.73
57.18
57.02
56.31
55.40
54.57
53.97
53.45
52.63
51.08
48.40
44.44
39.32
33.38
27.14
21.04
15.40
10.30
5.61
1.05
-3.70
-8.85
-14.53
-20.72
-27.24
-33.84
-40.26
-46.26
-51.80
-57.16
-62.90
-69.68
-78.00
-87.75
-97.97
-106.88
-112.29
-112.29
-105.94
-93.58
-76.82
-57.95
-39.18
-22.15
-7.61
4.36
14.13
22.11
28.64
33.94
38.14
41.24
43.17
43.84
43.24
41.53
39.07
36.40
33.99
32.09
30.65
29.32
27.60
25.03
21.39
16.61
10.94
4.71
-1.65
-7.81
-13.48
-18.48
-22.64
-25.80
-27.80
-28.58
-28.27
-27.24
-25.95
-24.90
-24.33
-24.15
-23.95
-23.23
-21.57
-18.97
-15.84
-13.01
-11.56
-12.47
-16.48
-23.67
-33.32
-43.90
-53.26
-59.24
-60.11
-55.19
-44.93
-30.84
-14.95
0.75
14.83
26.69
36.46
44.87
52.81
61.07
70.11
79.92
90.06
99.78
108.14
114.26
117.46
117.47
114.53
109.46
103.45
97.74
93.23
90.18
88.15
86.24
83.49
79.23
73.27
65.89
57.66
49.24
41.21
33.99
27.70
22.14
16.86
11.32
5.19
-1.47
-8.14
-14.15
-19.02
-22.65
-25.34
-27.66
-30.14
-33.34
-37.78
-44.02
-52.50
-63.25
-75.58
-88.04
-98.78
-106.10
-109.00
-107.44
-102.15
-94.16
-84.25
-72.80
-59.84
-45.46
-30.13
-14.86
-0.93
10.60
19.18
24.95
28.44
30.22
30.68
30.06
28.68
27.18
26.48
27.46
30.53
35.43
41.22
46.68
50.65
52.44
51.84
49.15
44.97
39.98
34.73
29.47
24.10
18.22
11.34
3.06
-6.67
-17.52
-28.77
-39.65
-49.50
-57.96
-65.14
-71.40
-77.35
-83.47
-89.94
-96.37
-101.89
-105.18
-104.93
-100.15
-90.50
-76.43
-59.10
-40.12
-21.16
-3.62
11.51
23.86
33.47
40.76
46.27
50.45
53.53
55.48
56.19
55.64
54.04
51.84
49.66
47.96
46.95
46.49
46.12
45.37
43.85
41.47
38.36
34.81
31.11
27.36
23.52
19.40
14.83
9.75
4.27
-1.33
-6.72
-11.57
-15.73
-19.15
-22.01
-24.69
-27.71
-31.72
-37.23
-44.53
-53.32
-62.67
-71.09
-76.80
-78.21
-74.43
-65.53
-52.56
-37.29
-21.76
-7.74
3.59
11.85
17.34
20.79
23.05
24.89
26.81
29.06
31.68
34.54
37.45
40.14
42.32
43.69
44.00
43.17
41.37
39.00
36.60
34.71
33.61
33.27
33.32
33.17
32.22
30.04
26.46
21.58
15.65
9.02
2.09
-4.72
-11.06
-16.80
-22.16
-27.68
-34.07
-41.91
-51.31
-61.63
-71.45
-78.91
-82.15
-80.03
-72.46
-60.63
-46.50
-32.27
-19.64
-9.48
-1.82
3.77
7.70
10.16
11.09
10.46
8.53
5.93
3.54
2.11
1.98
3.00
4.72
6.62
8.41
10.05
11.66
13.33
14.88
16.06
16.50
16.02
14.59
12.36
9.53
6.32
2.87
-0.71
-4.33
-7.99
-11.71
-15.69
-20.18
-25.48
-31.81
-39.09
-46.78
-53.86
-58.97
-60.79
-58.45
-51.92
-42.03
-30.21
-17.97
-6.53
3.55
12.18
19.45
25.52
30.35
33.87
36.10
37.19
37.45
37.28
37.02
36.97
37.24
37.77
38.31
38.53
38.10
36.86
34.90
32.49
29.95
27.43
24.83
21.84
18.19
13.77
8.78
3.61
-1.32
-5.79
-9.80
-13.65
-17.80
-22.80
-29.14
-37.03
-46.23
-55.87
-64.49
-70.26
-71.58
-67.56
-58.34
-45.09
-29.63
-13.94
0.35
12.17
21.13
27.42
31.60
34.33
36.16
37.41
38.16
38.39
38.07
37.36
36.49
35.67
34.95
34.19
33.24
32.02
30.68
29.53
28.82
28.55
28.42
27.94
26.65
24.37
21.33
18.03
14.91
12.16
9.51
6.35
1.98
-4.11
-12.05
-21.70
-32.58
-43.95
-54.69
-63.31
-68.19
-67.88
-61.76
-50.28
-34.89
-17.69
-0.70
14.63
27.66
38.43
47.31
54.61
60.41
64.53
66.68
66.68
64.62
60.94
56.31
51.48
47.07
43.40
40.51
38.18
36.13
34.09
31.92
29.58
27.08
24.43
21.53
18.25
14.37
9.75
4.39
-1.53
-7.68
-13.74
-19.46
-24.87
-30.16
-35.73
-42.07
-49.62
-58.65
-68.97
-79.75
-89.53
-96.40
-98.60
-95.03
-85.75
-71.98
-55.69
-39.04
-23.79
-10.93
-0.69
7.23
13.32
18.03
21.61
24.16
25.71
26.34
26.28
25.87
25.44
25.27
25.45
26.02
26.94
28.16
29.60
31.08
32.40
33.20
33.21
32.21
30.14
27.02
23.05
18.56
13.95
9.70
6.12
3.26
0.87
-1.55
-4.46
-8.13
-12.58
-17.74
-23.49
-29.78
-36.31
-42.35
-46.59
-47.51
-43.94
-35.62
-23.48
-9.32
4.86
17.42
27.49
34.83
39.59
41.94
42.11
40.32
37.03
32.79
28.18
23.54
18.96
14.26
9.19
3.65
-2.20
-7.91
-12.90
-16.64
-18.94
-20.05
-20.65
-21.57
-23.42
-26.42
-30.37
-34.82
-39.34
-43.60
-47.44
-50.79
-53.58
-55.76
-57.32
-58.32
-58.91
-59.37
-60.11
-61.74
-65.01
-70.54
-78.42
-87.88
-97.23
-104.21
-106.63
-103.06
-93.27
-78.22
-59.70
-39.80
-20.43
-3.05
11.44
22.71
30.90
36.54
40.45
43.40
45.96
48.39
50.62
52.51
53.94
54.99
55.78
56.46
57.09
57.64
58.04
58.22
58.09
57.53
56.39
54.49
51.74
48.19
44.04
39.66
35.42
31.64
28.43
25.65
22.89
19.59
15.21
9.51
2.58
-5.14
-13.06
-20.68
-27.82
-34.66
-41.69
-49.32
-57.64
-65.98
-73.00
-76.97
-76.23
-69.75
-57.51
-40.47
-20.32
1.04
21.89
40.96
57.46
71.02
81.49
88.87
93.29
95.09
94.77
93.01
90.48
87.72
84.95
82.05
78.86
75.24
71.31
67.38
63.63
59.96
55.93
50.91
44.41
36.33
27.06
17.34
7.97
-0.50
-7.84
-14.14
-19.62
-24.43
-28.61
-31.94
-34.07
-34.48
-32.70
-28.45
-21.89
-13.68
-5.05
2.34
6.65
6.32
0.51
-10.55
-25.31
-41.12
-54.71
-63.02
-64.07
-57.52
-44.82
-28.68
-12.23
1.94
12.44
19.15
22.95
25.02
26.27
26.93
26.71
25.19
22.21
18.22
14.19
11.11
9.51
9.18
9.30
8.88
7.31
4.72
1.78
-0.76
-2.62
-4.21
-6.40
-9.99
-15.15
-21.15
-26.71
-30.58
-32.14
-31.76
-30.57
-29.95
-30.97
-33.88
-38.25
-43.19
-47.81
-51.51
-54.11
-55.75
-56.77
-57.62
-58.81
-60.88
-64.21
-68.76
-73.90
-78.32
-80.33
-78.37
-71.48
-59.78
-44.42
-27.32
-10.46
4.52
16.68
25.85
32.21
36.10
37.81
37.57
35.77
33.02
30.22
28.26
27.72
28.63
30.47
32.46
33.89
34.41
34.04
33.08
31.86
30.58
29.22
27.63
25.64
23.13
20.09
16.61
12.86
9.00
5.23
1.68
-1.51
-4.27
-6.77
-9.35
-12.67
-17.42
-24.12
-32.58
-41.78
-49.91
-54.89
-55.13
-49.98
-40.02
-26.75
-12.05
2.42
15.51
26.60
35.46
41.99
46.18
48.10
48.04
46.47
43.99
41.17
38.43
35.99
33.93
32.28
31.15
30.61
30.71
31.32
32.19
32.93
33.25
33.02
32.29
31.17
29.73
28.00
25.95
23.57
21.02
18.55
16.37
14.56
12.96
11.23
8.99
5.89
1.65
-3.92
-10.79
-18.59
-26.44
-32.98
-36.69
-36.37
-31.70
-23.45
-13.23
-3.05
5.46
11.38
14.68
15.90
15.71
14.66
13.06
11.15
9.20
7.67
7.11
7.97
10.37
14.07
18.49
23.01
27.10
30.46
32.99
34.71
35.68
35.95
35.61
34.80
33.62
32.11
30.15
27.56
24.08
19.61
14.25
8.28
1.99
-4.46
-11.12
-18.22
-26.15
-35.28
-45.76
-57.40
-69.59
-81.27
-91.04
-97.46
-99.47
-96.66
-89.52
-79.31
-67.76
-56.55
-46.91
-39.47
-34.20
-30.66
-28.26
-26.43
-24.83
-23.38
-22.22
-21.54
-21.39
-21.42
-20.89
-18.94
-14.99
-9.16
-2.36
4.06
8.85
11.34
11.57
10.05
7.36
3.81
-0.55
-5.68
-11.34
-17.04
-22.24
-26.55
-29.97
-32.74
-35.19
-37.62
-40.27
-43.32
-47.00
-51.63
-57.47
-64.46
-72.11
-79.29
-84.41
-85.78
-82.11
-73.02
-59.21
-42.33
-24.43
-7.40
7.51
19.75
29.34
36.55
41.72
45.21
47.41
48.81
49.89
51.04
52.44
54.07
55.83
57.60
59.28
60.83
62.12
62.93
63.08
62.40
60.90
58.72
56.04
52.96
49.51
45.65
41.30
36.45
31.06
25.05
18.38
11.02
3.09
-5.12
-13.27
-21.06
-28.46
-35.79
-43.62
-52.54
-62.77
-73.85
-84.52
-92.96
-97.27
-96.06
-88.94
-76.66
-60.92
-43.77
-27.14
-12.34
0.03
9.99
17.95
24.46
30.03
34.98
39.40
43.19
46.20
48.31
49.61
50.33
50.81
51.34
52.12
53.23
54.63
56.16
57.55
58.39
58.18
56.56
53.45
49.19
44.40
39.63
35.10
30.53
25.30
18.80
10.80
1.62
-8.03
-17.35
-25.76
-33.11
-39.57
-45.49
-51.28
-57.36
-64.16
-72.14
-81.56
-92.10
-102.61
-111.15
-115.47
-113.71
-105.24
-90.87
-72.61
-52.81
-33.32
-14.96
2.36
19.14
35.69
51.70
66.45
78.99
88.68
95.27
98.86
99.84
98.76
96.25
92.99
89.44
85.57
80.83
74.42
65.85
55.50
44.72
35.32
28.76
25.24
23.53
21.45
16.90
8.95
-1.58
-12.45
-20.83
-24.61
-23.26
-18.25
-12.51
-9.43
-12.00
-22.14
-40.51
-66.08
-95.92
-125.23
-148.16
-159.65
-157.45
-143.41
-122.84
-102.22
-86.15
-75.50
-67.64
-58.65
-46.12
-30.52
-14.67
-1.57
7.63
14.32
21.24
30.52
42.23
54.30
63.77
68.44
68.21
65.00
61.64
60.47
62.22
65.97
69.81
72.09
72.22
70.76
69.02
68.09
68.32
69.10
69.28
67.77
64.10
58.63
52.28
46.15
40.91
36.63
32.74
28.49
23.26
16.88
9.75
2.53
-4.12
-9.91
-15.02
-20.14
-26.09
-33.67
-43.21
-54.44
-66.38
-77.39
-85.59
-89.25
-87.28
-79.63
-67.30
-52.11
-36.17
-21.34
-8.84
0.81
7.65
12.04
14.37
15.05
14.50
13.16
11.51
9.97
8.81
8.14
7.90
8.01
8.50
9.54
11.39
14.22
18.02
22.49
27.02
30.87
33.26
33.69
31.96
28.30
23.19
17.20
10.83
4.30
-2.31
-9.15
-16.51
-24.81
-34.64
-46.60
-61.01
-77.56
-95.08
-111.67
-125.15
-133.51
-135.49
-130.54
-118.80
-100.84
-77.57
-50.29
-20.79
8.72
36.03
59.38
77.79
91.25
100.39
106.19
109.59
111.43
112.39
112.99
113.66
114.69
116.34
118.79
122.28
127.03
133.03
139.83
146.31
150.80
151.34
146.29
134.84
117.27
94.87
69.55
43.32
17.91
-5.33
-25.36
-41.51
-53.50
-61.75
-67.45
-72.44
-78.71
-87.81
-100.25
-115.29
-131.14
-145.52
-156.35
-162.20
-162.41
-156.91
-145.99
-130.17
-110.33
-87.94
-65.05
-44.02
-26.84
-14.59
-7.11
-3.25
-1.46
-0.58
-0.18
-0.41
-1.56
-3.51
-5.68
-7.23
-7.53
-6.52
-4.63
-2.59
-0.96
0.11
0.95
2.16
4.37
7.96
12.85
18.56
24.27
29.12
32.26
33.15
31.76
28.57
24.53
20.65
17.54
15.07
12.52
8.88
3.66
-2.73
-8.94
-13.19
-14.15
-11.43
-5.77
1.56
9.37
16.90
23.90
30.17
35.42
39.20
41.26
41.76
41.30
40.65
40.36
40.56
40.93
40.97
40.24
38.56
35.92
32.53
28.69
24.82
21.47
19.02
17.59
16.84
15.90
13.79
9.74
3.69
-3.63
-10.94
-16.87
-20.55
-21.93
-21.81
-21.53
-22.67
-26.54
-33.75
-43.75
-54.62
-63.23
-66.07
-60.41
-45.49
-22.96
3.53
29.48
51.04
65.93
73.62
75.00
71.64
65.38
58.01
51.10
45.81
42.62
41.20
40.54
39.49
37.20
33.50
28.91
24.40
20.91
19.13
19.33
21.40
24.95
29.36
33.84
37.50
39.52
39.40
37.15
33.32
28.78
24.40
20.54
16.94
12.78
7.01
-1.20
-12.14
-25.41
-40.00
-54.40
-66.91
-75.92
-80.31
-79.72
-74.73
-66.54
-56.54
-45.82
-34.93
-24.06
-13.46
-3.71
4.27
9.72
12.44
13.04
12.73
12.74
13.81
15.95
18.66
21.28
23.45
25.21
26.91
28.97
31.57
34.65
37.83
40.52
42.02
41.76
39.48
35.41
30.32
25.30
21.38
19.11
18.23
17.64
15.78
11.04
2.42
-10.13
-25.48
-41.60
-55.92
-66.04
-70.26
-68.04
-60.06
-47.89
-33.50
-18.71
-4.82
7.42
17.74
26.11
32.64
37.55
41.15
43.74
45.52
46.56
46.77
46.04
44.44
42.29
40.05
38.16
36.89
36.13
35.53
34.54
32.69
29.73
25.59
20.35
14.05
6.67
-1.88
-11.64
-22.41
-33.77
-45.14
-56.03
-66.14
-75.56
-84.57
-93.65
-103.23
-113.58
-124.60
-135.75
-145.94
-153.61
-157.06
-154.91
-146.61
-132.62
-114.40
-94.07
-73.76
-55.16
-39.27
-26.35
-16.18
-8.28
-2.11
2.80
6.83
10.18
12.91
14.88
15.84
15.47
13.61
10.32
5.99
1.17
-3.62
-8.16
-12.72
-17.92
-24.51
-33.02
-43.64
-56.08
-69.84
-84.44
-99.60
-115.22
-131.15
-147.11
-162.57
-176.88
-189.45
-200.01
-208.50
-215.09
-220.06
-223.71
-226.39
-228.40
-229.76
-229.87
-227.31
-219.94
-205.41
-181.87
-148.74
-106.95
-58.78
-7.27
44.41
93.56
138.23
177.22
210.01
236.55
257.13
272.34
283.01
290.18
294.92
298.18
300.53
302.01
302.24
300.72
297.11
291.58
284.74
277.45
270.52
264.42
259.19
254.56
250.15
245.58
240.61
235.08
228.89
221.94
214.14
205.44
195.83
185.39
174.23
162.42
149.96
136.69
122.34
106.58
89.26
70.59
51.29
32.59
15.97
2.75
-6.34
-11.48
-13.71
-14.65
-15.96
-18.92
-24.11
-31.46
-40.42
-50.30
-60.46
-70.46
-79.97
-88.74
-96.56
-103.26
-108.72
-112.92
-115.93
-117.84
-118.68
-118.38
-116.86
-114.05
-110.06
-105.15
-99.75
-94.29
-89.09
-84.30
-80.00
-76.21
-73.07
-70.77
-69.47
-69.21
-69.83
-70.99
-72.42
-74.03
-76.03
-78.93
-83.26
-89.45
-97.54
-107.05
-116.99
-125.92
-132.21
-134.32
-131.21
-122.71
-109.60
-93.52
-76.57
-60.74
-47.46
-37.40
-30.54
-26.44
-24.60
-24.62
-26.29
-29.47
-33.98
-39.59
-46.01
-53.02
-60.51
-68.23
-75.77
-82.40
-87.31
-90.04
-90.69
-89.96
-88.73
-87.49
-86.06
-83.79
-80.09
-74.91
-68.92
-63.13
-58.33
-54.72
-51.93
-49.54
-47.40
-45.89
-45.65
-47.22
-50.73
-56.04
-62.94
-71.41
-81.55
-93.26
-105.86
-117.98
-127.82
-133.59
-134.06
-128.93
-118.77
-104.80
-88.42
-70.88
-53.01
-35.29
-17.88
-0.97
15.15
29.97
42.97
53.87
62.87
70.72
78.49
87.20
97.34
108.78
120.81
132.49
143.02
151.92
159.08
164.62
168.66
171.35
172.83
173.39
173.38
173.25
173.22
173.21
172.82
171.51
168.85
164.78
159.69
154.16
148.76
143.77
139.04
134.18
128.83
122.90
116.84
111.46
107.73
106.50
108.17
112.55
118.95
126.28
133.39
139.25
143.14
144.74
143.94
140.80
135.47
128.17
119.21
108.94
97.71
85.69
72.83
58.92
43.78
27.49
10.57
-6.18
-21.83
-35.72
-47.53
-57.34
-65.45
-72.16
-77.68
-82.06
-85.32
-87.59
-89.11
-90.32
-91.66
-93.49
-95.89
-98.64
-101.27
-103.28
-104.37
-104.57
-104.21
-103.95
-104.45
-106.22
-109.35
-113.31
-117.05
-119.09
-117.96
-112.71
-103.02
-89.48
-73.31
-56.03
-39.14
-23.81
-10.75
-0.14
8.25
14.90
20.38
25.13
29.33
32.93
35.67
37.32
37.77
37.07
35.46
33.29
30.96
28.81
27.08
25.81
24.82
23.80
22.41
20.42
17.76
14.52
10.87
6.92
2.74
-1.68
-6.37
-11.33
-16.48
-21.70
-26.89
-31.91
-36.72
-41.37
-46.05
-51.10
-56.89
-63.62
-71.06
-78.40
-84.26
-87.04
-85.38
-78.66
-67.23
-52.35
-35.81
-19.41
-4.59
7.85
17.72
25.27
31.03
35.51
39.13
42.04
44.23
45.55
45.86
45.19
43.70
41.70
39.50
37.37
35.45
33.82
32.50
31.42
30.42
29.22
27.47
24.88
21.31
16.81
11.64
6.13
0.58
-4.85
-10.10
-15.24
-20.40
-25.68
-31.20
-37.13
-43.64
-50.92
-58.98
-67.53
-75.81
-82.61
-86.56
-86.46
-81.69
-72.45
-59.72
-44.93
-29.67
-15.18
-2.29
8.66
17.70
25.04
31.02
35.99
40.24
44.02
47.43
50.49
53.08
55.03
56.11
56.21
55.34
53.74
51.74
49.75
48.02
46.52
44.98
43.05
40.45
37.14
33.25
28.99
24.45
19.57
14.21
8.30
1.96
-4.44
-10.49
-15.91
-20.67
-25.12
-29.79
-35.35
-42.23
-50.51
-59.67
-68.60
-75.71
-79.29
-77.95
-71.02
-58.84
-42.65
-24.27
-5.69
11.45
26.08
37.75
46.55
52.89
57.25
60.10
61.68
62.06
61.13
58.77
54.97
49.85
43.73
36.98
30.08
23.50
17.71
13.07
9.77
7.70
6.53
5.78
5.02
4.01
2.74
1.37
0.09
-0.99
-1.90
-2.76
-3.70
-4.82
-6.13
-7.56
-8.95
-10.18
-11.20
-12.20
-13.63
-16.17
-20.52
-27.03
-35.37
-44.34
-52.06
-56.39
-55.61
-48.96
-36.97
-21.25
-4.08
12.36
26.44
37.39
45.21
50.32
53.32
54.70
54.86
54.14
52.90
51.50
50.27
49.35
48.75
48.28
47.81
47.27
46.74
46.29
45.90
45.31
44.02
41.46
37.15
30.87
22.66
12.73
1.34
-11.26
-24.84
-39.02
-53.33
-67.14
-79.85
-91.02
-100.54
-108.60
-115.72
-122.52
-129.60
-137.24
-145.14
-152.30
-157.16
-157.98
-153.39
-142.85
-126.97
-107.27
-85.84
-64.69
-45.38
-28.80
-15.22
-4.53
3.58
9.46
13.50
16.09
17.63
18.49
18.96
19.22
19.38
19.54
19.88
20.72
22.45
25.38
29.54
34.66
40.20
45.53
50.14
53.67
55.88
56.68
56.02
54.01
50.82
46.75
42.04
36.77
30.85
24.12
16.55
8.30
-0.24
-8.73
-17.12
-25.75
-35.33
-46.54
-59.63
-73.98
-88.04
-99.65
-106.63
-107.47
-101.86
-90.76
-76.08
-60.08
-44.75
-31.40
-20.54
-12.02
-5.38
-0.02
4.54
8.69
12.68
16.69
20.83
25.14
29.57
34.02
38.38
42.55
46.58
50.62
54.85
59.36
64.04
68.63
72.72
75.93
78.03
78.91
78.63
77.25
74.79
71.19
66.32
60.07
52.41
43.48
33.53
22.99
12.31
1.86
-8.21
-18.08
-28.25
-39.29
-51.57
-64.83
-77.98
-89.18
-96.20
-97.07
-90.66
-77.06
-57.56
-34.38
-10.08
13.09
33.54
50.67
64.64
76.13
85.89
94.43
101.95
108.36
113.59
117.72
121.07
124.01
126.71
129.05
130.58
130.79
129.39
126.42
122.17
117.03
111.27
104.94
98.07
90.76
83.32
76.18
69.72
64.03
58.77
53.33
46.94
39.02
29.25
17.77
5.03
-8.27
-21.48
-34.23
-46.56
-58.97
-72.14
-86.46
-101.58
-116.29
-128.73
-136.93
-139.43
-135.63
-125.94
-111.56
-94.11
-75.40
-57.05
-40.42
-26.32
-15.00
-6.17
0.82
6.67
11.85
16.49
20.44
23.45
25.36
26.21
26.24
25.79
25.21
24.81
24.70
24.87
25.11
25.12
24.55
23.12
20.71
17.36
13.30
8.84
4.36
0.13
-3.79
-7.55
-11.46
-15.78
-20.60
-25.73
-30.78
-35.24
-38.66
-40.87
-41.99
-42.56
-43.36
-45.16
-48.37
-52.67
-56.86
-59.13
-57.63
-51.23
-39.99
-25.07
-8.38
8.17
23.21
35.96
46.10
53.53
58.13
59.89
59.08
56.34
52.71
49.30
47.00
46.27
47.08
49.04
51.60
54.23
56.47
57.95
58.24
57.02
54.09
49.52
43.69
37.18
30.48
23.78
16.82
8.99
-0.46
-12.07
-25.94
-41.56
-57.77
-72.94
-85.28
-93.32
-96.39
-94.83
-89.96
-83.54
-77.22
-72.05
-68.37
-65.87
-63.89
-61.57
-57.94
-51.98
-42.81
-30.03
-14.06
3.87
21.91
38.26
51.73
62.04
69.73
75.68
80.70
85.21
89.31
92.89
95.83
98.13
99.85
101.04
101.79
102.21
102.41
102.56
102.71
102.78
102.57
101.80
100.28
98.03
95.26
92.31
89.54
87.15
85.07
82.88
79.90
75.18
67.74
56.61
40.97
20.28
-5.52
-35.88
-69.61
-104.99
-140.01
-172.70
-201.45
-225.00
-242.60
-253.98
-259.22
-258.74
-253.20
-243.30
-229.73
-213.08
-193.93
-172.88
-150.67
-127.97
-105.44
-83.55
-62.69
-43.22
-25.56
-10.14
2.80
13.26
21.65
28.59
34.81
40.89
47.20
53.95
61.15
68.76
76.60
84.38
91.66
98.01
103.01
106.40
108.04
107.90
106.11
102.93
98.77
94.11
89.44
84.98
80.66
76.09
70.61
63.52
54.19
42.25
27.77
11.37
-5.70
-21.70
-34.71
-43.17
-46.35
-44.64
-39.39
-32.56
-25.94
-20.81
-17.62
-16.24
-16.28
-17.45
-19.73
-23.33
-28.41
-34.93
-42.54
-50.64
-58.63
-66.08
-72.85
-79.03
-84.83
-90.37
-95.65
-100.50
-104.71
-108.17
-110.84
-112.77
-113.97
-114.38
-113.84
-112.26
-109.72
-106.54
-103.19
-100.15
-97.63
-95.57
-93.72
-91.75
-89.46
-86.84
-84.04
-81.44
-79.50
-78.75
-79.71
-82.64
-87.33
-92.93
-97.92
-100.39
-98.55
-91.18
-78.08
-60.08
-38.82
-16.26
5.84
26.21
44.26
59.89
73.34
84.93
94.94
103.60
111.00
117.15
121.94
125.31
127.30
128.19
128.39
128.24
127.77
126.50
123.60
118.21
109.75
98.19
83.80
66.99
47.92
26.47
2.44
-24.13
-52.58
-81.51
-108.78
-131.87
-148.21
-155.97
-154.55
-145.01
-129.96
-113.05
-98.02
-87.84
-84.07
-86.65
-94.11
-103.89
-112.90
-118.14
-117.29
-109.26
-94.41
-74.44
-51.82
-29.11
-8.24
9.74
24.68
37.01
47.33
56.12
63.58
69.72
74.52
78.15
80.89
83.02
84.69
85.74
85.88
84.97
83.19
81.10
79.35
78.35
77.95
77.52
76.28
73.68
69.66
64.68
59.40
54.40
49.95
45.97
42.07
37.74
32.57
26.34
19.19
11.46
3.65
-3.80
-10.80
-17.61
-24.81
-33.12
-43.09
-54.88
-68.03
-81.46
-93.53
-102.35
-106.25
-104.18
-96.03
-82.68
-65.74
-47.15
-28.68
-11.67
3.18
15.76
26.41
35.68
44.12
52.12
59.78
66.91
73.21
78.39
82.24
84.73
85.94
86.08
85.34
83.96
82.18
80.22
78.16
75.92
73.25
69.86
65.57
60.36
54.52
48.44
42.55
37.10
32.16
27.54
22.92
17.96
12.43
6.32
-0.18
-6.71
-12.96
-18.76
-24.25
-29.81
-36.02
-43.37
-52.01
-61.60
-71.18
-79.29
-84.29
-84.85
-80.25
-70.68
-57.12
-41.10
-24.28
-8.13
6.36
18.62
28.58
36.46
42.70
47.73
51.89
55.28
57.80
59.27
59.55
58.71
57.00
54.82
52.60
50.69
49.26
48.29
47.59
46.89
45.94
44.63
42.93
40.82
38.21
34.97
30.88
25.84
19.88
13.22
6.20
-0.92
-7.92
-14.71
-21.30
-27.81
-34.46
-41.66
-49.93
-59.66
-70.73
-82.24
-92.52
-99.48
-101.23
-96.79
-86.33
-71.18
-53.38
-35.02
-17.77
-2.60
10.23
20.89
29.82
37.43
43.93
49.44
53.94
57.37
59.75
61.18
61.78
61.64
60.90
59.78
58.61
57.80
57.75
58.54
59.79
60.85
60.88
59.31
56.04
51.48
46.32
41.15
36.21
31.33
26.09
20.06
13.06
5.28
-2.85
-10.82
-18.21
-24.86
-30.96
-37.01
-43.70
-51.69
-61.22
-71.89
-82.46
-91.06
-95.68
-94.81
-87.89
-75.53
-59.31
-41.27
-23.40
-7.22
6.41
17.35
25.85
32.50
37.91
42.65
47.06
51.22
55.04
58.24
60.54
61.73
61.78
60.86
59.24
57.33
55.48
54.04
53.17
52.83
52.73
52.35
51.07
48.43
44.28
38.89
32.81
26.62
20.67
14.91
9.02
2.65
-4.46
-12.17
-20.07
-27.60
-34.27
-39.88
-44.55
-48.78
-53.28
-58.80
-65.84
-74.38
-83.69
-92.34
-98.50
-100.38
-96.85
-87.66
-73.67
-56.51
-38.19
-20.57
-4.95
8.06
18.51
26.82
33.55
39.17
43.91
47.82
50.85
52.97
54.19
54.56
54.15
53.00
51.20
48.90
46.36
43.93
41.93
40.54
39.71
39.20
38.62
37.58
35.79
33.20
29.96
26.42
22.91
19.57
16.29
12.70
8.41
3.18
-2.91
-9.48
-16.06
-22.31
-28.18
-33.91
-40.00
-46.93
-55.06
-64.40
-74.45
-84.23
-92.31
-97.10
-97.25
-92.13
-81.97
-67.97
-51.79
-35.19
-19.61
-5.89
5.57
14.76
21.81
26.91
30.31
32.35
33.42
33.91
34.14
34.23
34.16
33.88
33.40
32.87
32.50
32.49
32.86
33.44
33.92
33.96
33.40
32.25
30.67
28.81
26.70
24.18
21.03
17.05
12.18
6.58
0.52
-5.69
-11.80
-17.74
-23.64
-29.83
-36.77
-44.89
-54.34
-64.82
-75.36
-84.49
-90.48
-91.88
-87.96
-78.90
-65.78
-50.20
-33.91
-18.38
-4.62
6.92
16.20
23.54
29.38
34.15
38.14
41.43
43.95
45.59
46.30
46.19
45.48
44.49
43.47
42.62
41.95
41.35
40.58
39.34
37.39
34.59
30.97
26.67
21.93
16.89
11.65
6.22
0.66
-4.92
-10.32
-15.29
-19.69
-23.53
-26.98
-30.38
-34.19
-38.91
-45.03
-52.81
-62.06
-71.92
-80.84
-86.92
-88.47
-84.58
-75.46
-62.43
-47.42
-32.37
-18.76
-7.29
2.04
9.61
15.91
21.35
26.16
30.33
33.81
36.46
38.27
39.35
39.92
40.30
40.74
41.40
42.27
43.28
44.27
45.02
45.33
45.01
43.88
41.81
38.81
35.02
30.73
26.22
21.73
17.32
12.85
8.08
2.84
-2.85
-8.73
-14.40
-19.55
-24.15
-28.46
-33.10
-38.71
-45.81
-54.48
-64.21
-73.89
-81.97
-86.81
-87.12
-82.37
-72.94
-60.02
-45.26
-30.35
-16.54
-4.51
5.60
14.01
21.08
27.07
32.15
36.35
39.69
42.19
43.88
44.84
45.21
45.17
44.93
44.70
44.55
44.47
44.30
43.82
42.80
41.15
38.92
36.29
33.39
30.33
27.06
23.41
19.17
14.23
8.68
2.78
-3.12
-8.63
-13.59
-18.03
-22.22
-26.62
-31.74
-38.06
-45.77
-54.62
-63.75
-71.67
-76.67
-77.18
-72.42
-62.66
-49.21
-33.94
-18.78
-5.10
6.41
15.71
23.09
28.92
33.40
36.60
38.55
39.35
39.29
38.75
38.17
37.89
38.04
38.54
39.18
39.79
40.34
40.90
41.57
42.29
42.76
42.52
41.19
38.64
35.16
31.25
27.44
23.96
20.62
16.96
12.46
6.85
0.30
-6.69
-13.48
-19.60
-24.90
-29.64
-34.33
-39.58
-45.81
-53.19
-61.49
-70.01
-77.64
-82.97
-84.60
-81.52
-73.48
-61.20
-46.22
-30.48
-15.78
-3.35
6.39
13.66
19.06
23.24
26.61
29.35
31.45
32.88
33.68
33.98
33.92
33.68
33.30
32.78
32.12
31.39
30.71
30.23
30.00
29.94
29.78
29.21
27.91
25.73
22.67
18.91
14.77
10.60
6.57
2.75
-1.01
-4.98
-9.37
-14.22
-19.35
-24.44
-29.13
-33.21
-36.72
-39.96
-43.41
-47.58
-52.88
-59.43
-66.97
-74.70
-81.39
-85.55
-85.85
-81.52
-72.72
-60.46
-46.37
-32.14
-19.14
-8.10
0.81
7.80
13.23
17.51
21.04
24.15
27.12
29.96
32.51
34.42
35.38
35.30
34.36
33.02
31.84
31.29
31.53
32.39
33.44
34.17
34.19
33.32
31.64
29.40
26.82
24.03
21.02
17.71
14.01
9.92
5.50
0.83
-3.98
-8.80
-13.52
-17.99
-22.14
-26.05
-29.97
-34.35
-39.56
-45.80
-52.70
-59.35
-64.36
-66.29
-64.14
-57.66
-47.47
-34.87
-21.36
-8.24
3.59
13.63
21.67
27.73
31.95
34.61
36.19
37.17
37.98
38.82
39.64
40.21
40.26
39.63
38.35
36.70
35.04
33.72
32.93
32.54
32.20
31.44
29.84
27.18
23.57
19.32
14.87
10.59
6.64
3.01
-0.49
-4.10
-8.04
-12.37
-17.01
-21.80
-26.54
-31.17
-35.77
-40.59
-45.96
-52.14
-59.13
-66.50
-73.35
-78.39
-80.27
-77.93
-70.99
-59.88
-45.80
-30.37
-15.23
-1.64
9.70
18.68
25.58
30.86
34.96
38.20
40.76
42.72
44.13
44.95
45.15
44.63
43.37
41.38
38.91
36.35
34.17
32.77
32.23
32.29
32.36
31.77
30.02
27.00
23.03
18.76
14.80
11.52
8.88
6.49
3.85
0.51
-3.62
-8.38
-13.44
-18.40
-23.04
-27.30
-31.33
-35.45
-40.06
-45.55
-52.08
-59.41
-66.77
-72.88
-76.25
-75.61
-70.38
-60.86
-48.23
-34.14
-20.27
-7.86
2.48
10.72
17.18
22.23
26.24
29.40
31.88
33.78
35.24
36.35
37.17
37.72
37.99
37.97
37.71
37.33
36.89
36.42
35.85
34.97
33.56
31.43
28.56
25.10
21.34
17.57
13.97
10.52
7.00
3.14
-1.25
-6.10
-11.22
-16.28
-20.99
-25.24
-29.16
-33.13
-37.65
-43.20
-49.96
-57.70
-65.55
-72.14
-75.93
-75.66
-70.78
-61.66
-49.50
-35.91
-22.46
-10.23
0.23
8.87
15.90
21.58
26.17
29.93
33.13
36.05
38.82
41.40
43.52
44.86
45.18
44.47
43.04
41.37
39.94
39.02
38.50
37.98
36.95
34.98
31.98
28.19
24.11
20.24
16.89
14.04
11.33
8.30
4.53
-0.13
-5.47
-11.07
-16.49
-21.40
-25.70
-29.55
-33.23
-37.14
-41.65
-47.08
-53.57
-60.80
-67.87
-73.35
-75.61
-73.36
-66.14
-54.57
-40.16
-24.81
-10.19
2.60
13.16
21.63
28.40
33.86
38.26
41.70
44.21
45.78
46.54
46.65
46.32
45.69
44.79
43.58
42.03
40.26
38.51
37.00
35.88
35.04
34.19
32.99
31.20
28.79
25.91
22.84
19.80
16.93
14.22
11.49
8.50
5.02
0.90
-3.85
-9.09
-14.52
-19.85
-24.85
-29.47
-33.82
-38.21
-43.08
-48.84
-55.74
-63.58
-71.59
-78.42
-82.51
-82.43
-77.49
-67.95
-54.98
-40.25
-25.46
-11.79
0.12
10.22
18.65
25.57
31.09
35.26
38.22
40.22
41.54
42.44
43.03
43.33
43.32
42.97
42.36
41.64
40.99
40.57
40.41
40.40
40.26
39.64
38.21
35.83
32.53
28.60
24.45
20.41
16.63
13.02
9.31
5.23
0.61
-4.50
-9.90
-15.31
-20.52
-25.38
-29.89
-34.17
-38.48
-43.17
-48.62
-55.04
-62.25
-69.48
-75.49
-78.81
-78.20
-73.10
-63.88
-51.68
-38.14
-24.84
-12.98
-3.12
4.71
10.89
15.97
20.43
24.63
28.72
32.62
36.16
39.06
41.12
42.24
42.54
42.27
41.75
41.30
41.15
41.41
42.10
43.11
44.21
45.01
45.08
44.04
41.69
38.14
33.77
29.07
24.44
20.08
15.89
11.58
6.83
1.45
-4.47
-10.58
-16.45
-21.64
-26.02
-29.75
-33.28
-37.16
-41.89
-47.75
-54.61
-61.95
-68.82
-73.97
-76.12
-74.26
-68.08
-58.04
-45.34
-31.60
-18.39
-6.87
2.41
9.50
14.79
18.84
22.12
24.93
27.39
29.46
31.10
32.26
33.02
33.47
33.67
33.66
33.44
33.06
32.62
32.24
32.02
31.94
31.83
31.41
30.35
28.40
25.52
21.87
17.80
13.69
9.81
6.28
3.01
-0.17
-3.48
-7.00
-10.69
-14.46
-18.18
-21.78
-25.27
-28.74
-32.38
-36.42
-41.09
-46.59
-52.90
-59.60
-65.83
-70.36
-72.01
-69.89
-63.78
-54.22
-42.27
-29.32
-16.63
-5.12
4.69
12.66
18.86
23.49
26.74
28.75
29.58
29.36
28.32
26.86
25.36
24.23
23.76
23.98
24.56
24.85
24.29
22.57
19.80
16.37
12.81
9.76
7.51
5.68
3.39
-0.31
-5.97
-13.40
-21.97
-30.64
-38.08
-43.43
-46.75
-49.15
-52.15
-56.98
-63.95
-72.54
-80.92
-85.66
-82.72
-68.77
-42.90
-7.08
33.91
73.69
104.45
117.69
110.05
86.73
59.25
38.75
31.99
38.65
55.68
78.35
101.51
120.98
131.73
130.40
116.34
92.12
62.73
33.98
10.41
-5.47
-12.97
-13.01
-7.64
0.31
7.94
12.84
13.86
10.87
4.89
-2.15
-8.21
-11.86
-12.89
-12.18
-11.19
-11.25
-13.30
-17.51
-23.22
-29.36
-34.77
-38.70
-41.02
-42.20
-43.07
-44.68
-47.94
-53.27
-60.48
-68.62
-76.19
-81.43
-82.71
-79.06
-70.48
-57.92
-43.08
-27.99
-14.25
-2.73
6.59
14.29
21.12
27.60
33.92
39.87
44.76
47.98
49.42
49.52
49.02
48.65
48.83
49.61
50.68
50.89
49.45
46.29
42.22
38.37
35.64
34.38
34.43
35.18
34.55
30.59
21.92
8.35
-9.30
-29.44
-49.86
-68.11
-82.14
-92.57
-101.08
-109.78
-119.88
-131.33
-142.93
-152.76
-158.92
-151.59
-126.35
-85.98
-40.11
0.93
30.51
46.11
48.13
38.98
22.88
2.23
-19.17
-37.98
-51.57
-59.07
-61.29
-59.76
-55.86
-50.35
-44.88
-38.45
-31.05
-22.30
-11.64
1.18
15.98
31.76
47.16
60.01
68.79
72.78
72.62
69.72
65.47
61.12
56.94
53.13
49.31
45.16
40.10
33.73
25.70
15.71
4.20
-9.04
-23.32
-37.93
-52.18
-65.87
-79.26
-93.02
-107.95
-123.56
-140.17
-156.35
-169.99
-179.02
-182.13
-179.14
-170.89
-158.81
-143.10
-125.61
-106.34
-84.72
-60.02
-31.86
-0.56
32.96
60.43
89.28
118.85
150.39
184.89
221.63
257.49
287.25
305.25
307.56
294.67
268.15
232.36
191.61
149.31
108.72
74.18
51.27
44.81
56.54
80.59
106.74
123.90
125.04
110.28
86.05
60.89
40.82
27.42
17.38
7.41
-3.19
-11.91
-14.92
-9.79
2.89
20.02
38.01
53.88
66.77
77.23
85.87
92.39
95.34
92.71
82.93
65.99
43.56
18.87
-4.33
-22.95
-35.51
-42.39
-45.35
-46.63
-47.95
-49.92
-52.11
-53.66
-54.00
-53.35
-52.58
-52.83
-54.90
-58.92
-64.29
-69.96
-74.82
-77.97
-79.02
-78.02
-75.44
-71.98
-68.29
-64.67
-60.96
-56.54
-50.54
-42.35
-31.81
-19.38
-5.96
7.44
20.07
31.61
42.07
51.58
60.17
67.64
73.62
77.63
79.06
77.14
71.12
60.58
45.92
28.61
11.03
-4.23
-15.29
-21.55
-23.89
-23.95
-23.42
-23.30
-23.84
-24.83
-26.06
-27.68
-30.05
-33.55
-38.19
-43.60
-49.14
-54.29
-58.92
-63.31
-67.98
-73.29
-79.06
-84.49
-88.37
-89.50
-87.17
-81.44
-72.95
-62.70
-51.54
-40.06
-28.48
-17.04
-6.04
3.98
12.43
18.89
23.29
26.04
27.82
29.37
31.13
33.12
34.95
36.00
35.80
34.23
31.60
28.51
25.59
23.16
21.09
18.95
16.25
12.80
8.75
4.54
0.54
-3.19
-6.95
-11.29
-16.70
-23.38
-31.07
-39.08
-46.43
-51.96
-54.59
-53.55
-48.54
-39.95
-28.74
-16.24
-3.72
7.82
17.82
25.93
32.07
36.21
38.52
39.42
39.54
39.46
39.44
39.37
38.75
37.09
34.12
29.98
25.09
19.91
14.76
9.74
4.86
0.17
-4.18
-7.98
-11.00
-13.18
-14.57
-15.37
-15.83
-16.19
-16.80
-18.07
-20.56
-24.77
-30.95
-38.81
-47.29
-54.84
-59.70
-60.51
-56.73
-48.81
-37.99
-25.81
-13.63
-2.25
8.06
17.43
26.02
33.86
40.75
46.37
50.44
52.86
53.76
53.49
52.44
51.02
49.42
47.70
45.76
43.51
40.87
37.87
34.63
31.26
27.84
24.36
20.76
16.93
12.81
8.39
3.72
-1.04
-5.77
-10.40
-14.98
-19.73
-24.98
-31.03
-38.03
-45.74
-53.56
-60.59
-65.76
-68.16
-67.16
-62.53
-54.51
-43.70
-31.09
-17.82
-5.03
6.41
16.08
24.00
30.50
35.88
40.29
43.58
45.51
45.85
44.67
42.28
39.17
35.87
32.82
30.27
28.21
26.51
24.92
23.21
21.26
19.02
16.55
13.81
10.72
7.21
3.31
-0.67
-4.35
-7.35
-9.59
-11.39
-13.33
-16.03
-19.83
-24.71
-30.26
-36.03
-41.64
-47.01
-52.16
-57.03
-61.19
-63.82
-63.88
-60.49
-53.52
-43.68
-32.50
-21.81
-13.12
-7.27
-4.29
-3.66
-4.58
-6.19
-7.50
-7.45
-5.05
0.34
8.62
18.83
29.27
38.09
43.86
46.07
45.17
42.31
38.85
35.95
34.28
33.92
34.57
35.68
36.77
37.54
37.87
37.79
37.27
36.19
34.32
31.41
27.31
21.99
15.61
8.44
0.83
-6.99
-14.81
-22.61
-30.47
-38.54
-46.91
-55.43
-63.70
-71.02
-76.59
-79.62
-79.63
-76.51
-70.59
-62.47
-52.93
-42.74
-32.52
-22.72
-13.58
-5.22
2.31
9.08
15.12
20.51
25.28
29.36
32.59
34.78
35.80
35.63
34.49
32.69
30.59
28.37
26.01
23.29
19.99
15.98
11.33
6.35
1.49
-2.80
-6.16
-8.46
-9.84
-10.83
-12.13
-14.45
-18.04
-22.47
-26.53
-28.63
-27.43
-22.40
-14.15
-4.20
5.54
13.53
19.07
22.53
25.00
27.80
31.91
37.61
44.43
51.37
57.27
61.19
62.47
60.86
56.32
49.20
40.22
30.63
21.96
15.55
11.94
10.55
9.84
7.96
3.69
-3.05
-11.23
-19.39
-26.29
-31.43
-34.98
-37.28
-38.60
-38.96
-38.47
-37.57
-37.10
-38.01
-40.90
-45.70
-51.67
-57.76
-63.04
-66.98
-69.55
-70.96
-71.36
-70.69
-68.74
-65.31
-60.61
-55.35
-50.60
-47.55
-46.90
-48.61
-51.82
-55.06
-56.79
-55.90
-52.00
-45.39
-36.89
-27.40
-17.65
-8.04
1.34
10.45
19.19
27.24
34.19
39.64
43.49
45.89
47.24
47.96
48.33
48.38
48.01
47.11
45.72
44.12
42.68
41.71
41.30
41.23
41.07
40.33
38.70
36.00
32.32
27.80
22.57
16.81
10.68
4.42
-1.71
-7.43
-12.61
-17.29
-21.66
-26.05
-30.65
-35.57
-40.70
-45.86
-50.96
-56.09
-61.59
-67.82
-74.97
-82.71
-90.16
-95.99
-98.80
-97.66
-92.34
-83.47
-72.21
-59.93
-47.74
-36.41
-26.28
-17.38
-9.70
-3.20
2.16
6.49
9.93
12.77
15.26
17.58
19.79
21.75
23.32
24.31
24.65
24.36
23.70
23.11
23.17
24.41
27.13
31.26
36.31
41.63
46.59
50.75
53.82
55.64
56.20
55.68
54.59
53.64
53.39
53.88
54.42
53.72
50.42
43.76
33.82
21.45
7.79
-6.20
-20.03
-33.59
-46.69
-58.85
-69.09
-76.21
-79.10
-77.23
-70.82
-60.93
-49.18
-37.19
-26.28
-17.00
-9.24
-2.44
3.95
10.16
16.01
21.09
25.13
28.20
30.87
33.91
38.00
43.41
49.95
57.13
64.40
71.41
77.92
83.71
88.40
91.46
92.45
91.19
87.95
83.39
78.31
73.36
68.82
64.58
60.15
54.92
48.34
40.22
30.85
21.02
11.77
4.00
-1.82
-5.89
-8.93
-11.85
-15.34
-19.58
-24.26
-28.65
-32.03
-33.85
-34.04
-32.93
-31.31
-30.12
-30.18
-32.00
-35.56
-40.40
-45.72
-50.61
-54.24
-56.04
-55.79
-53.61
-49.98
-45.52
-41.06
-37.28
-34.64
-33.16
-32.34
-31.23
-28.72
-23.94
-16.61
-7.31
2.68
11.74
18.44
21.96
22.29
20.13
16.54
12.66
9.40
7.36
6.73
7.28
8.44
9.38
9.27
7.43
3.54
-2.38
-9.98
-18.67
-27.62
-35.71
-41.74
-44.60
-43.68
-39.10
-31.75
-23.01
-14.23
-6.32
0.47
6.35
11.70
16.71
21.29
25.09
27.73
29.02
29.02
28.09
26.73
25.43
24.47
23.92
23.61
23.25
22.61
21.63
20.46
19.26
18.09
16.81
15.07
12.55
9.09
4.77
-0.06
-4.99
-9.66
-13.88
-17.62
-20.99
-24.23
-27.65
-31.64
-36.60
-42.73
-49.84
-57.25
-63.80
-68.15
-69.16
-66.24
-59.50
-49.72
-38.07
-25.75
-13.72
-2.57
7.52
16.59
24.76
32.05
38.37
43.57
47.54
50.30
52.04
53.04
53.54
53.65
53.33
52.54
51.29
49.74
48.08
46.48
44.96
43.37
41.54
39.28
36.53
33.29
29.59
25.40
20.71
15.56
10.07
4.51
-0.88
-5.91
-10.61
-15.17
-19.92
-25.24
-31.35
-38.13
-44.96
-50.79
-54.29
-54.32
-50.27
-42.31
-31.35
-18.73
-5.78
6.48
17.48
27.00
35.08
41.78
47.25
51.70
55.46
58.79
61.89
64.80
67.39
69.48
70.95
71.75
71.88
71.32
70.03
67.95
65.05
61.35
56.93
51.82
46.04
39.57
32.48
24.90
17.08
9.25
1.53
-6.10
-13.80
-21.71
-29.86
-38.13
-46.32
-54.25
-61.94
-69.63
-77.62
-86.10
-94.87
-103.18
-109.91
-113.75
-113.73
-109.44
-101.24
-90.01
-76.97
-63.26
-49.75
-37.01
-25.36
-15.04
-6.17
1.21
7.18
11.96
15.73
18.64
20.71
21.96
22.38
22.11
21.38
20.49
19.70
19.14
18.85
18.66
18.42
17.98
17.24
16.20
14.88
13.30
11.44
9.32
6.94
4.38
1.78
-0.79
-3.27
-5.75
-8.30
-10.89
-13.43
-15.82
-18.09
-20.57
-23.77
-28.16
-33.90
-40.51
-46.87
-51.46
-52.81
-50.04
-43.13
-32.95
-20.89
-8.43
3.25
13.54
22.28
29.56
35.50
40.10
43.26
44.99
45.48
45.07
44.22
43.31
42.59
42.14
41.95
42.00
42.34
42.98
43.87
44.79
45.31
44.90
43.06
39.58
34.55
28.47
21.99
15.70
9.87
4.40
-1.03
-6.81
-13.11
-19.77
-26.36
-32.37
-37.42
-41.41
-44.68
-47.80
-51.49
-56.28
-62.26
-68.95
-75.35
-80.20
-82.32
-81.01
-76.16
-68.32
-58.43
-47.61
-36.95
-27.25
-19.01
-12.34
-7.02
-2.58
1.54
5.74
10.28
15.12
20.04
24.76
29.00
32.52
35.17
36.91
37.81
38.13
38.25
38.51
39.10
39.92
40.69
41.02
40.62
39.44
37.58
35.24
32.54
29.47
25.91
21.72
16.78
11.06
4.70
-1.95
-8.49
-14.47
-19.67
-24.27
-28.93
-34.57
-42.14
-52.11
-64.23
-77.29
-89.54
-98.94
-103.83
-103.26
-97.23
-86.65
-73.13
-58.55
-44.67
-32.66
-22.84
-14.69
-7.25
0.40
8.68
17.33
25.62
32.82
38.55
42.90
46.19
48.69
50.40
51.13
50.67
49.06
46.53
43.42
39.88
35.84
31.09
25.36
18.61
11.07
3.22
-4.30
-10.86
-15.98
-19.54
-21.71
-22.95
-23.75
-24.41
-24.93
-25.01
-24.26
-22.46
-19.68
-16.39
-13.24
-10.84
-9.63
-9.68
-10.68
-11.95
-12.43
-10.97
-6.57
1.22
12.14
25.22
38.99
52.00
63.11
71.68
77.55
80.82
81.74
80.54
77.49
72.92
67.23
60.85
54.14
47.42
40.96
35.05
29.96
25.89
22.91
20.91
19.62
18.70
17.89
16.97
15.86
14.46
12.70
10.47
7.63
4.05
-0.48
-6.08
-12.79
-20.46
-28.69
-36.84
-44.23
-50.40
-55.29
-59.37
-63.48
-68.57
-75.24
-83.43
-92.23
-99.98
-104.71
-104.72
-99.14
-88.12
-72.86
-55.15
-36.84
-19.50
-4.08
9.00
19.72
28.30
35.11
40.50
44.76
48.09
50.55
52.18
52.99
53.11
52.78
52.29
51.93
51.93
52.46
53.57
55.25
57.34
59.52
61.43
62.66
62.98
62.30
60.79
58.70
56.27
53.65
50.82
47.63
43.92
39.61
34.72
29.37
23.66
17.62
11.15
4.05
-3.98
-13.14
-23.43
-34.51
-45.53
-55.24
-62.19
-65.08
-63.23
-56.78
-46.76
-34.63
-21.93
-9.77
1.28
11.15
19.90
27.58
34.07
39.20
42.92
45.40
46.97
48.03
48.86
49.55
49.98
50.01
49.56
48.77
47.86
47.05
46.43
45.92
45.21
44.04
42.19
39.63
36.47
32.92
29.10
25.03
20.57
15.54
9.80
3.34
-3.71
-11.10
-18.57
-25.89
-32.85
-39.31
-45.21
-50.60
-55.62
-60.53
-65.56
-70.73
-75.72
-79.86
-82.28
-82.11
-78.81
-72.34
-63.18
-52.23
-40.55
-29.09
-18.51
-9.10
-0.87
6.29
12.46
17.59
21.46
23.91
24.90
24.60
23.41
21.77
20.07
18.53
17.17
15.89
14.60
13.20
11.70
10.05
8.12
5.73
2.64
-1.32
-6.14
-11.63
-17.52
-23.44
-29.08
-34.18
-38.60
-42.35
-45.48
-48.19
-50.78
-53.63
-57.16
-61.67
-67.17
-73.18
-78.69
-82.30
-82.60
-78.63
-70.17
-57.93
-43.24
-27.71
-12.77
0.59
11.89
21.06
28.23
33.66
37.65
40.57
42.74
44.48
45.96
47.18
48.03
48.36
48.18
47.67
47.17
46.97
47.16
47.51
47.55
46.76
44.80
41.70
37.75
33.42
28.98
24.50
19.86
14.85
9.38
3.50
-2.59
-8.71
-14.73
-20.65
-26.52
-32.49
-38.72
-45.44
-52.96
-61.49
-70.92
-80.66
-89.51
-95.94
-98.43
-96.04
-88.73
-77.47
-63.86
-49.70
-36.40
-24.83
-15.22
-7.41
-1.12
3.92
7.80
10.56
12.23
12.92
12.80
12.11
11.12
10.02
9.00
8.23
7.99
8.60
10.30
13.20
17.00
21.04
24.47
26.49
26.67
25.10
22.32
19.05
15.87
13.03
10.44
7.72
4.46
0.35
-4.75
-10.81
-17.61
-24.86
-32.32
-39.89
-47.66
-55.86
-64.57
-73.39
-81.34
-87.01
-88.90
-85.96
-77.89
-65.03
-48.22
-28.50
-7.00
15.02
36.21
55.35
71.74
85.42
97.21
108.25
119.47
131.25
143.30
154.97
165.68
175.06
182.87
188.87
192.62
193.56
191.28
185.84
177.93
168.62
158.99
149.60
140.27
130.07
117.83
102.73
84.64
64.29
42.85
21.50
1.02
-18.28
-36.40
-53.33
-68.91
-82.82
-94.75
-104.58
-112.30
-117.99
-121.60
-123.02
-122.13
-118.93
-113.66
-106.70
-98.52
-89.49
-79.92
-70.10
-60.40
-51.32
-43.34
-36.73
-31.40
-26.87
-22.48
-17.69
-12.35
-6.65
-1.02
4.10
8.47
12.12
15.21
17.93
20.39
22.45
23.83
24.03
22.61
19.32
14.34
8.36
2.39
-2.57
-5.87
-7.43
-7.82
-7.94
-8.76
-11.05
-15.14
-20.84
-27.41
-33.78
-38.66
-40.92
-39.90
-35.59
-28.62
-20.04
-11.04
-2.59
4.63
10.42
14.85
18.18
20.79
22.98
24.92
26.60
27.83
28.33
27.93
26.55
24.39
21.74
19.00
16.58
14.79
13.79
13.54
13.71
13.82
13.26
11.72
9.28
6.65
5.01
5.59
9.13
15.30
22.79
29.57
33.64
33.76
29.78
22.65
13.89
5.10
-2.54
-8.40
-12.31
-14.38
-14.85
-14.10
-12.61
-10.99
-9.85
-9.72
-10.81
-13.05
-16.03
-19.23
-22.17
-24.55
-26.35
-27.70
-28.79
-29.67
-30.30
-30.56
-30.29
-29.46
-28.08
-26.22
-24.03
-21.71
-19.53
-17.83
-16.94
-17.10
-18.35
-20.52
-23.30
-26.35
-29.38
-32.33
-35.31
-38.62
-42.67
-47.96
-54.76
-62.94
-71.76
-79.89
-85.64
-87.52
-84.73
-77.42
-66.67
-54.04
-41.07
-28.87
-17.94
-8.30
0.25
7.89
14.69
20.66
25.74
29.95
33.32
35.90
37.75
38.95
39.58
39.75
39.65
39.45
39.29
39.23
39.26
39.26
39.05
38.38
36.97
34.59
31.08
26.49
21.04
15.14
9.25
3.70
-1.38
-6.15
-10.98
-16.36
-22.63
-30.04
-38.57
-47.86
-57.23
-65.62
-71.73
-74.35
-72.68
-66.64
-56.92
-44.82
-31.83
-19.23
-7.85
2.04
10.56
18.01
24.66
30.64
35.91
40.26
43.49
45.44
46.14
45.74
44.58
42.98
41.24
39.54
37.99
36.60
35.39
34.32
33.32
32.29
31.01
29.22
26.63
23.01
18.26
12.54
6.15
-0.50
-7.11
-13.49
-19.64
-25.69
-31.84
-38.33
-45.42
-53.35
-62.09
-71.18
-79.60
-85.83
-88.33
-86.04
-78.75
-67.27
-53.09
-37.94
-23.25
-9.95
1.60
11.44
19.74
26.63
32.18
36.36
39.17
40.70
41.15
40.82
40.06
39.20
38.48
38.11
38.18
38.68
39.51
40.38
40.94
40.82
39.78
37.76
34.92
31.51
27.74
23.69
19.30
14.48
9.13
3.27
-2.92
-9.23
-15.42
-21.36
-27.10
-32.96
-39.51
-47.32
-56.84
-68.02
-80.10
-91.68
-100.88
-105.91
-105.56
-99.54
-88.61
-74.30
-58.36
-42.39
-27.41
-13.88
-1.76
9.10
18.75
27.05
33.76
38.69
41.86
43.59
44.45
45.16
46.41
48.69
52.21
56.84
62.16
67.61
72.50
76.21
78.24
78.30
76.33
72.57
67.46
61.59
55.44
49.32
43.28
37.18
30.83
24.09
16.99
9.61
2.08
-5.55
-13.34
-21.47
-30.18
-39.66
-49.98
-60.90
-71.74
-81.42
-88.58
-91.92
-90.61
-84.55
-74.42
-61.51
-47.37
-33.41
-20.59
-9.46
-0.19
7.25
12.95
17.01
19.65
21.25
22.33
23.50
25.22
27.59
30.37
33.05
35.12
36.33
36.76
36.80
36.89
37.28
37.87
38.25
37.85
36.19
33.06
28.54
23.03
17.11
11.29
5.97
1.26
-3.00
-7.17
-11.73
-17.20
-23.92
-32.01
-41.15
-50.51
-58.82
-64.50
-66.11
-62.83
-54.74
-42.90
-28.97
-14.77
-1.70
9.50
18.70
26.12
32.01
36.43
39.34
40.68
40.62
39.56
38.00
36.40
35.00
33.82
32.77
31.77
30.89
30.25
29.96
29.99
30.05
29.76
28.67
26.48
23.11
18.74
13.79
8.70
3.88
-0.63
-5.08
-10.02
-16.01
-23.41
-32.18
-41.81
-51.36
-59.61
-65.24
-66.98
-63.96
-55.77
-42.74
-25.92
-6.89
12.53
30.71
46.49
59.36
69.35
76.77
81.89
84.87
85.74
84.55
81.54
77.22
72.31
67.47
63.12
59.32
55.89
52.55
49.16
45.73
42.27
38.76
34.92
30.42
24.97
18.56
11.50
4.38
-2.22
-7.96
-12.83
-17.17
-21.47
-26.27
-31.93
-38.57
-45.98
-53.57
-60.44
-65.53
-67.94
-67.15
-63.23
-56.77
-48.73
-40.07
-31.54
-23.57
-16.36
-10.03
-4.80
-0.90
1.50
2.42
2.12
1.03
-0.40
-1.87
-3.29
-4.70
-6.14
-7.55
-8.80
-9.76
-10.42
-11.04
-11.99
-13.67
-16.30
-19.95
-24.40
-29.36
-34.49
-39.52
-44.31
-48.81
-53.08
-57.37
-62.01
-67.35
-73.58
-80.46
-87.25
-92.73
-95.54
-94.60
-89.48
-80.64
-69.24
-56.80
-44.63
-33.56
-23.80
-15.14
-7.32
-0.21
6.03
11.12
14.89
17.42
19.06
20.29
21.45
22.59
23.51
23.89
23.54
22.50
21.15
19.93
19.20
19.01
19.06
18.77
17.49
14.74
10.35
4.47
-2.48
-9.98
-17.54
-24.78
-31.51
-37.77
-43.79
-49.98
-56.81
-64.53
-72.95
-81.15
-87.62
-90.63
-88.81
-81.66
-69.82
-54.82
-38.57
-22.76
-8.38
4.28
15.52
25.76
35.28
44.03
51.68
57.88
62.42
65.43
67.30
68.55
69.55
70.44
71.14
71.45
71.23
70.52
69.44
68.16
66.71
65.00
62.83
60.02
56.44
52.11
47.07
41.38
35.07
28.13
20.57
12.51
4.16
-4.30
-12.79
-21.43
-30.52
-40.37
-51.14
-62.53
-73.72
-83.34
-89.74
-91.36
-87.21
-77.24
-62.35
-44.18
-24.60
-5.24
12.85
29.24
43.97
57.23
69.10
79.57
88.54
95.99
102.05
106.99
111.10
114.56
117.36
119.36
120.50
120.86
120.78
120.77
121.12
121.75
122.03
121.04
117.87
112.06
103.73
93.50
82.17
70.37
58.36
46.05
33.22
19.75
5.76
-8.41
-22.35
-35.65
-48.07
-59.50
-70.04
-79.85
-89.32
-98.94
-109.30
-120.84
-133.56
-146.83
-159.23
-168.89
-174.00
-173.32
-166.68
-155.00
-139.97
-123.53
-107.27
-92.06
-78.09
-65.02
-52.31
-39.61
-26.85
-14.22
-2.05
9.36
19.86
29.43
38.12
46.01
53.17
59.68
65.56
70.84
75.49
79.48
82.70
85.02
86.26
86.20
84.70
81.81
77.93
73.75
69.99
67.13
65.04
63.07
60.33
56.12
50.32
43.39
36.08
28.99
22.23
15.45
8.04
-0.55
-10.63
-22.25
-35.23
-49.12
-63.10
-75.77
-85.39
-90.18
-88.98
-81.68
-69.41
-54.22
-38.37
-23.74
-11.30
-1.10
7.47
15.17
22.47
29.39
35.48
40.11
42.79
43.33
41.95
39.11
35.34
31.10
26.67
22.31
18.31
15.02
12.82
11.93
12.29
13.59
15.23
16.62
17.32
17.12
16.13
14.58
12.73
10.70
8.42
5.67
2.19
-2.26
-7.78
-14.37
-21.90
-30.14
-38.82
-47.52
-55.87
-63.65
-70.97
-78.38
-86.69
-96.70
-108.65
-121.90
-134.80
-145.07
-150.40
-149.19
-141.00
-126.73
-108.32
-88.15
-68.51
-51.14
-36.82
-25.30
-15.33
-5.03
7.46
23.17
41.87
62.04
81.46
98.05
110.65
119.25
124.81
128.68
132.07
135.78
140.21
145.59
152.06
159.61
167.80
175.60
181.59
184.39
183.14
177.82
169.07
157.72
144.17
128.23
109.34
87.24
62.41
36.21
10.38
-13.61
-35.08
-54.31
-72.15
-89.54
-107.05
-124.63
-141.50
-156.24
-167.10
-172.53
-171.66
-164.75
-153.14
-138.86
-123.88
-109.54
-96.23
-83.66
-71.34
-59.10
-47.26
-36.45
-27.42
-20.65
-16.29
-14.16
-13.76
-14.44
-15.41
-15.95
-15.36
-13.26
-9.62
-4.79
0.48
5.22
8.47
9.59
8.17
4.09
-2.62
-11.66
-22.33
-33.44
-43.40
-50.70
-54.38
-54.38
-51.54
-47.19
-42.67
-39.03
-36.92
-36.77
-38.85
-43.26
-49.84
-58.09
-67.42
-77.39
-87.99
-99.45
-111.84
-124.73
-136.96
-146.70
-151.91
-150.79
-142.37
-126.72
-105.09
-79.70
-53.33
-28.55
-7.17
10.21
24.11
35.62
45.85
55.35
64.07
71.63
77.71
82.32
85.78
88.53
90.85
92.79
94.26
95.18
95.65
95.89
96.11
96.39
96.52
96.01
94.33
91.06
86.14
79.94
73.09
66.31
60.02
54.23
48.42
41.89
34.01
24.56
13.82
2.45
-8.66
-18.85
-27.78
-35.63
-42.90
-50.32
-58.63
-68.39
-79.82
-92.55
-105.54
-117.05
-124.91
-127.06
-122.20
-110.26
-92.55
-71.46
-49.64
-29.32
-11.69
3.08
15.53
26.32
35.84
44.07
50.84
56.03
59.81
62.57
64.69
66.34
67.50
68.08
68.16
68.12
68.43
69.53
71.51
74.03
76.44
77.96
77.96
76.06
72.28
66.98
60.77
54.25
47.86
41.72
35.58
29.05
21.77
13.63
4.82
-4.19
-12.92
-21.00
-28.38
-35.41
-42.72
-51.06
-60.93
-72.28
-84.20
-95.01
-102.55
-104.76
-100.28
-88.89
-71.65
-50.48
-27.67
-5.33
15.06
32.74
47.52
59.62
69.38
77.05
82.78
86.60
88.59
88.98
88.24
86.99
85.85
85.27
85.37
85.99
86.78
87.46
87.80
87.66
86.88
85.22
82.40
78.23
72.67
65.87
58.06
49.52
40.42
30.85
20.90
10.71
0.46
-9.61
-19.33
-28.74
-38.17
-48.19
-59.29
-71.53
-84.22
-95.78
-104.06
-106.93
-102.97
-91.91
-74.79
-53.68
-31.09
-9.44
9.45
24.52
35.56
43.00
47.67
50.35
51.57
51.39
49.51
45.57
39.47
31.61
22.77
13.85
5.50
-2.06
-8.95
-15.45
-21.75
-27.88
-33.78
-39.50
-45.20
-51.19
-57.63
-64.47
-71.47
-78.30
-84.84
-91.15
-97.47
-103.97
-110.62
-117.18
-123.30
-128.74
-133.40
-137.42
-141.11
-144.84
-148.79
-152.82
-156.25
-157.72
-155.47
-147.78
-133.65
-113.24
-88.06
-60.60
-33.51
-8.91
12.21
29.99
45.37
59.53
73.47
87.73
102.31
116.93
131.15
144.70
157.52
169.73
181.46
192.69
203.25
212.80
220.99
227.60
232.51
235.53
236.36
234.54
229.62
221.42
210.21
196.64
181.45
165.13
147.80
129.32
109.63
89.00
68.17
48.02
29.33
12.43
-2.89
-17.21
-31.32
-45.83
-61.02
-76.62
-91.76
-105.04
-114.81
-119.63
-118.74
-112.39
-101.81
-88.95
-75.80
-63.90
-53.94
-45.75
-38.42
-30.86
-22.10
-11.62
0.57
14.01
27.97
41.66
54.44
65.91
76.00
84.86
92.87
100.45
107.98
115.69
123.64
131.61
139.08
145.28
149.21
149.92
146.72
139.38
128.20
113.89
97.36
79.45
60.81
41.88
22.95
4.24
-14.13
-32.04
-49.48
-66.31
-82.13
-96.14
-107.16
-113.95
-115.56
-111.78
-103.28
-91.53
-78.34
-65.48
-54.22
-45.24
-38.66
-34.28
-31.74
-30.63
-30.53
-31.00
-31.54
-31.70
-31.09
-29.61
-27.32
-24.51
-21.44
-18.29
-14.97
-11.17
-6.52
-0.74
6.20
13.92
21.66
28.45
33.26
35.34
34.36
30.40
23.91
15.53
5.92
-4.34
-14.67
-24.56
-33.61
-41.63
-48.57
-54.45
-59.10
-62.08
-62.71
-60.37
-54.83
-46.47
-36.26
-25.44
-15.15
-6.22
0.99
6.42
10.24
12.69
14.07
14.69
14.79
14.49
13.76
12.43
10.39
7.55
3.91
-0.41
-5.29
-10.51
-15.82
-20.85
-25.23
-28.71
-31.25
-33.09
-34.73
-36.78
-39.75
-43.82
-48.84
-54.35
-59.70
-64.36
-68.02
-70.74
-72.97
-75.39
-78.84
-83.98
-91.14
-100.06
-109.89
-119.26
-126.51
-130.20
-129.36
-123.86
-114.36
-102.11
-88.60
-75.17
-62.77
-51.79
-42.19
-33.66
-25.89
-18.79
-12.57
-7.60
-4.28
-2.82
-3.13
-4.86
-7.50
-10.55
-13.54
-16.06
-17.81
-18.51
-18.04
-16.44
-13.94
-10.85
-7.52
-4.21
-1.18
1.29
2.90
3.30
2.31
-0.09
-3.63
-7.81
-12.10
-16.12
-19.79
-23.45
-27.60
-32.77
-39.09
-46.09
-52.56
-56.79
-56.99
-51.82
-40.89
-24.96
-5.77
14.47
33.54
49.88
62.73
72.30
79.43
85.24
90.65
96.09
101.47
106.30
110.06
112.36
113.11
112.40
110.43
107.33
103.23
98.22
92.46
86.07
79.08
71.32
62.45
52.11
40.07
26.39
11.50
-3.93
-19.12
-33.38
-46.30
-57.72
-67.67
-76.19
-83.31
-88.95
-93.13
-96.00
-97.98
-99.66
-101.59
-103.90
-106.07
-106.91
-104.82
-98.36
-86.84
-70.60
-50.97
-29.87
-9.12
10.03
27.11
42.37
56.39
69.77
82.96
96.19
109.43
122.41
134.51
144.81
152.22
155.84
155.29
151.01
144.15
136.19
128.40
121.39
115.03
108.65
101.49
93.07
83.37
72.74
61.59
50.26
38.79
27.13
15.22
3.13
-8.93
-20.64
-31.73
-41.94
-51.18
-59.45
-66.90
-73.89
-80.93
-88.61
-97.38
-107.22
-117.47
-126.84
-133.69
-136.42
-134.07
-126.55
-114.79
-100.46
-85.50
-71.68
-60.16
-51.39
-45.22
-41.15
-38.62
-37.24
-36.78
-37.14
-38.26
-40.01
-42.14
-44.34
-46.29
-47.67
-48.21
-47.64
-45.74
-42.39
-37.59
-31.56
-24.71
-17.60
-10.90
-5.20
-0.88
2.02
3.82
5.05
6.23
7.57
8.92
9.80
9.74
8.60
6.66
4.49
2.62
1.12
-0.48
-3.09
-7.70
-14.99
-24.95
-36.78
-48.91
-59.25
-65.56
-65.98
-59.52
-46.45
-28.29
-7.41
13.61
32.68
48.67
61.40
71.36
79.17
85.29
89.87
92.83
94.18
94.13
93.10
91.57
89.95
88.42
86.99
85.63
84.28
83.00
81.84
80.80
79.78
78.57
76.99
74.82
71.90
68.18
63.61
58.27
52.22
45.53
38.11
29.74
20.25
9.61
-1.89
-13.70
-25.11
-35.64
-45.14
-53.85
-62.34
-71.23
-81.05
-92.03
-104.03
-116.34
-127.76
-136.68
-141.51
-141.13
-135.32
-124.87
-111.39
-96.81
-82.84
-70.66
-60.74
-53.11
-47.44
-43.22
-39.89
-36.72
-33.02
-28.17
-21.89
-14.25
-5.67
3.32
12.27
20.90
29.11
36.83
43.85
49.79
54.23
56.85
57.63
56.81
54.81
52.04
48.77
45.08
40.94
36.22
30.88
24.99
18.78
12.53
6.49
0.69
-5.05
-11.11
-17.98
-26.00
-35.33
-45.73
-56.52
-66.54
-74.32
-78.23
-76.98
-69.96
-57.59
-41.25
-23.03
-5.15
10.55
22.98
31.88
37.68
41.22
43.43
45.05
46.51
47.81
48.72
48.85
47.85
45.51
41.88
37.26
32.16
27.19
22.93
19.75
17.68
16.38
15.22
13.48
10.60
6.37
0.97
-5.12
-11.31
-17.18
-22.58
-27.74
-33.23
-39.78
-48.00
-58.07
-69.41
-80.53
-89.27
-93.33
-91.02
-81.87
-66.84
-47.97
-27.73
-8.30
8.94
23.50
35.59
45.67
54.19
61.35
67.09
71.18
73.47
73.97
72.98
71.04
68.71
66.46
64.46
62.71
61.06
59.36
57.46
55.25
52.62
49.47
45.79
41.64
37.10
32.20
26.82
20.80
14.00
6.41
-1.68
-9.83
-17.54
-24.51
-30.73
-36.60
-42.80
-50.17
-59.31
-70.31
-82.47
-94.21
-103.34
-107.56
-105.20
-95.78
-80.27
-60.73
-39.79
-19.81
-2.36
11.97
23.37
32.46
39.88
46.07
51.25
55.48
58.76
61.06
62.42
62.88
62.53
61.57
60.28
59.01
58.02
57.39
56.93
56.28
55.03
52.90
49.91
46.26
42.24
37.99
33.41
28.20
22.06
14.94
7.13
-0.82
-8.33
-15.06
-21.05
-26.71
-32.68
-39.70
-48.42
-59.14
-71.58
-84.66
-96.50
-104.68
-106.96
-101.96
-89.76
-71.89
-50.92
-29.55
-9.89
6.93
20.82
32.28
41.98
50.44
57.85
64.18
69.19
72.70
74.66
75.20
74.68
73.52
72.11
70.69
69.37
68.17
67.13
66.32
65.80
65.46
64.98
63.85
61.57
57.85
52.76
46.70
40.32
34.14
28.46
23.18
17.91
12.19
5.72
-1.53
-9.29
-17.13
-24.64
-31.58
-37.93
-43.95
-50.07
-56.84
-64.76
-74.03
-84.31
-94.56
-103.05
-107.81
-107.16
-100.30
-87.60
-70.54
-51.26
-31.96
-14.36
0.59
12.70
22.33
30.09
36.59
42.23
47.20
51.53
55.10
57.85
59.77
60.96
61.62
61.95
62.16
62.43
62.87
63.56
64.50
65.57
66.49
66.92
66.46
64.87
62.09
58.28
53.72
48.72
43.47
38.02
32.42
26.65
20.80
15.02
9.38
3.89
-1.59
-7.16
-12.86
-18.59
-24.16
-29.35
-34.05
-38.36
-42.59
-47.25
-52.98
-60.29
-69.27
-79.37
-89.22
-96.91
-100.46
-98.47
-90.62
-77.78
-61.69
-44.41
-27.72
-12.76
-0.01
10.48
18.88
25.42
30.33
33.95
36.68
38.97
41.08
43.04
44.62
45.54
45.65
45.07
44.21
43.52
43.34
43.71
44.40
45.06
45.36
45.08
44.19
42.72
40.76
38.31
35.39
32.00
28.16
23.99
19.62
15.27
11.04
6.97
2.91
-1.36
-5.99
-11.02
-16.31
-21.64
-26.77
-31.56
-36.05
-40.44
-45.00
-50.11
-56.11
-63.17
-71.09
-79.16
-86.18
-90.64
-91.11
-86.74
-77.53
-64.34
-48.71
-32.40
-16.97
-3.54
7.35
15.64
21.64
25.78
28.53
30.28
31.36
32.02
32.43
32.78
33.13
33.46
33.58
33.44
33.04
32.63
32.54
33.00
33.94
34.92
35.31
34.49
32.21
28.57
24.10
19.39
14.95
10.99
7.37
3.73
-0.37
-5.23
-10.85
-16.88
-22.75
-27.85
-31.86
-34.88
-37.45
-40.35
-44.27
-49.56
-56.02
-62.92
-69.22
-73.64
-74.96
-72.13
-64.64
-52.65
-37.23
-20.13
-3.29
11.67
23.95
33.47
40.50
44.98
46.37
43.90
37.34
27.66
17.13
8.78
5.41
8.67
18.67
34.30
53.74
75.07
96.57
116.70
134.00
147.15
155.13
157.40
153.95
145.11
131.29
113.00
90.87
65.89
39.24
12.08
-14.85
-41.17
-66.56
-90.29
-111.13
-127.76
-139.46
-146.65
-150.80
-153.62
-156.15
-158.20
-158.62
-156.31
-151.00
-143.61
-135.68
-128.40
-121.88
-115.12
-106.61
-95.09
-80.12
-62.10
-42.07
-21.27
-0.95
17.82
34.04
47.00
56.32
62.11
64.91
65.52
64.76
63.26
61.45
59.63
58.07
56.95
56.24
55.65
54.74
53.10
50.71
47.94
45.40
43.59
42.54
41.75
40.39
37.70
33.36
27.65
21.30
15.10
9.56
4.70
0.15
-4.58
-9.75
-15.31
-20.86
-25.92
-30.10
-33.32
-35.67
-37.43
-38.91
-40.51
-42.68
-45.87
-50.38
-56.04
-62.01
-66.83
-68.81
-66.50
-59.24
-47.39
-32.23
-15.53
1.01
16.01
28.67
38.70
46.05
50.91
53.49
54.13
53.22
51.20
48.47
45.40
42.20
39.05
36.11
33.52
31.43
29.99
29.27
29.18
29.60
30.30
30.94
31.12
30.37
28.24
24.46
19.14
12.68
5.77
-0.98
-7.27
-13.19
-19.22
-25.94
-33.72
-42.55
-52.04
-61.57
-70.51
-78.51
-85.53
-91.84
-97.95
-104.40
-111.62
-119.68
-128.11
-135.76
-140.98
-141.95
-137.35
-126.82
-111.19
-92.31
-72.49
-53.78
-37.51
-24.12
-13.36
-4.69
2.42
8.27
12.97
16.59
19.27
21.28
22.89
24.35
25.78
27.15
28.41
29.54
30.60
31.78
33.18
34.78
36.37
37.56
37.96
37.35
35.73
33.37
30.67
27.94
25.33
22.67
19.65
15.90
11.19
5.48
-0.98
-7.80
-14.51
-20.74
-26.37
-31.62
-37.09
-43.59
-51.83
-62.06
-73.75
-85.61
-95.87
-102.70
-104.64
-100.98
-91.73
-77.63
-59.92
-40.25
-20.49
-2.41
12.53
23.56
30.68
34.58
36.33
36.99
37.38
37.96
38.95
40.38
42.26
44.54
47.14
49.95
52.89
55.94
59.04
62.07
64.76
66.75
67.64
67.19
65.32
62.12
57.73
52.29
45.99
39.04
31.85
24.91
18.67
13.34
8.73
4.36
-0.39
-6.02
-12.82
-20.83
-29.89
-39.63
-49.39
-58.13
-64.54
-67.27
-65.43
-58.99
-48.86
-36.62
-24.03
-12.48
-2.61
5.62
12.63
18.87
24.56
29.69
34.11
37.74
40.67
43.15
45.40
47.63
49.81
51.88
53.71
55.28
56.59
57.61
58.22
58.23
57.37
55.43
52.26
47.77
42.03
35.24
27.74
20.03
12.56
5.72
-0.42
-5.96
-11.18
-16.38
-21.79
-27.66
-34.24
-41.80
-50.36
-59.51
-68.20
-74.80
-77.64
-75.41
-67.79
-55.47
-39.96
-23.08
-6.47
8.69
21.76
32.44
40.64
46.35
49.76
51.18
51.14
50.20
48.83
47.27
45.56
43.66
41.59
39.50
37.66
36.33
35.58
35.19
34.68
33.41
30.84
26.69
21.04
14.34
7.20
0.25
-6.13
-11.94
-17.57
-23.59
-30.65
-39.19
-49.15
-59.81
-69.78
-77.29
-80.54
-78.38
-70.69
-58.43
-43.45
-27.83
-13.41
-1.32
8.11
15.10
20.22
24.00
26.85
28.90
30.16
30.63
30.43
29.83
29.20
28.83
28.80
28.97
29.20
29.54
30.23
31.61
33.80
36.48
38.89
40.04
39.17
36.00
30.90
24.63
18.05
11.80
6.09
0.78
-4.49
-10.15
-16.63
-24.14
-32.70
-41.99
-51.18
-59.03
-64.06
-64.93
-60.90
-52.07
-39.45
-24.64
-9.41
4.74
16.81
26.43
33.67
38.89
42.46
44.77
46.15
46.84
47.11
47.12
47.01
46.80
46.41
45.74
44.67
43.22
41.55
39.96
38.66
37.73
36.96
35.85
33.82
30.43
25.58
19.60
13.11
6.74
0.90
-4.44
-9.61
-15.15
-21.61
-29.41
-38.74
-49.42
-60.71
-71.21
-79.10
-82.60
-80.50
-72.76
-60.47
-45.56
-30.10
-15.69
-3.17
7.33
16.16
23.70
30.23
35.82
40.39
43.84
46.07
47.07
46.94
45.88
44.21
42.29
40.38
38.64
37.09
35.59
33.94
31.94
29.46
26.47
22.99
19.11
14.95
10.55
5.96
1.21
-3.64
-8.53
-13.38
-18.13
-22.76
-27.31
-31.96
-37.00
-42.82
-49.75
-57.80
-66.48
-74.69
-80.96
-83.82
-82.32
-76.31
-66.45
-54.00
-40.40
-26.91
-14.45
-3.51
5.73
13.25
19.21
23.81
27.23
29.68
31.27
32.11
32.29
31.94
31.22
30.40
29.76
29.54
29.87
30.68
31.71
32.53
32.68
31.79
29.74
26.69
23.00
19.12
15.32
11.70
8.08
4.18
-0.17
-4.95
-9.82
-14.39
-18.39
-21.85
-25.16
-28.91
-33.67
-39.84
-47.48
-56.18
-65.11
-72.93
-78.11
-79.17
-75.25
-66.40
-53.69
-38.92
-24.10
-10.87
-0.09
8.18
14.46
19.45
23.73
27.57
30.91
33.57
35.38
36.31
36.50
36.12
35.32
34.18
32.83
31.49
30.50
30.24
30.90
32.32
33.91
34.92
34.67
32.89
29.79
26.01
22.29
19.16
16.65
14.38
11.75
8.25
3.75
-1.42
-6.64
-11.32
-15.19
-18.38
-21.39
-24.86
-29.38
-35.30
-42.67
-51.20
-60.13
-68.30
-74.27
-76.62
-74.42
-67.53
-56.77
-43.66
-30.02
-17.42
-6.82
1.58
8.20
13.66
18.56
23.19
27.52
31.31
34.30
36.38
37.58
38.06
38.03
37.61
36.93
36.11
35.29
34.63
34.18
33.86
33.49
32.74
31.38
29.27
26.51
23.32
19.96
16.60
13.27
9.80
5.93
1.42
-3.87
-9.83
-16.15
-22.41
-28.27
-33.65
-38.78
-44.13
-50.21
-57.27
-65.03
-72.65
-78.86
-82.27
-81.77
-76.88
-67.93
-55.99
-42.59
-29.28
-17.27
-7.16
1.05
7.72
13.32
18.20
22.48
26.18
29.31
31.97
34.30
36.37
38.07
39.17
39.40
38.70
37.26
35.48
33.85
32.61
31.70
30.74
29.24
26.88
23.65
19.93
16.27
13.16
10.70
8.68
6.54
3.76
-0.01
-4.76
-10.26
-16.03
-21.62
-26.67
-31.03
-34.81
-38.40
-42.42
-47.49
-53.93
-61.49
-69.23
-75.68
-79.17
-78.43
-72.96
-63.22
-50.51
-36.51
-22.83
-10.60
-0.34
7.93
14.59
20.06
24.71
28.73
32.19
35.04
37.24
38.77
39.68
40.03
39.88
39.38
38.67
37.97
37.50
37.37
37.53
37.65
37.25
35.82
33.05
28.98
24.03
18.80
13.86
9.53
5.72
2.08
-1.86
-6.40
-11.54
-16.98
-22.24
-26.82
-30.43
-33.01
-34.80
-36.25
-37.98
-40.51
-44.13
-48.53
-52.73
-55.19
-54.25
-48.74
-38.51
-24.59
-8.99
6.00
18.52
27.52
32.92
35.20
35.05
33.00
29.37
24.44
18.58
12.40
6.55
1.64
-1.97
-4.27
-5.41
-5.63
-5.02
-3.55
-1.12
2.30
6.61
11.44
16.29
20.61
23.89
25.79
26.15
25.01
22.59
19.18
15.15
10.76
6.17
1.35
-3.79
-9.28
-15.02
-20.81
-26.34
-31.39
-35.92
-40.03
-44.00
-48.19
-52.98
-58.62
-65.12
-72.03
-78.43
-82.99
-84.32
-81.37
-73.85
-62.30
-48.05
-32.78
-18.09
-5.12
5.57
13.98
20.46
25.47
29.44
32.64
35.28
37.43
39.17
40.59
41.74
42.66
43.30
43.60
43.51
43.07
42.45
41.81
41.24
40.69
39.86
38.41
36.06
32.81
28.95
24.97
21.34
18.28
15.63
12.90
9.52
5.16
-0.17
-6.06
-11.97
-17.44
-22.34
-26.90
-31.58
-36.96
-43.52
-51.52
-60.79
-70.65
-79.83
-86.70
-89.65
-87.58
-80.34
-68.76
-54.46
-39.34
-25.00
-12.52
-2.23
5.99
12.63
18.20
23.09
27.49
31.38
34.64
37.20
39.17
40.85
42.59
44.59
46.83
49.07
50.98
52.33
53.02
53.06
52.47
51.12
48.92
45.79
41.84
37.28
32.37
27.24
21.85
16.10
9.89
3.33
-3.35
-9.79
-15.77
-21.21
-26.34
-31.62
-37.72
-45.34
-54.91
-66.36
-78.86
-90.85
-100.27
-105.14
-104.13
-96.95
-84.45
-68.24
-50.23
-32.09
-14.96
0.53
14.15
25.78
35.33
42.70
47.89
51.13
52.81
53.45
53.51
53.29
52.90
52.36
51.69
51.01
50.52
50.39
50.63
50.99
51.06
50.37
48.63
45.74
41.89
37.44
32.78
28.23
23.87
19.64
15.34
10.79
5.92
0.81
-4.33
-9.30
-14.00
-18.55
-23.29
-28.75
-35.45
-43.74
-53.49
-63.97
-73.82
-81.27
-84.65
-82.83
-75.64
-63.89
-49.17
-33.26
-17.75
-3.69
8.48
18.75
27.30
34.38
40.15
44.77
48.40
51.26
53.57
55.46
56.97
58.01
58.41
58.05
56.95
55.28
53.37
51.55
50.07
48.95
47.94
46.63
44.52
41.31
36.93
31.77
26.43
21.54
17.46
14.14
11.15
7.83
3.72
-1.33
-7.06
-12.91
-18.38
-23.15
-27.31
-31.27
-35.71
-41.26
-48.35
-57.00
-66.63
-76.16
-84.08
-88.81
-89.18
-84.71
-75.86
-63.87
-50.48
-37.34
-25.57
-15.42
-6.49
2.01
10.68
19.59
28.24
35.80
41.59
45.36
47.39
48.26
48.59
48.78
48.93
49.04
49.13
49.30
49.69
50.36
51.18
51.83
51.86
50.87
48.70
45.51
41.71
37.79
34.05
30.50
26.80
22.46
17.12
10.78
3.78
-3.23
-9.69
-15.30
-20.25
-25.14
-30.80
-38.02
-47.11
-57.81
-69.07
-79.22
-86.39
-88.96
-86.04
-77.70
-65.00
-49.59
-33.26
-17.56
-3.45
8.65
18.74
27.04
33.79
39.16
43.30
46.36
48.45
49.73
50.24
50.02
49.05
47.41
45.29
43.00
40.94
39.39
38.43
37.85
37.26
36.15
34.16
31.12
27.16
22.62
17.88
13.35
9.18
5.28
1.37
-2.95
-7.87
-13.40
-19.26
-25.04
-30.45
-35.42
-40.24
-45.41
-51.53
-59.07
-68.03
-77.70
-86.71
-93.17
-95.26
-91.83
-82.84
-69.54
-53.91
-38.12
-23.76
-11.56
-1.41
7.20
14.75
21.47
27.32
32.17
35.98
38.91
41.22
43.08
44.51
45.42
45.66
45.26
44.50
43.88
43.82
44.49
45.65
46.72
47.04
46.13
43.85
40.48
36.43
32.15
27.93
23.88
19.93
15.88
11.52
6.69
1.38
-4.22
-9.79
-15.06
-19.92
-24.47
-29.04
-34.00
-39.66
-46.19
-53.54
-61.39
-68.98
-75.16
-78.49
-77.70
-72.16
-62.17
-49.04
-34.61
-20.64
-8.40
1.70
9.90
16.74
22.71
28.10
32.92
37.13
40.69
43.68
46.22
48.38
50.10
51.18
51.41
50.67
49.07
46.98
44.84
43.08
41.79
40.76
39.49
37.41
34.19
29.83
24.78
19.63
15.00
11.19
8.13
5.43
2.56
-0.87
-4.98
-9.53
-14.16
-18.47
-22.30
-25.69
-29.00
-32.71
-37.32
-43.22
-50.48
-58.80
-67.32
-74.75
-79.55
-80.32
-76.22
-67.33
-54.75
-40.20
-25.67
-12.77
-2.37
5.44
11.20
15.68
19.51
23.00
26.15
28.78
30.76
32.12
33.06
33.83
34.61
35.43
36.17
36.71
36.97
36.93
36.65
36.17
35.43
34.29
32.57
30.14
27.04
23.50
19.87
16.54
13.76
11.64
10.08
8.77
7.31
5.31
2.50
-1.19
-5.59
-10.38
-15.17
-19.75
-24.14
-28.62
-33.68
-39.84
-47.51
-56.68
-66.84
-76.85
-85.11
-89.89
-89.82
-84.34
-73.94
-60.05
-44.59
-29.48
-16.16
-5.36
2.88
9.01
13.60
17.23
20.23
22.76
24.76
26.18
27.00
27.34
27.43
27.47
27.63
27.96
28.43
29.00
29.58
29.99
29.96
29.17
27.33
24.39
20.54
16.27
12.02
8.14
4.70
1.45
-1.93
-5.72
-9.98
-14.54
-19.11
-23.40
-27.32
-31.09
-35.22
-40.32
-46.86
-54.77
-63.36
-71.27
-76.80
-78.48
-75.49
-67.89
-56.59
-43.03
-28.76
-15.12
-3.00
7.17
15.29
21.52
26.12
29.40
31.64
33.08
33.99
34.57
35.01
35.46
35.94
36.49
37.09
37.76
38.54
39.49
40.56
41.56
42.21
42.09
40.88
38.46
34.94
30.67
26.07
21.48
17.09
12.79
8.33
3.41
-2.17
-8.38
-14.99
-21.57
-27.71
-33.15
-37.91
-42.36
-47.15
-53.06
-60.50
-69.36
-78.69
-86.86
-91.95
-92.39
-87.43
-77.47
-63.87
-48.54
-33.28
-19.39
-7.50
2.37
10.47
17.14
22.59
26.92
30.24
32.64
34.34
35.59
36.56
37.35
37.92
38.22
38.23
38.02
37.69
37.29
36.79
35.98
34.58
32.37
29.31
25.51
21.25
16.77
12.18
7.46
2.47
-2.84
-8.39
-13.91
-19.21
-24.19
-29.07
-34.30
-40.46
-48.08
-57.44
-68.50
-80.71
-92.98
-103.70
-111.06
-113.55
-110.46
-102.14
-89.93
-75.65
-60.99
-47.04
-34.28
-22.69
-12.09
-2.35
6.61
14.86
22.49
29.56
36.06
41.79
46.50
49.96
52.17
53.41
54.16
54.91
55.99
57.39
58.75
59.55
59.32
57.82
55.14
51.54
47.34
42.69
37.58
31.91
25.63
18.83
11.64
4.22
-3.30
-10.78
-18.15
-25.27
-32.22
-39.27
-46.94
-55.87
-66.29
-77.78
-88.98
-97.86
-102.31
-100.80
-93.04
-80.03
-63.73
-46.36
-29.78
-15.06
-2.46
8.36
17.94
26.72
34.95
42.61
49.55
55.52
60.34
63.94
66.41
67.97
68.88
69.45
69.94
70.57
71.49
72.71
74.04
75.00
75.09
73.80
70.99
66.94
62.25
57.61
53.47
49.81
46.16
41.84
36.30
29.39
21.46
13.20
5.40
-1.45
-7.36
-12.81
-18.60
-25.62
-34.49
-45.19
-57.00
-68.45
-77.60
-82.55
-82.02
-75.69
-64.43
-49.98
-34.52
-19.97
-7.51
2.67
11.18
18.98
26.87
35.04
43.03
49.97
55.00
57.74
58.38
57.54
56.01
54.38
52.97
51.86
51.02
50.37
49.88
49.41
48.73
47.56
45.67
42.94
39.43
35.37
31.00
26.48
21.88
17.15
12.25
7.16
1.92
-3.37
-8.58
-13.65
-18.59
-23.52
-28.77
-34.80
-42.04
-50.54
-59.73
-68.26
-74.24
-75.86
-72.03
-62.83
-49.50
-34.02
-18.42
-4.16
8.06
18.25
26.77
34.00
40.10
45.08
48.82
51.31
52.65
53.06
52.90
52.46
51.95
51.39
50.73
49.82
48.60
47.10
45.44
43.74
42.01
40.20
38.17
35.74
32.83
29.45
25.64
21.43
16.81
11.73
6.17
0.22
-5.92
-12.06
-18.11
-24.19
-30.68
-38.05
-46.67
-56.50
-66.92
-76.71
-84.23
-87.93
-86.75
-80.54
-70.02
-56.68
-42.16
-27.92
-14.93
-3.65
5.86
13.73
20.14
25.33
29.51
32.86
35.51
37.47
38.71
39.19
38.96
38.16
37.08
35.97
35.08
34.52
34.26
34.13
33.85
33.11
31.62
29.27
26.11
22.33
18.18
13.89
9.56
5.16
0.60
-4.16
-9.10
-14.13
-19.16
-24.12
-29.05
-34.02
-39.14
-44.59
-50.59
-57.34
-64.76
-72.28
-78.75
-82.66
-82.53
-77.57
-68.07
-55.30
-41.16
-27.46
-15.46
-5.59
2.30
8.69
14.02
18.55
22.33
25.34
27.56
29.01
29.77
29.94
29.64
29.01
28.23
27.47
26.89
26.57
26.47
26.43
26.16
25.28
23.53
20.80
17.30
13.40
9.48
5.81
2.39
-0.97
-4.59
-8.67
-13.24
-18.07
-22.84
-27.24
-31.17
-34.84
-38.74
-43.44
-49.36
-56.43
-63.96
-70.58
-74.64
-74.61
-69.71
-60.13
-47.11
-32.40
-17.84
-4.73
6.34
15.43
23.02
29.54
35.31
40.37
44.63
47.94
50.19
51.39
51.55
50.80
49.29
47.29
45.07
42.96
41.25
40.02
39.15
38.26
36.86
34.49
30.95
26.35
21.11
15.75
10.70
6.16
2.00
-2.11
-6.53
-11.41
-16.58
-21.64
-26.03
-29.33
-31.39
-32.48
-33.17
-34.27
-36.59
-40.72
-46.80
-54.34
-62.20
-68.64
-71.83
-70.40
-63.89
-52.98
-39.19
-24.42
-10.25
2.36
13.19
22.47
30.57
37.77
44.09
49.47
53.78
57.02
59.28
60.69
61.38
61.44
60.87
59.62
57.64
55.00
51.88
48.63
45.58
43.01
40.94
39.14
37.22
34.72
31.39
27.20
22.39
17.34
12.40
7.75
3.40
-0.85
-5.23
-9.92
-14.99
-20.37
-25.98
-31.65
-37.21
-42.48
-47.29
-51.61
-55.63
-59.87
-64.92
-71.23
-78.65
-86.18
-92.17
-94.78
-92.67
-85.51
-74.15
-60.21
-45.59
-31.82
-19.80
-9.74
-1.39
5.61
11.60
16.76
21.16
24.73
27.39
29.10
29.88
29.89
29.35
28.52
27.65
27.01
26.74
26.92
27.48
28.14
28.51
28.12
26.68
24.09
20.58
16.56
12.46
8.59
4.91
1.20
-2.86
-7.46
-12.63
-18.10
-23.50
-28.54
-33.09
-37.36
-41.80
-47.01
-53.46
-61.27
-70.01
-78.70
-85.90
-90.03
-89.85
-84.74
-75.03
-61.87
-46.98
-32.18
-18.93
-8.11
0.08
5.87
9.73
12.14
13.50
14.18
14.53
14.94
15.76
17.19
19.24
21.67
24.20
26.57
28.69
30.64
32.59
34.64
36.73
38.57
39.74
39.90
38.80
36.52
33.32
29.62
25.76
21.86
17.85
13.46
8.45
2.67
-3.82
-10.81
-17.99
-25.08
-31.94
-38.59
-45.37
-52.78
-61.41
-71.60
-83.08
-94.77
-104.93
-111.56
-113.08
-108.81
-99.15
-85.44
-69.39
-52.66
-36.54
-21.83
-8.95
1.97
10.95
18.23
24.15
29.14
33.54
37.54
41.13
44.15
46.49
48.09
49.03
49.51
49.74
49.89
49.98
50.01
49.93
49.71
49.31
48.67
47.67
46.13
43.93
41.04
37.54
33.59
29.36
24.92
20.25
15.26
9.91
4.23
-1.64
-7.50
-13.27
-18.89
-24.52
-30.43
-36.99
-44.64
-53.71
-64.26
-75.77
-87.08
-96.46
-101.88
-101.74
-95.25
-82.91
-66.31
-47.71
-29.45
-13.22
0.17
10.99
20.19
29.02
38.60
49.63
62.17
75.59
88.54
99.19
105.59
106.17
100.27
88.36
72.00
53.42
34.94
18.57
5.69
-2.68
-5.80
-3.03
6.08
21.64
43.31
70.20
101.04
134.10
167.25
197.84
223.03
240.03
246.70
242.20
227.15
203.58
174.23
141.78
108.18
74.29
40.09
5.08
-31.22
-68.97
-107.70
-146.28
-182.52
-213.07
-233.64
-239.89
-229.30
-202.84
-165.69
-126.07
-92.55
-70.91
-62.20
-63.04
-67.76
-71.22
-70.60
-65.51
-56.81
-45.07
-30.18
-11.87
9.12
30.65
49.82
64.11
72.65
76.34
77.24
77.55
78.85
81.93
86.95
93.64
101.27
108.49
113.32
113.52
107.55
95.35
78.54
60.00
42.69
28.42
17.30
7.90
-1.84
-13.54
-27.43
-42.31
-56.22
-67.70
-76.75
-84.98
-94.81
-107.91
-124.01
-140.61
-153.87
-160.31
-158.26
-148.51
-133.59
-116.44
-99.09
-82.18
-65.49
-48.91
-33.13
-19.63
-10.06
-5.28
-4.94
-7.55
-11.13
-13.97
-15.18
-14.76
-13.20
-11.08
-8.72
-6.17
-3.31
-0.04
3.54
7.20
10.47
12.97
14.43
14.78
14.23
13.08
11.65
10.11
8.49
6.60
4.21
1.15
-2.68
-7.11
-11.83
-16.45
-20.69
-24.39
-27.64
-30.74
-34.09
-38.21
-43.52
-50.28
-58.37
-67.10
-75.19
-80.98
-82.86
-79.78
-71.68
-59.45
-44.75
-29.32
-14.62
-1.49
9.84
19.48
27.60
34.24
39.37
42.93
45.01
45.93
46.12
46.07
46.08
46.31
46.68
47.01
47.12
46.84
46.14
44.98
43.41
41.45
39.16
36.52
33.52
30.11
26.19
21.65
16.45
10.64
4.33
-2.21
-8.73
-15.04
-21.13
-27.25
-33.89
-41.64
-50.86
-61.37
-72.17
-81.61
-87.71
-88.74
-83.84
-73.29
-58.46
-41.37
-24.08
-8.17
5.58
17.10
26.73
34.91
41.93
47.83
52.51
55.94
58.17
59.36
59.68
59.31
58.39
57.08
55.62
54.27
53.17
52.31
51.51
50.52
49.10
47.13
44.60
41.48
37.70
33.12
27.62
21.23
14.11
6.65
-0.77
-7.85
-14.55
-21.10
-27.97
-35.79
-45.05
-56.01
-68.37
-81.12
-92.60
-100.82
-103.97
-101.01
-92.02
-78.19
-61.57
-44.37
-28.48
-15.03
-4.20
4.64
12.52
20.40
28.82
37.66
46.27
53.84
59.66
63.59
65.88
67.15
67.97
68.70
69.40
69.97
70.28
70.29
70.01
69.49
68.70
67.51
65.65
62.82
58.78
53.45
46.97
39.73
32.20
24.87
18.12
12.14
6.88
2.08
-2.68
-7.93
-14.12
-21.49
-29.80
-38.11
-44.92
-48.38
-46.93
-39.85
-27.57
-11.55
6.27
24.17
41.20
57.38
73.38
89.86
106.65
122.37
134.55
140.54
138.58
128.60
112.34
92.88
73.56
57.13
44.99
37.12
32.50
29.62
27.14
24.09
20.03
14.89
8.79
2.01
-5.15
-12.27
-18.93
-24.78
-29.75
-34.21
-38.87
-44.43
-51.15
-58.67
-66.07
-72.37
-76.96
-79.86
-81.68
-83.37
-85.90
-89.90
-95.56
-102.46
-109.64
-115.65
-118.87
-117.94
-112.16
-101.85
-88.22
-73.04
-58.11
-44.73
-33.38
-23.77
-15.17
-6.80
1.77
10.44
18.64
25.66
31.07
35.01
38.24
41.82
46.70
53.31
61.38
70.20
78.90
86.81
93.52
98.72
102.01
102.87
100.78
95.48
87.13
76.30
63.71
50.05
35.88
21.61
7.66
-5.41
-16.98
-26.36
-33.08
-36.93
-38.10
-37.12
-34.94
-32.67
-31.54
-32.57
-36.29
-42.41
-49.79
-56.59
-60.74
-60.59
-55.45
-45.79
-33.07
-19.14
-5.74
6.02
15.66
23.15
28.66
32.37
34.46
35.18
34.91
34.04
32.87
31.52
29.94
28.03
25.70
23.01
20.04
16.85
13.37
9.45
4.83
-0.75
-7.50
-15.54
-24.82
-35.14
-46.14
-57.33
-68.31
-78.77
-88.66
-98.07
-107.15
-115.77
-123.50
-129.49
-132.67
-132.07
-127.10
-117.85
-105.00
-89.81
-73.81
-58.46
-44.97
-33.97
-25.40
-18.32
-11.17
-2.02
10.79
28.03
49.36
73.32
97.82
120.68
140.13
154.90
164.16
167.45
164.60
155.90
142.30
125.34
106.86
88.59
71.76
56.88
44.01
33.00
23.88
16.79
11.94
9.24
8.26
8.23
8.39
8.27
7.83
7.38
7.26
7.64
8.47
9.54
10.59
11.43
11.87
11.68
10.62
8.55
5.60
2.20
-1.06
-3.68
-5.49
-6.67
-7.63
-8.81
-10.51
-12.81
-15.65
-18.82
-21.88
-24.18
-24.84
-23.01
-18.18
-10.40
-0.35
10.97
22.58
33.82
44.43
54.31
63.31
71.02
76.90
80.52
81.84
81.24
79.41
77.07
74.62
72.10
69.24
65.65
61.01
55.27
48.57
41.13
33.12
24.59
15.53
5.88
-4.31
-14.93
-25.82
-36.84
-48.03
-59.56
-71.75
-84.75
-98.58
-112.86
-127.03
-140.50
-152.82
-163.82
-173.60
-182.52
-190.99
-199.41
-207.96
-216.39
-223.98
-229.55
-231.72
-229.30
-221.79
-209.58
-193.93
-176.51
-158.88
-141.97
-125.93
-110.28
-94.29
-77.35
-59.20
-40.00
-20.10
0.05
20.06
39.67
58.85
77.70
96.46
115.34
134.34
153.13
171.03
187.17
200.72
211.10
218.12
221.91
222.78
221.06
217.06
211.16
203.77
195.41
186.47
177.09
167.03
155.79
142.86
128.05
111.76
94.83
78.23
62.59
47.82
33.31
18.16
1.87
-15.43
-32.91
-49.24
-62.96
-72.59
-76.78
-74.42
-65.05
-49.22
-28.88
-7.09
12.59
27.26
35.48
37.60
35.39
31.17
27.00
23.99
22.15
20.59
17.84
12.30
2.78
-10.99
-28.05
-46.22
-62.61
-74.40
-79.75
-78.38
-71.58
-61.91
-52.26
-45.23
-42.41
-44.26
-50.21
-58.83
-68.30
-76.68
-82.29
-84.04
-81.70
-76.01
-68.44
-60.75
-54.42
-50.38
-48.84
-49.58
-52.24
-56.44
-61.76
-67.50
-72.65
-75.88
-76.01
-72.31
-64.83
-54.41
-42.33
-29.98
-18.39
-8.12
0.74
8.27
14.52
19.43
22.82
24.70
25.33
25.26
25.14
25.46
26.40
27.77
29.19
30.29
30.90
31.05
30.87
30.47
29.83
28.86
27.39
25.43
23.05
20.53
18.20
16.40
15.26
14.74
14.57
14.39
13.85
12.68
10.74
7.93
4.18
-0.62
-6.56
-13.59
-21.41
-29.27
-36.09
-40.48
-41.20
-37.53
-29.48
-17.94
-4.38
9.57
22.63
34.07
43.80
52.13
59.48
66.20
72.42
78.01
82.73
86.32
88.61
89.58
89.33
88.05
85.90
82.99
79.47
75.48
71.23
66.88
62.47
57.92
53.07
47.88
42.56
37.54
33.23
29.76
26.81
23.67
19.43
13.22
4.39
-7.42
-22.30
-39.92
-59.59
-80.13
-100.01
-117.56
-131.22
-139.76
-142.33
-138.64
-129.01
-114.41
-96.42
-77.02
-58.16
-41.49
-28.09
-18.48
-12.70
-10.32
-10.57
-12.35
-14.43
-15.81
-16.01
-15.19
-13.92
-12.96
-12.73
-13.24
-14.11
-14.83
-15.10
-14.90
-14.50
-14.25
-14.49
-15.30
-16.69
-18.49
-20.58
-22.89
-25.41
-28.22
-31.32
-34.72
-38.31
-41.93
-45.39
-48.49
-51.10
-53.15
-54.69
-55.91
-57.13
-58.74
-61.22
-65.03
-70.33
-76.90
-83.86
-89.78
-92.93
-91.85
-85.87
-75.38
-61.81
-47.09
-33.02
-20.76
-10.66
-2.46
4.29
9.88
14.36
17.62
19.69
20.86
21.59
22.36
23.49
25.02
26.83
28.85
31.07
33.60
36.45
39.48
42.26
44.25
44.98
44.27
42.33
39.61
36.58
33.56
30.54
27.26
23.38
18.67
13.22
7.42
1.94
-2.44
-5.02
-5.41
-3.68
-0.43
3.28
6.17
7.16
5.70
2.00
-2.93
-7.53
-10.05
-9.07
-3.81
5.57
17.98
31.64
44.56
54.96
61.70
64.52
63.81
60.51
55.64
50.22
45.05
40.73
37.60
35.73
34.91
34.71
34.67
34.46
33.88
32.90
31.50
29.58
26.91
23.32
18.70
13.17
7.03
0.64
-5.70
-11.88
-18.00
-24.38
-31.38
-39.21
-47.73
-56.31
-63.85
-69.00
-70.54
-67.77
-60.75
-50.28
-37.64
-24.18
-11.01
1.17
12.05
21.58
29.77
36.59
41.94
45.71
47.91
48.72
48.52
47.79
47.03
46.60
46.60
46.95
47.46
47.89
48.08
47.95
47.42
46.41
44.78
42.37
38.98
34.54
29.01
22.49
15.13
7.23
-0.92
-8.96
-16.60
-23.67
-30.15
-36.24
-42.30
-48.86
-56.34
-64.82
-73.81
-82.18
-88.37
-90.80
-88.48
-81.33
-70.28
-56.95
-43.04
-29.87
-18.18
-8.14
0.40
7.61
13.57
18.32
21.91
24.41
25.94
26.61
26.48
25.66
24.35
22.79
21.23
19.86
18.66
17.49
16.19
14.63
12.82
10.85
8.78
6.63
4.28
1.57
-1.61
-5.25
-9.26
-13.48
-17.77
-21.99
-26.06
-29.90
-33.49
-36.94
-40.53
-44.55
-49.12
-53.90
-57.98
-59.89
-58.08
-51.31
-39.15
-22.18
-1.89
19.73
40.69
59.36
74.81
86.72
95.31
101.11
104.75
106.96
108.30
109.27
110.16
111.01
111.59
111.49
110.27
107.61
103.53
98.38
92.80
87.44
82.69
78.54
74.45
69.69
63.50
55.59
46.24
36.38
27.16
19.65
14.36
11.05
8.83
6.37
2.24
-4.71
-15.09
-28.76
-44.81
-61.71
-77.75
-91.49
-102.09
-109.44
-113.93
-116.06
-116.03
-113.69
-108.56
-100.24
-88.58
-73.90
-57.00
-39.23
-22.34
-8.22
1.65
6.68
7.41
5.14
1.29
-3.34
-8.80
-15.62
-24.03
-33.43
-42.34
-49.03
-52.36
-52.35
-50.18
-47.52
-45.85
-45.87
-47.45
-49.95
-52.62
-55.03
-57.16
-59.31
-61.91
-65.39
-69.90
-75.38
-81.37
-86.97
-90.95
-91.89
-88.51
-80.07
-66.68
-49.22
-29.18
-8.17
12.43
31.66
49.03
64.33
77.55
88.73
97.88
104.97
109.89
112.45
112.45
109.82
104.75
97.79
89.81
81.81
74.66
68.90
64.62
61.49
58.91
56.05
52.09
46.27
38.10
27.54
15.06
1.55
-11.92
-24.54
-36.02
-46.65
-56.89
-66.98
-76.42
-83.93
-87.83
-86.61
-79.64
-67.46
-51.67
-34.43
-17.82
-3.30
8.46
17.54
24.49
29.89
34.27
37.86
40.66
42.63
43.81
44.38
44.65
44.93
45.24
45.38
44.97
43.74
41.77
39.49
37.47
36.10
35.33
34.65
33.40
31.03
27.41
22.78
17.62
12.45
7.61
3.25
-0.71
-4.56
-8.78
-13.94
-20.53
-28.73
-38.11
-47.64
-55.77
-60.83
-61.49
-57.24
-48.53
-36.61
-23.18
-9.81
2.37
12.89
21.75
29.17
35.31
40.18
43.75
46.02
47.15
47.39
47.00
46.05
44.46
42.10
38.95
35.26
31.40
27.85
24.94
22.77
21.13
19.62
17.80
15.32
12.00
7.89
3.22
-1.62
-6.31
-10.58
-14.37
-17.82
-21.23
-25.01
-29.52
-34.92
-40.98
-47.01
-51.85
-54.17
-52.85
-47.34
-37.93
-25.72
-12.31
0.66
11.95
20.96
27.77
32.83
36.66
39.60
41.71
42.90
43.17
42.66
41.74
40.79
40.02
39.45
38.82
37.90
36.56
34.91
33.18
31.61
30.27
28.98
27.47
25.38
22.52
18.86
14.60
10.01
5.44
1.14
-2.85
-6.65
-10.58
-14.99
-20.16
-26.24
-33.19
-40.78
-48.49
-55.50
-60.73
-63.00
-61.37
-55.48
-45.79
-33.48
-20.20
-7.50
3.49
12.33
19.11
24.23
28.10
30.92
32.77
33.59
33.46
32.53
31.14
29.68
28.39
27.36
26.45
25.45
24.16
22.57
20.81
19.10
17.64
16.49
15.50
14.38
12.86
10.71
7.98
4.86
1.66
-1.34
-4.06
-6.53
-8.94
-11.53
-14.48
-17.96
-22.15
-27.23
-33.20
-39.76
-46.04
-50.83
-52.81
-51.06
-45.46
-36.75
-26.30
-15.65
-6.00
2.01
8.24
12.97
16.48
19.03
20.71
21.56
21.70
21.30
20.63
19.97
19.55
19.40
19.46
19.55
19.57
19.44
19.16
18.73
18.08
17.10
15.61
13.49
10.69
7.18
2.93
-2.16
-8.20
-15.29
-23.45
-32.58
-42.51
-52.97
-63.65
-74.11
-83.81
-92.27
-99.17
-104.59
-108.82
-112.18
-114.57
-115.32
-113.27
-107.22
-96.48
-81.18
-62.27
-41.16
-19.21
2.61
23.78
44.11
63.39
81.15
96.71
109.31
118.41
123.88
126.05
125.59
123.20
119.40
114.46
108.56
101.86
94.65
87.25
79.82
72.20
63.99
54.68
43.96
31.85
18.76
5.36
-7.69
-19.90
-31.11
-41.49
-51.29
-60.66
-69.47
-77.30
-83.65
-88.19
-91.06
-92.88
-94.46
-96.38
-98.64
-100.59
-101.21
-99.59
-95.20
-87.86
-77.40
-63.50
-45.81
-24.50
-0.60
23.90
46.66
65.90
81.01
92.50
101.36
108.19
112.85
114.67
113.32
109.40
104.57
100.93
100.09
102.39
106.81
111.53
114.74
115.43
113.60
110.06
105.76
101.28
96.56
91.23
85.10
78.54
72.58
68.49
67.19
68.78
72.57
77.44
82.27
86.34
89.24
90.62
89.91
86.21
78.35
65.33
46.69
23.04
-3.73
-30.57
-53.87
-70.72
-79.88
-82.49
-81.71
-81.39
-84.49
-91.69
-101.27
-109.92
-114.27
-112.34
-104.20
-91.77
-77.96
-65.66
-56.87
-52.48
-52.29
-55.48
-60.98
-67.80
-75.00
-81.63
-86.65
-89.13
-88.58
-85.29
-80.39
-75.36
-71.40
-68.92
-67.53
-66.53
-65.48
-64.54
-64.27
-65.06
-66.71
-68.31
-68.81
-67.56
-64.71
-61.13
-57.93
-55.98
-55.60
-56.57
-58.30
-60.10
-61.33
-61.54
-60.65
-59.01
-57.45
-57.06
-59.02
-64.46
-74.18
-88.32
-105.88
-124.49
-140.72
-151.15
-153.63
-148.27
-137.28
-123.77
-110.20
-97.36
-84.59
-70.80
-55.74
-40.42
-26.51
-15.24
-6.60
0.55
7.72
15.82
24.78
33.77
41.79
48.31
53.36
57.38
60.83
63.88
66.30
67.63
67.39
65.33
61.63
56.79
51.48
46.16
40.95
35.57
29.48
22.29
13.95
4.89
-4.21
-12.54
-19.67
-25.58
-30.79
-36.17
-42.57
-50.53
-59.96
-69.95
-78.89
-84.90
-86.31
-82.22
-72.82
-59.33
-43.68
-27.85
-13.39
-0.99
9.41
18.32
26.34
33.83
40.90
47.61
54.19
61.05
68.59
76.81
85.21
92.84
98.70
102.30
103.81
103.94
103.53
103.03
102.38
101.01
98.28
93.75
87.35
79.30
69.94
59.57
48.39
36.55
24.21
11.70
-0.65
-12.52
-23.89
-35.21
-47.35
-61.26
-77.38
-95.16
-112.82
-127.68
-136.93
-138.61
-132.22
-118.83
-100.68
-80.40
-60.24
-41.78
-25.79
-12.50
-1.83
6.45
12.63
17.08
20.30
22.79
25.00
27.28
29.82
32.69
35.82
39.07
42.21
44.94
46.96
48.07
48.28
47.76
46.86
45.83
44.60
42.72
39.52
34.30
26.69
16.87
5.49
-6.47
-17.90
-27.78
-35.32
-40.12
-42.29
-42.46
-41.62
-40.71
-40.09
-39.34
-37.31
-32.71
-24.87
-14.15
-1.94
9.89
19.77
26.97
31.83
35.34
38.68
42.55
47.00
51.39
54.87
56.74
56.89
55.77
54.10
52.44
50.88
48.96
46.15
42.19
37.55
33.26
30.41
29.60
30.54
32.21
33.29
32.82
30.54
26.86
22.62
18.55
15.08
12.20
9.53
6.52
2.55
-2.93
-10.23
-19.29
-29.43
-39.36
-47.36
-51.75
-51.34
-45.83
-35.91
-22.93
-8.55
5.72
18.89
30.41
40.13
48.08
54.45
59.46
63.45
66.81
69.90
72.90
75.70
78.00
79.39
79.56
78.46
76.31
73.56
70.68
68.07
65.96
64.43
63.39
62.62
61.68
59.98
56.92
52.07
45.37
37.21
28.32
19.54
11.44
4.19
-2.53
-9.38
-17.13
-26.31
-37.04
-48.85
-60.71
-71.22
-78.77
-82.02
-80.13
-73.04
-61.46
-46.83
-30.96
-15.56
-1.96
9.14
17.60
23.72
27.94
30.69
32.44
33.67
34.99
37.06
40.34
44.92
50.43
56.15
61.25
65.11
67.37
68.06
67.33
65.46
62.67
59.20
55.19
50.76
45.92
40.66
34.97
28.97
22.96
17.31
12.27
7.72
3.06
-2.56
-9.98
-19.65
-31.49
-44.97
-59.33
-73.77
-87.39
-99.13
-107.70
-111.84
-110.65
-104.08
-93.07
-79.29
-64.62
-50.57
-38.15
-27.86
-20.01
-14.69
-11.66
-10.12
-8.65
-5.75
-0.33
7.68
17.28
26.81
34.68
40.02
42.74
43.48
43.00
41.82
40.10
37.75
34.72
31.18
27.60
24.56
22.55
21.72
21.82
22.23
22.22
21.13
18.64
14.86
10.18
5.16
0.25
-4.29
-8.49
-12.58
-16.85
-21.63
-27.13
-33.39
-40.18
-46.90
-52.65
-56.31
-56.82
-53.53
-46.43
-36.17
-23.96
-11.14
1.10
11.93
20.97
28.21
33.85
38.11
41.14
42.98
43.62
43.08
41.53
39.38
37.12
35.25
34.07
33.65
33.79
34.18
34.47
34.39
33.68
32.08
29.38
25.45
20.44
14.76
9.04
3.90
-0.31
-3.62
-6.45
-9.41
-12.98
-17.32
-22.18
-27.07
-31.48
-35.12
-37.99
-40.43
-42.86
-45.76
-49.46
-53.96
-58.81
-63.12
-65.65
-65.15
-60.81
-52.54
-41.08
-27.81
-14.24
-1.62
9.35
18.59
26.39
33.21
39.42
45.14
50.24
54.45
57.48
59.15
59.50
58.74
57.25
55.40
53.51
51.84
50.64
50.12
50.40
51.36
52.46
52.82
51.49
47.82
41.84
34.27
26.22
18.78
12.53
7.46
3.17
-0.78
-4.59
-8.17
-11.33
-14.01
-16.37
-18.69
-21.24
-24.09
-27.28
-30.91
-35.21
-40.60
-47.30
-55.17
-63.46
-70.98
-76.36
-78.44
-76.67
-71.23
-62.97
-53.16
-43.17
-34.10
-26.61
-20.81
-16.42
-12.95
-9.90
-6.94
-3.94
-0.90
2.02
4.67
6.88
8.52
9.45
9.69
9.26
8.35
7.23
6.28
5.83
6.14
7.21
8.77
10.31
11.29
11.32
10.29
8.32
5.60
2.24
-1.86
-6.83
-12.68
-19.20
-25.88
-32.13
-37.52
-41.85
-45.24
-48.03
-50.62
-53.40
-56.66
-60.48
-64.65
-68.59
-71.39
-71.96
-69.36
-63.09
-53.29
-40.73
-26.61
-12.29
1.08
12.75
22.46
30.31
36.66
41.89
46.25
49.83
52.66
54.79
56.37
57.59
58.54
59.10
59.00
57.91
55.71
52.57
48.88
45.05
41.31
37.58
33.54
28.88
23.42
17.24
10.65
4.00
-2.47
-8.68
-14.66
-20.48
-26.12
-31.46
-36.31
-40.50
-44.02
-46.97
-49.64
-52.38
-55.57
-59.47
-64.12
-69.17
-73.87
-77.05
-77.45
-74.10
-66.70
-55.75
-42.44
-28.30
-14.72
-2.64
7.48
15.63
22.07
27.05
30.81
33.52
35.30
36.29
36.58
36.30
35.53
34.35
32.80
30.94
28.89
26.84
25.03
23.67
22.81
22.18
21.29
19.54
16.46
11.91
6.12
-0.29
-6.65
-12.26
-16.76
-20.10
-22.62
-24.85
-27.39
-30.67
-34.81
-39.58
-44.48
-49.02
-52.94
-56.37
-59.84
-64.04
-69.67
-77.01
-85.75
-94.87
-102.74
-107.50
-107.54
-101.99
-91.02
-75.85
-58.39
-40.66
-24.36
-10.51
0.58
9.12
15.60
20.59
24.58
27.91
30.72
33.00
34.65
35.64
36.07
36.17
36.21
36.33
36.52
36.67
36.68
36.65
36.80
37.34
38.33
39.42
40.07
39.69
37.98
34.94
30.97
26.55
22.05
17.54
12.81
7.55
1.48
-5.47
-13.04
-20.80
-28.26
-35.02
-40.98
-46.31
-51.41
-56.81
-62.95
-69.97
-77.56
-84.86
-90.61
-93.35
-91.83
-85.36
-74.14
-59.24
-42.34
-25.36
-9.99
2.68
12.31
19.22
24.13
27.86
31.03
33.92
36.49
38.62
40.24
41.40
42.28
43.01
43.66
44.17
44.49
44.60
44.53
44.28
43.74
42.67
40.81
38.07
34.58
30.76
27.04
23.74
20.92
18.31
15.51
12.22
8.38
4.28
0.46
-2.50
-4.30
-5.06
-5.47
-6.59
-9.60
-15.32
-23.77
-33.93
-43.91
-51.43
-54.55
-52.43
-45.56
-35.62
-24.94
-15.61
-8.85
-4.80
-2.73
-1.54
-0.44
0.82
1.92
2.32
1.63
-0.15
-2.74
-5.73
-8.80
-11.85
-14.76
-17.42
-19.64
-21.22
-22.13
-22.62
-23.21
-24.49
-26.97
-30.85
-35.97
-41.89
-48.07
-54.16
-60.06
-65.96
-72.16
-78.69
-85.20
-90.92
-95.06
-97.25
-97.97
-98.47
-100.41
-105.14
-112.91
-122.61
-131.89
-137.92
-138.19
-131.33
-117.30
-97.33
-73.29
-47.26
-21.01
4.08
27.03
47.21
64.33
78.49
90.07
99.56
107.39
113.67
118.32
121.13
122.02
121.13
118.83
115.49
111.40
106.67
101.38
95.65
89.79
84.08
78.77
73.82
68.97
63.75
57.72
50.60
42.33
33.04
22.92
12.18
0.93
-10.67
-22.53
-34.49
-46.56
-58.91
-72.00
-86.44
-102.64
-120.38
-138.34
-154.10
-164.59
-166.98
-159.82
-143.54
-120.50
-94.11
-67.79
-43.96
-23.52
-6.09
9.50
24.47
39.59
54.93
69.95
83.85
95.83
105.39
112.44
117.19
119.98
121.16
121.04
120.07
118.74
117.56
116.87
116.53
115.99
114.45
111.27
106.27
99.70
92.09
83.81
74.96
65.39
55.01
44.00
32.89
22.26
12.49
3.53
-5.07
-14.02
-24.04
-35.61
-48.70
-62.55
-75.63
-85.80
-90.82
-89.08
-80.16
-65.13
-46.12
-25.68
-5.96
11.67
26.69
39.08
48.86
56.05
60.58
62.60
62.54
61.10
59.09
57.14
55.59
54.45
53.49
52.44
51.17
49.70
48.22
46.91
45.83
44.87
43.80
42.44
40.78
39.04
37.48
36.28
35.24
33.79
31.18
26.79
20.45
12.52
3.75
-5.06
-13.41
-21.29
-29.11
-37.52
-47.15
-58.38
-71.14
-84.73
-97.74
-108.18
-113.77
-112.59
-103.76
-87.87
-66.86
-43.60
-20.93
-0.99
15.21
27.71
37.23
44.63
50.63
55.62
59.75
63.00
65.28
66.45
66.39
65.07
62.58
59.22
55.43
51.68
48.39
45.75
43.70
41.98
40.24
38.09
35.38
32.12
28.56
25.06
21.94
19.30
16.95
14.43
11.22
6.91
1.49
-4.72
-11.14
-17.21
-22.63
-27.53
-32.36
-37.84
-44.56
-52.78
-62.16
-71.67
-79.83
-84.98
-85.80
-81.68
-72.88
-60.36
-45.59
-30.10
-15.23
-1.89
9.43
18.63
25.97
31.83
36.61
40.63
44.01
46.76
48.77
50.03
50.62
50.76
50.70
50.73
51.07
51.78
52.74
53.60
53.83
52.91
50.52
46.67
41.73
36.29
30.82
25.52
20.20
14.54
8.25
1.36
-5.78
-12.62
-18.67
-23.80
-28.25
-32.63
-37.69
-44.09
-52.16
-61.72
-71.99
-81.51
-88.44
-90.91
-87.57
-78.10
-63.28
-44.90
-25.17
-6.15
10.76
24.92
36.40
45.62
53.03
58.93
63.38
66.36
67.82
67.92
67.00
65.52
63.91
62.48
61.34
60.38
59.41
58.23
56.67
54.65
52.04
48.77
44.75
40.04
34.80
29.41
24.35
20.05
16.77
14.45
12.71
10.88
8.32
4.55
-0.53
-6.59
-13.09
-19.45
-25.33
-30.73
-36.04
-41.81
-48.62
-56.86
-66.52
-77.10
-87.50
-96.20
-101.53
-102.14
-97.38
-87.54
-73.73
-57.59
-40.84
-24.92
-10.82
1.11
10.94
19.06
25.95
31.93
37.09
41.21
43.96
45.11
44.76
43.31
41.38
39.56
38.13
37.16
36.40
35.66
34.73
33.60
32.25
30.61
28.56
25.90
22.53
18.47
13.96
9.38
5.04
1.16
-2.26
-5.36
-8.40
-11.54
-14.92
-18.57
-22.44
-26.49
-30.61
-34.72
-38.71
-42.45
-45.91
-49.18
-52.54
-56.49
-61.59
-68.09
-75.69
-83.22
-88.87
-90.68
-87.25
-78.37
-65.14
-49.58
-33.92
-19.86
-8.18
1.26
9.00
15.58
21.19
25.73
28.95
30.75
31.32
31.11
30.71
30.55
30.88
31.56
32.32
32.87
33.14
33.37
33.91
35.08
36.78
38.60
39.82
39.81
38.21
35.09
30.86
26.02
21.03
16.13
11.44
7.00
2.81
-1.13
-4.86
-8.46
-11.97
-15.35
-18.56
-21.56
-24.47
-27.68
-31.82
-37.54
-45.15
-54.29
-63.71
-71.45
-75.37
-73.84
-66.39
-53.90
-38.31
-21.92
-6.68
6.40
17.16
26.11
33.90
40.94
47.35
52.98
57.64
61.22
63.70
65.17
65.67
65.22
63.78
61.34
57.97
53.86
49.27
44.45
39.49
34.30
28.67
22.45
15.74
8.89
2.41
-3.15
-7.48
-10.56
-12.60
-14.00
-15.23
-16.70
-18.75
-21.55
-25.14
-29.35
-33.91
-38.51
-42.90
-46.99
-50.87
-54.85
-59.37
-64.92
-71.98
-80.69
-90.69
-100.97
-110.00
-115.99
-117.38
-113.28
-103.74
-89.71
-72.79
-54.80
-37.34
-21.45
-7.57
4.42
14.88
24.17
32.45
39.67
45.73
50.59
54.42
57.56
60.33
62.93
65.36
67.47
69.10
70.20
70.84
71.17
71.34
71.37
71.20
70.67
69.62
67.95
65.68
62.88
59.67
56.09
52.12
47.68
42.74
37.35
31.58
25.48
18.98
11.98
4.47
-3.35
-11.09
-18.34
-24.88
-30.85
-36.74
-43.10
-50.32
-58.40
-66.89
-74.96
-81.53
-85.48
-85.86
-82.12
-74.25
-62.89
-49.21
-34.64
-20.48
-7.68
3.33
12.44
19.81
25.53
29.71
32.39
33.72
33.96
33.44
32.51
31.46
30.47
29.63
29.03
28.72
28.79
29.30
30.20
31.32
32.30
32.68
31.97
29.82
26.19
21.28
15.53
9.42
3.35
-2.52
-8.13
-13.52
-18.70
-23.56
-27.99
-31.91
-35.25
-37.99
-40.14
-41.90
-43.63
-45.92
-49.34
-54.10
-59.73
-65.05
-68.47
-68.56
-64.58
-56.75
-46.13
-34.11
-22.01
-10.75
-0.80
7.66
14.67
20.30
24.74
28.26
31.13
33.57
35.67
37.42
38.76
39.62
39.96
39.87
39.42
38.77
38.11
37.49
36.84
35.96
34.54
32.32
29.22
25.36
20.98
16.45
12.08
8.09
4.51
1.22
-2.10
-5.86
-10.39
-15.87
-22.17
-28.97
-35.82
-42.32
-48.28
-53.72
-58.94
-64.43
-70.79
-78.54
-87.86
-98.38
-109.05
-118.33
-124.55
-126.37
-123.10
-114.79
-102.07
-85.93
-67.55
-48.18
-29.10
-11.42
4.03
16.86
27.11
35.13
41.27
45.77
48.73
50.18
50.40
49.90
49.36
49.37
50.20
51.76
53.66
55.49
57.02
58.27
59.32
60.17
60.57
60.09
58.35
55.23
50.98
46.14
41.28
36.81
32.83
29.20
25.68
22.02
18.05
13.71
9.00
4.01
-1.10
-6.16
-11.08
-15.90
-20.87
-26.46
-33.22
-41.60
-51.68
-62.87
-73.88
-82.82
-87.76
-87.24
-80.83
-69.29
-54.26
-37.80
-21.66
-7.02
5.67
16.45
25.59
33.39
40.05
45.69
50.37
54.12
56.95
58.87
59.88
60.03
59.50
58.58
57.59
56.80
56.33
56.04
55.61
54.72
53.16
50.87
47.89
44.34
40.22
35.50
30.12
24.11
17.61
10.80
3.92
-2.88
-9.45
-15.71
-21.58
-27.03
-32.14
-37.06
-42.04
-47.37
-53.41
-60.42
-68.47
-77.14
-85.44
-91.84
-94.68
-92.74
-85.73
-74.45
-60.59
-46.04
-32.34
-20.37
-10.36
-2.14
4.49
9.75
13.84
17.09
19.95
22.79
25.83
28.95
31.91
34.42
36.44
38.07
39.62
41.37
43.44
45.77
48.07
49.91
50.82
50.38
48.35
44.75
39.83
34.08
28.12
22.47
17.50
13.29
9.58
5.88
1.60
-3.65
-9.97
-16.94
-23.88
-30.09
-35.13
-39.09
-42.54
-46.37
-51.50
-58.59
-67.70
-78.20
-88.68
-97.21
-101.75
-100.70
-93.40
-80.34
-63.09
-43.88
-24.99
-8.16
5.73
16.67
25.26
32.29
38.38
43.78
48.44
52.15
54.77
56.33
57.05
57.21
57.03
56.67
56.16
55.50
54.74
53.93
53.18
52.53
51.95
51.21
50.03
48.10
45.22
41.42
36.93
32.09
27.23
22.57
18.17
13.96
9.80
5.51
0.95
-3.99
-9.26
-14.72
-20.11
-25.11
-29.55
-33.40
-36.92
-40.53
-44.81
-50.24
-57.00
-64.75
-72.44
-78.46
-81.03
-78.69
-70.90
-58.19
-42.05
-24.48
-7.44
7.54
19.52
28.22
33.78
36.78
37.99
38.19
38.02
37.83
37.62
37.16
36.21
34.62
32.35
29.52
26.31
23.02
20.01
17.75
16.51
16.33
16.87
17.50
17.56
16.53
14.23
10.81
6.62
2.10
-2.43
-6.74
-10.87
-14.94
-19.16
-23.66
-28.41
-33.14
-37.41
-40.83
-43.24
-44.87
-46.32
-48.53
-52.46
-58.95
-68.26
-79.81
-92.06
-102.67
-109.05
-109.09
-101.81
-87.73
-68.67
-47.18
-25.80
-6.49
9.70
22.53
32.37
39.78
45.38
49.62
52.80
55.08
56.52
57.07
56.69
55.41
53.40
50.98
48.67
46.98
46.29
46.61
47.54
48.37
48.38
47.10
44.48
40.89
36.93
33.16
29.93
27.21
24.69
21.83
18.11
13.16
6.92
-0.33
-8.04
-15.60
-22.57
-28.95
-35.23
-42.23
-50.71
-60.82
-71.89
-82.28
-89.79
-92.32
-88.58
-78.58
-63.52
-45.54
-26.85
-9.28
6.12
19.05
29.73
38.62
46.13
52.57
58.04
62.48
65.73
67.60
68.06
67.28
65.66
63.68
61.84
60.45
59.60
59.22
59.08
58.91
58.40
57.33
55.55
53.06
49.99
46.55
42.94
39.14
34.94
29.85
23.41
15.34
5.79
-4.70
-15.30
-25.23
-34.08
-41.90
-49.16
-56.57
-64.74
-73.91
-83.71
-93.19
-100.89
-105.31
-105.28
-100.39
-91.13
-78.77
-64.97
-51.31
-38.93
-28.34
-19.61
-12.50
-6.75
-2.16
1.41
4.13
6.29
8.25
10.41
13.03
16.15
19.58
22.94
25.88
28.18
29.80
30.82
31.20
30.82
29.46
27.00
23.52
19.30
14.70
9.99
5.12
-0.17
-6.27
-13.52
-22.03
-31.72
-42.34
-53.66
-65.44
-77.41
-89.25
-100.47
-110.60
-119.14
-125.79
-130.32
-132.48
-131.91
-127.98
-120.00
-107.42
-90.29
-69.43
-46.42
-23.25
-1.76
16.78
31.92
43.93
53.45
61.11
67.35
72.34
76.07
78.50
79.68
79.80
79.10
77.82
76.17
74.33
72.55
71.14
70.55
71.14
73.04
75.88
78.90
81.04
81.34
79.27
74.92
68.92
62.19
55.59
49.66
44.48
39.78
35.14
30.20
24.81
19.12
13.45
8.08
3.10
-1.74
-6.94
-13.18
-20.99
-30.65
-41.84
-53.68
-64.77
-73.40
-78.01
-77.55
-71.96
-62.00
-49.18
-35.23
-21.66
-9.52
0.69
8.86
15.27
20.31
24.53
28.45
32.44
36.67
41.06
45.38
49.41
53.05
56.27
59.10
61.53
63.46
64.74
65.18
64.66
63.06
60.37
56.64
52.07
46.92
41.45
35.86
30.21
24.41
18.29
11.73
4.69
-2.68
-10.14
-17.38
-24.11
-30.20
-35.69
-40.84
-46.07
-51.95
-59.00
-67.55
-77.50
-88.18
-98.23
-105.86
-109.26
-107.12
-99.10
-86.00
-69.45
-51.45
-33.71
-17.35
-2.82
9.86
20.76
29.89
37.11
42.36
45.74
47.58
48.34
48.48
48.30
47.89
47.24
46.32
45.21
44.11
43.28
42.84
42.61
42.24
41.21
39.17
36.06
32.18
27.99
23.87
19.84
15.61
10.69
4.78
-2.09
-9.48
-16.77
-23.48
-29.42
-34.75
-39.85
-45.09
-50.81
-57.24
-64.58
-72.85
-81.76
-90.44
-97.51
-101.25
-100.22
-93.65
-81.75
-65.71
-47.31
-28.43
-10.62
5.09
18.23
28.80
37.06
43.38
48.17
51.80
54.53
56.57
58.03
58.97
59.41
59.34
58.75
57.66
56.14
54.36
52.53
50.91
49.63
48.65
47.68
46.30
44.03
40.63
36.14
30.87
25.30
19.86
14.77
9.95
5.07
-0.21
-6.12
-12.56
-19.19
-25.52
-31.15
-35.98
-40.22
-44.45
-49.33
-55.55
-63.53
-73.27
-84.19
-95.10
-104.31
-109.87
-110.20
-104.48
-92.96
-76.92
-58.37
-39.40
-21.75
-6.44
6.23
16.49
24.80
31.68
37.48
42.41
46.55
49.90
52.50
54.39
55.60
56.11
55.90
55.04
53.68
52.12
50.66
49.50
48.59
47.59
45.97
43.26
39.22
34.05
28.28
22.63
17.78
14.07
11.23
8.53
5.11
0.33
-5.97
-13.29
-20.80
-27.36
-32.22
-35.27
-37.20
-39.21
-42.67
-48.74
-57.64
-68.31
-78.01
-83.32
-81.32
-70.72
-52.13
-27.73
-0.65
26.26
50.76
72.00
89.64
103.62
113.71
120.06
123.41
124.81
125.90
123.92
116.87
103.70
84.58
59.95
30.64
-0.60
-32.75
-63.61
-90.72
-111.90
-126.78
-134.43
-135.72
-132.09
-124.92
-115.53
-104.74
-93.40
-81.88
-70.54
-59.71
-50.08
-42.26
-36.58
-33.14
-31.45
-30.92
-30.87
-31.03
-31.50
-32.83
-35.36
-39.05
-43.66
-48.49
-52.66
-54.80
-53.25
-46.37
-33.29
-14.45
8.30
31.93
53.38
70.51
82.76
91.06
97.06
102.25
107.27
111.82
114.77
114.75
110.62
101.84
88.81
72.92
56.45
42.22
32.94
30.25
34.08
42.41
51.88
58.98
61.33
58.49
51.93
44.26
38.05
34.95
35.36
38.42
42.53
45.67
45.84
41.33
31.17
15.36
-4.91
-27.46
-49.69
-69.05
-83.81
-93.25
-97.90
-99.30
-99.43
-100.04
-101.72
-103.53
-102.99
-96.95
-82.85
-59.89
-29.84
3.31
34.38
58.57
72.73
75.90
69.09
54.50
34.82
12.82
-8.61
-26.31
-37.15
-38.95
-31.52
-17.50
-1.88
9.67
12.97
7.34
-4.15
-16.05
-23.13
-22.77
-16.07
-7.16
-1.10
-1.81
-10.74
-27.03
-48.39
-72.38
-97.07
-121.05
-143.20
-162.55
-178.48
-191.23
-202.00
-212.57
-224.22
-236.87
-248.64
-256.59
-257.69
-250.08
-233.49
-209.10
-178.85
-144.73
-108.45
-71.23
-33.90
3.10
39.51
75.04
108.92
139.72
165.70
185.47
198.90
207.45
213.63
219.93
227.63
236.23
243.69
247.43
245.33
236.41
221.11
201.06
178.51
155.82
134.95
116.98
102.07
89.40
77.54
65.00
50.71
34.31
16.20
-2.67
-21.16
-38.25
-53.35
-66.40
-77.88
-88.52
-98.98
-109.50
-119.75
-129.01
-136.33
-140.93
-142.26
-140.05
-134.23
-124.87
-112.26
-96.88
-79.43
-60.72
-41.54
-22.62
-4.61
11.82
26.05
37.62
46.57
53.52
59.58
65.97
73.50
82.18
91.23
99.36
105.31
108.26
108.04
105.10
100.14
93.76
86.36
78.03
68.77
58.69
48.12
37.59
27.65
18.75
11.04
4.36
-1.68
-7.66
-14.14
-21.55
-29.99
-38.98
-47.37
-53.51
-55.68
-52.71
-44.55
-32.39
-18.31
-4.64
6.91
15.65
22.01
27.12
32.24
38.19
45.16
52.75
60.16
66.51
71.10
73.44
73.33
70.83
66.26
60.17
53.35
46.65
40.81
36.15
32.50
29.24
25.55
20.77
14.57
7.07
-1.35
-10.15
-18.79
-26.75
-33.56
-38.83
-42.33
-44.14
-44.73
-44.85
-45.34
-46.93
-50.07
-54.82
-60.77
-67.09
-72.41
-75.16
-73.85
-67.58
-56.39
-41.32
-24.13
-6.73
9.39
23.39
35.04
44.40
51.53
56.36
58.79
58.75
56.39
51.99
45.86
38.27
29.42
19.54
8.95
-1.92
-12.56
-22.53
-31.50
-39.25
-45.71
-50.92
-55.02
-58.25
-60.84
-62.92
-64.46
-65.24
-64.98
-63.40
-60.41
-56.05
-50.53
-44.18
-37.40
-30.59
-24.18
-18.49
-13.75
-10.08
-7.61
-6.58
-7.20
-9.44
-12.67
-15.60
-16.44
-13.53
-6.01
5.80
20.43
35.80
50.00
61.79
70.88
77.65
82.74
86.67
89.66
91.66
92.54
92.24
90.86
88.61
85.75
82.44
78.75
74.68
70.37
66.07
62.21
59.21
57.30
56.34
55.83
55.03
53.23
50.03
45.47
40.04
34.43
29.26
24.88
21.20
17.79
14.08
9.67
4.42
-1.48
-7.68
-13.84
-19.80
-25.56
-31.21
-36.96
-43.03
-49.68
-57.04
-64.95
-72.83
-79.52
-83.59
-83.71
-79.07
-69.71
-56.60
-41.24
-25.29
-10.11
3.48
15.21
25.23
33.83
41.22
47.56
52.86
57.18
60.64
63.44
65.78
67.86
69.76
71.52
73.15
74.63
75.91
76.86
77.29
76.89
75.40
72.56
68.29
62.70
56.04
48.68
40.96
33.09
25.05
16.63
7.65
-1.92
-11.81
-21.55
-30.57
-38.56
-45.49
-51.65
-57.47
-63.33
-69.51
-75.98
-82.41
-88.05
-91.85
-92.56
-89.18
-81.26
-69.24
-54.37
-38.36
-22.97
-9.49
1.40
9.67
15.66
19.89
22.87
25.02
26.60
27.73
28.37
28.32
27.32
25.14
21.68
17.02
11.49
5.62
0.07
-4.55
-7.87
-9.90
-11.04
-11.99
-13.40
-15.74
-19.11
-23.26
-27.73
-32.06
-35.97
-39.39
-42.43
-45.28
-48.13
-51.09
-54.20
-57.50
-61.01
-64.77
-68.84
-73.26
-78.14
-83.65
-90.07
-97.54
-105.86
-114.23
-121.31
-125.48
-125.36
-120.29
-110.55
-97.28
-81.97
-66.07
-50.67
-36.44
-23.76
-12.82
-3.69
3.79
9.93
15.27
20.39
25.73
31.53
37.85
44.61
51.65
58.70
65.43
71.40
76.26
79.86
82.37
84.19
85.83
87.64
89.60
91.37
92.44
92.44
91.33
89.44
87.21
84.95
82.69
80.11
76.81
72.48
67.11
60.90
54.08
46.81
38.99
30.37
20.56
9.13
-4.29
-19.88
-37.37
-55.86
-73.76
-89.14
-100.24
-106.09
-106.82
-103.55
-97.89
-91.38
-85.01
-79.24
-74.13
-69.62
-65.65
-62.12
-58.82
-55.40
-51.47
-46.75
-41.22
-35.11
-28.81
-22.70
-17.04
-11.90
-7.21
-2.78
1.53
5.77
9.80
13.33
15.97
17.39
17.45
16.28
14.24
11.76
9.18
6.61
3.93
0.91
-2.67
-6.80
-11.30
-15.78
-19.92
-23.54
-26.72
-29.80
-33.29
-37.71
-43.42
-50.40
-58.13
-65.60
-71.42
-74.19
-72.87
-67.11
-57.41
-44.94
-31.23
-17.66
-5.19
5.72
15.05
22.92
29.50
34.90
39.26
42.78
45.74
48.41
51.01
53.67
56.39
59.19
61.95
64.61
67.05
69.17
70.93
72.37
73.57
74.45
74.73
73.89
71.35
66.78
60.33
52.58
44.27
35.94
27.60
18.84
9.00
-2.24
-14.64
-27.34
-39.20
-49.25
-57.15
-63.26
-68.50
-74.07
-80.99
-89.74
-100.02
-110.67
-119.88
-125.64
-126.26
-120.89
-109.88
-94.56
-76.86
-58.75
-41.75
-26.69
-13.76
-2.75
6.80
15.27
22.98
30.09
36.66
42.71
48.26
53.34
58.02
62.43
66.70
70.90
75.09
79.27
83.36
87.26
90.91
94.23
97.12
99.41
100.85
101.07
99.64
96.22
90.67
83.21
74.42
65.25
56.67
49.46
43.96
39.97
36.92
34.12
31.00
27.28
22.88
17.85
12.23
5.98
-1.05
-9.09
-18.43
-29.28
-41.57
-54.63
-67.15
-77.38
-83.60
-84.88
-81.33
-74.25
-65.52
-57.03
-50.10
-45.28
-42.52
-41.43
-41.50
-42.28
-43.31
-44.22
-44.67
-44.52
-43.79
-42.61
-41.14
-39.50
-37.75
-35.87
-33.73
-31.10
-27.74
-23.53
-18.62
-13.49
-8.88
-5.48
-3.65
-3.26
-3.78
-4.52
-5.02
-5.22
-5.49
-6.38
-8.33
-11.49
-15.58
-20.10
-24.47
-28.27
-31.37
-33.97
-36.49
-39.52
-43.56
-48.92
-55.51
-62.66
-69.23
-73.71
-74.66
-71.11
-62.91
-50.84
-36.33
-21.08
-6.61
6.03
16.36
24.31
30.13
34.18
36.87
38.62
39.80
40.71
41.57
42.55
43.85
45.59
47.83
50.55
53.58
56.75
59.92
63.04
66.14
69.21
72.13
74.69
76.64
77.92
78.57
78.82
78.90
78.86
78.48
77.32
74.88
70.73
64.78
57.22
48.57
39.46
30.48
21.97
14.04
6.57
-0.67
-7.95
-15.57
-23.84
-32.95
-42.83
-52.93
-62.15
-69.01
-72.06
-70.39
-64.04
-54.00
-41.97
-29.86
-19.25
-11.09
-5.59
-2.50
-1.18
-0.98
-1.28
-1.67
-1.92
-1.97
-1.91
-1.89
-2.02
-2.39
-2.96
-3.65
-4.25
-4.59
-4.50
-3.81
-2.46
-0.54
1.71
3.90
5.54
6.27
5.91
4.63
2.79
0.86
-0.84
-2.26
-3.70
-5.61
-8.40
-12.22
-16.80
-21.50
-25.57
-28.38
-29.75
-29.98
-29.81
-30.12
-31.56
-34.36
-38.29
-42.67
-46.51
-48.66
-47.99
-43.59
-35.06
-22.75
-7.74
8.32
23.68
36.95
47.38
54.97
60.21
63.75
66.10
67.50
67.99
67.52
66.05
63.66
60.61
57.17
53.56
49.89
46.13
42.25
38.24
34.26
30.56
27.36
24.73
22.52
20.37
17.87
14.75
10.99
6.89
2.86
-0.67
-3.51
-5.84
-8.02
-10.54
-13.73
-17.71
-22.25
-26.97
-31.46
-35.47
-38.97
-42.12
-45.28
-48.88
-53.33
-58.92
-65.67
-73.14
-80.36
-85.99
-88.58
-87.09
-81.22
-71.54
-59.36
-46.25
-33.66
-22.51
-13.19
-5.67
0.25
4.84
8.32
10.96
13.10
15.17
17.69
21.04
25.44
30.80
36.77
42.82
48.43
53.25
57.18
60.33
62.90
64.96
66.45
67.08
66.55
64.66
61.45
57.23
52.47
47.65
43.10
38.93
34.98
31.00
26.73
22.05
16.98
11.62
6.08
0.39
-5.42
-11.35
-17.29
-23.09
-28.65
-34.06
-39.60
-45.74
-52.87
-60.98
-69.46
-77.09
-82.35
-83.89
-81.04
-73.95
-63.60
-51.42
-38.85
-27.06
-16.77
-8.23
-1.43
3.86
8.01
11.38
14.31
17.00
19.49
21.71
23.55
24.96
25.97
26.68
27.16
27.49
27.69
27.81
27.86
27.86
27.74
27.42
26.77
25.68
24.11
22.09
19.76
17.23
14.63
12.01
9.29
6.36
3.08
-0.61
-4.68
-8.92
-13.12
-17.06
-20.64
-23.90
-27.06
-30.52
-34.70
-39.99
-46.55
-54.08
-61.78
-68.34
-72.30
-72.42
-68.17
-59.84
-48.51
-35.63
-22.58
-10.44
0.23
9.22
16.60
22.49
27.05
30.47
32.97
34.77
36.07
36.95
37.41
37.40
36.88
35.93
34.70
33.40
32.29
31.52
31.19
31.30
31.74
32.28
32.62
32.48
31.66
30.14
28.12
25.92
23.82
21.97
20.33
18.70
16.83
14.45
11.43
7.69
3.26
-1.71
-7.02
-12.39
-17.58
-22.53
-27.37
-32.47
-38.31
-45.30
-53.60
-62.95
-72.66
-81.59
-88.37
-91.68
-90.55
-84.72
-74.72
-61.79
-47.55
-33.60
-21.18
-10.89
-2.76
3.65
8.96
13.77
18.48
23.16
27.68
31.74
35.12
37.70
39.56
40.91
41.98
42.92
43.74
44.37
44.73
44.80
44.63
44.34
43.95
43.35
42.33
40.66
38.25
35.15
31.57
27.77
23.96
20.27
16.68
13.09
9.21
4.67
-0.96
-7.93
-16.15
-25.13
-34.09
-42.26
-49.22
-55.01
-60.11
-65.22
-71.01
-77.91
-86.00
-94.90
-103.69
-111.02
-115.28
-115.02
-109.49
-98.85
-84.33
-67.76
-51.01
-35.42
-21.45
-8.80
3.18
14.96
26.64
37.86
48.10
56.95
64.27
70.21
75.06
79.11
82.55
85.56
88.28
90.83
93.20
95.25
96.58
96.75
95.31
91.95
86.54
79.19
70.25
60.29
49.98
39.98
30.71
22.27
14.47
6.97
-0.49
-8.02
-15.49
-22.72
-29.48
-35.64
-41.09
-45.76
-49.62
-52.74
-55.37
-58.03
-61.32
-65.79
-71.67
-78.67
-85.83
-91.60
-94.23
-92.24
-84.89
-72.52
-56.54
-38.92
-21.60
-5.92
7.61
19.21
29.45
38.81
47.43
55.10
61.37
65.79
68.06
68.23
66.64
63.92
60.74
57.63
54.74
51.83
48.41
44.00
38.38
31.59
23.92
15.66
7.05
-1.76
-10.62
-19.32
-27.58
-35.12
-41.79
-47.55
-52.45
-56.50
-59.50
-61.03
-60.50
-57.43
-51.66
-43.53
-33.84
-23.60
-13.75
-4.99
2.26
7.87
11.90
14.76
17.34
20.97
27.04
36.58
49.68
65.45
82.22
98.13
111.73
122.17
129.25
133.14
134.12
132.50
128.48
122.32
114.36
105.06
95.10
85.22
76.15
68.40
62.08
56.92
52.38
48.00
43.53
38.92
34.17
29.20
23.80
17.85
11.51
5.25
-0.31
-4.79
-8.26
-11.22
-14.36
-18.17
-22.66
-27.43
-31.94
-35.73
-38.70
-40.99
-42.88
-44.61
-46.49
-48.88
-52.32
-57.40
-64.45
-73.26
-82.77
-91.26
-96.75
-97.67
-93.47
-84.75
-73.04
-60.24
-47.94
-36.99
-27.48
-19.08
-11.41
-4.42
1.55
6.02
8.61
9.29
8.45
6.76
4.91
3.47
2.74
2.82
3.68
5.28
7.59
10.49
13.77
17.00
19.69
21.40
21.85
21.08
19.37
17.12
14.68
12.20
9.59
6.61
3.05
-1.13
-5.71
-10.29
-14.42
-17.89
-20.76
-23.48
-26.66
-30.95
-36.73
-44.00
-52.31
-60.72
-67.97
-72.76
-74.02
-71.23
-64.59
-54.98
-43.76
-32.37
-22.06
-13.66
-7.53
-3.65
-1.80
-1.73
-3.21
-5.98
-9.78
-14.21
-18.77
-22.92
-26.21
-28.42
-29.57
-29.92
-29.77
-29.44
-29.06
-28.65
-28.15
-27.49
-26.60
-25.52
-24.33
-23.20
-22.35
-21.94
-21.98
-22.22
-22.24
-21.61
-20.08
-17.79
-15.22
-13.13
-12.35
-13.50
-16.99
-22.75
-30.26
-38.47
-45.94
-51.06
-52.52
-49.62
-42.60
-32.56
-21.13
-10.00
-0.47
6.76
11.59
14.31
15.40
15.30
14.43
13.15
11.83
10.85
10.52
11.03
12.49
14.84
18.04
21.99
26.59
31.67
36.96
42.17
46.93
50.97
54.16
56.45
57.95
58.87
59.37
59.60
59.58
59.18
58.16
56.25
53.19
48.75
42.76
35.09
25.76
14.97
3.15
-9.13
-21.24
-32.57
-42.54
-50.52
-55.86
-58.01
-56.72
-52.31
-45.65
-37.97
-30.46
-23.87
-18.35
-13.50
-8.72
-3.55
2.12
7.92
13.22
17.31
19.72
20.35
19.53
17.81
15.78
13.85
12.22
10.86
9.69
8.62
7.51
6.20
4.45
2.05
-1.12
-4.95
-9.18
-13.44
-17.38
-20.78
-23.61
-26.00
-28.20
-30.39
-32.62
-34.87
-37.02
-38.97
-40.78
-42.50
-44.03
-45.01
-44.68
-42.08
-36.37
-27.11
-14.52
0.50
16.71
32.76
47.53
60.21
70.37
77.94
83.07
86.14
87.59
87.86
87.32
86.18
84.63
82.77
80.72
78.59
76.37
73.90
70.88
66.97
61.99
56.04
49.49
42.76
36.21
29.89
23.64
17.26
10.65
3.94
-2.51
-8.31
-13.21
-17.31
-20.96
-24.73
-29.19
-34.72
-41.34
-48.66
-55.85
-61.80
-65.36
-65.70
-62.53
-56.27
-47.92
-38.79
-30.07
-22.60
-16.74
-12.39
-9.23
-6.90
-5.08
-3.54
-2.07
-0.51
1.33
3.55
6.19
9.21
12.54
16.14
20.09
24.51
29.50
34.99
40.59
45.64
49.49
51.67
52.19
51.46
50.10
48.58
47.01
45.03
42.05
37.50
31.06
22.80
13.15
2.88
-6.98
-15.29
-20.99
-23.45
-22.72
-19.61
-15.43
-11.55
-8.91
-7.86
-8.11
-9.07
-10.21
-11.31
-12.43
-13.76
-15.40
-17.26
-18.97
-20.08
-20.25
-19.38
-17.65
-15.51
-13.48
-11.95
-11.11
-10.97
-11.39
-12.27
-13.61
-15.47
-17.96
-21.07
-24.62
-28.25
-31.51
-34.04
-35.66
-36.54
-37.14
-38.07
-39.90
-42.96
-47.23
-52.32
-57.46
-61.66
-63.80
-62.95
-58.50
-50.44
-39.39
-26.52
-13.29
-1.04
9.23
17.19
23.03
27.34
30.80
33.92
36.90
39.58
41.63
42.67
42.47
40.98
38.29
34.60
30.21
25.53
21.10
17.46
14.92
13.42
12.48
11.37
9.44
6.40
2.38
-2.17
-6.70
-10.86
-14.55
-17.93
-21.30
-24.94
-29.06
-33.72
-38.92
-44.58
-50.51
-56.35
-61.50
-65.17
-66.53
-64.92
-60.15
-52.49
-42.71
-31.78
-20.66
-10.09
-0.49
7.99
15.39
21.82
27.36
32.03
35.78
38.51
40.19
40.92
40.94
40.60
40.29
40.31
40.78
41.59
42.51
43.21
43.44
43.02
41.93
40.20
37.86
34.92
31.29
26.90
21.72
15.85
9.51
2.99
-3.37
-9.35
-14.84
-19.88
-24.49
-28.77
-32.78
-36.68
-40.58
-44.60
-48.48
-51.53
-52.66
-50.73
-45.01
-35.61
-23.57
-10.57
1.71
12.06
20.14
26.30
31.25
35.67
39.89
43.94
47.69
51.01
53.97
56.64
59.14
61.42
63.35
64.79
65.70
66.25
66.73
67.41
68.34
69.27
69.74
69.28
67.62
64.79
61.17
57.28
53.62
50.45
47.75
45.19
42.35
38.78
34.29
29.00
23.30
17.78
12.94
9.04
5.88
2.84
-0.97
-6.29
-13.46
-22.12
-31.15
-39.06
-44.33
-46.00
-43.95
-38.96
-32.44
-25.93
-20.64
-17.20
-15.64
-15.57
-16.40
-17.53
-18.52
-19.06
-19.02
-18.47
-17.59
-16.66
-15.93
-15.60
-15.66
-15.97
-16.27
-16.25
-15.74
-14.68
-13.27
-11.85
-10.84
-10.59
-11.23
-12.67
-14.62
-16.72
-18.66
-20.28
-21.57
-22.66
-23.78
-25.11
-26.77
-28.73
-30.81
-32.69
-34.09
-34.87
-35.08
-34.99
-35.05
-35.76
-37.54
-40.61
-44.89
-49.87
-54.72
-58.36
-59.81
-58.44
-54.27
-47.95
-40.64
-33.56
-27.66
-23.39
-20.64
-18.99
-17.88
-16.93
-15.85
-14.43
-12.36
-9.25
-4.73
1.24
8.28
15.70
22.76
29.01
34.43
39.28
43.84
48.10
51.79
54.44
55.66
55.39
53.79
51.23
48.13
44.90
41.91
39.47
37.76
36.73
36.08
35.41
34.33
32.66
30.46
27.98
25.54
23.34
21.40
19.57
17.52
14.80
10.94
5.61
-1.16
-8.89
-16.54
-22.78
-26.31
-26.36
-22.92
-16.82
-9.34
-1.92
4.33
8.77
11.28
12.05
11.44
9.84
7.57
4.90
2.06
-0.80
-3.55
-6.10
-8.36
-10.22
-11.54
-12.15
-11.92
-10.88
-9.21
-7.23
-5.32
-3.81
-2.84
-2.37
-2.27
-2.45
-2.90
-3.81
-5.31
-7.46
-10.08
-12.90
-15.60
-18.05
-20.27
-22.48
-24.97
-27.96
-31.62
-36.01
-41.04
-46.37
-51.41
-55.28
-57.05
-56.03
-52.05
-45.65
-37.85
-29.86
-22.62
-16.64
-11.98
-8.42
-5.76
-3.86
-2.65
-1.99
-1.60
-1.12
-0.24
1.18
3.10
5.34
7.70
10.06
12.32
14.43
16.35
17.95
19.10
19.63
19.40
18.27
16.11
12.88
8.65
3.61
-1.85
-7.32
-12.44
-17.06
-21.38
-25.77
-30.74
-36.55
-43.03
-49.49
-54.86
-57.97
-57.97
-54.64
-48.41
-40.20
-31.10
-22.10
-13.88
-6.77
-0.87
3.89
7.65
10.62
12.98
14.94
16.61
18.04
19.22
20.11
20.81
21.48
22.32
23.42
24.76
26.15
27.38
28.27
28.75
28.78
28.36
27.43
25.91
23.72
20.82
17.29
13.25
8.87
4.32
-0.27
-4.80
-9.21
-13.57
-18.09
-23.13
-29.14
-36.38
-44.68
-53.30
-60.93
-66.06
-67.38
-64.29
-57.03
-46.59
-34.36
-21.71
-9.77
0.77
9.56
16.52
21.82
25.80
28.89
31.46
33.70
35.62
37.02
37.66
37.46
36.48
35.01
33.41
31.99
30.93
30.24
29.82
29.50
29.05
28.21
26.74
24.43
21.16
17.00
12.15
6.94
1.66
-3.50
-8.46
-13.27
-18.12
-23.26
-29.07
-35.91
-43.95
-52.92
-62.03
-69.96
-75.24
-76.67
-73.72
-66.60
-56.22
-43.83
-30.68
-17.83
-5.96
4.64
13.91
22.04
29.27
35.80
41.68
46.83
51.05
54.14
56.02
56.78
56.65
55.96
55.05
54.16
53.35
52.53
51.47
49.90
47.65
44.73
41.21
37.28
33.08
28.66
24.05
19.25
14.28
9.22
4.20
-0.71
-5.38
-9.84
-14.11
-18.35
-22.83
-27.87
-33.83
-40.96
-49.18
-58.00
-66.42
-73.13
-76.78
-76.34
-71.41
-62.30
-49.95
-35.72
-21.06
-7.25
4.81
14.64
22.31
28.15
32.71
36.50
39.84
42.78
45.17
46.80
47.52
47.29
46.24
44.58
42.61
40.59
38.77
37.29
36.18
35.30
34.42
33.29
31.69
29.52
26.82
23.80
20.74
17.91
15.49
13.41
11.49
9.40
6.89
3.87
0.51
-2.96
-6.31
-9.54
-12.94
-17.01
-22.30
-29.08
-37.09
-45.40
-52.57
-56.99
-57.38
-53.21
-44.83
-33.41
-20.50
-7.73
3.55
12.42
18.48
21.83
23.03
22.94
22.45
22.25
22.56
23.20
23.65
23.44
22.32
20.40
18.05
15.77
13.93
12.71
12.04
11.75
11.64
11.53
11.26
10.71
9.74
8.18
5.87
2.78
-0.99
-5.16
-9.32
-13.08
-16.21
-18.67
-20.63
-22.45
-24.54
-27.26
-30.88
-35.48
-40.86
-46.44
-51.28
-54.20
-54.07
-50.15
-42.35
-31.39
-18.48
-5.12
7.45
18.42
27.49
34.73
40.41
44.76
47.94
50.05
51.15
51.34
50.80
49.71
48.29
46.77
45.37
44.28
43.69
43.60
43.87
44.14
43.89
42.71
40.32
36.78
32.43
27.77
23.22
19.02
15.15
11.36
7.27
2.59
-2.76
-8.63
-14.64
-20.39
-25.62
-30.35
-34.98
-40.12
-46.39
-54.09
-62.94
-71.98
-79.73
-84.56
-85.17
-81.01
-72.48
-60.80
-47.61
-34.43
-22.33
-11.77
-2.71
5.16
12.16
18.55
24.40
29.70
34.37
38.32
41.44
43.66
44.91
45.20
44.63
43.35
41.59
39.60
37.59
35.69
33.91
32.18
30.41
28.48
26.31
23.92
21.39
18.83
16.34
13.91
11.37
8.40
4.68
0.10
-5.22
-10.80
-16.08
-20.57
-24.18
-27.18
-30.19
-33.91
-38.92
-45.38
-52.88
-60.49
-66.85
-70.61
-70.71
-66.80
-59.32
-49.40
-38.48
-27.91
-18.57
-10.76
-4.34
1.04
5.73
9.94
13.79
17.33
20.71
24.04
27.43
30.85
34.16
37.15
39.65
41.65
43.39
45.33
47.91
51.45
55.82
60.52
64.76
67.77
69.06
68.60
66.78
64.20
61.41
58.68
55.95
52.97
49.42
45.17
40.26
34.83
29.05
22.95
16.42
9.29
1.38
-7.49
-17.48
-28.73
-41.25
-54.76
-68.52
-81.37
-91.91
-98.88
-101.53
-99.89
-94.70
-87.23
-78.83
-70.70
-63.64
-58.00
-53.76
-50.68
-48.37
-46.43
-44.54
-42.50
-40.31
-38.11
-36.12
-34.50
-33.23
-32.03
-30.43
-27.88
-24.01
-18.78
-12.57
-6.08
0.04
5.36
9.98
14.47
19.62
26.13
34.30
43.91
54.22
64.31
73.25
80.34
85.18
87.67
87.98
86.39
83.22
78.69
72.84
65.47
56.26
45.04
32.02
18.05
4.47
-7.18
-15.73
-20.69
-22.39
-21.71
-19.71
-17.25
-14.84
-12.70
-10.92
-9.51
-8.45
-7.59
-6.67
-5.41
-3.71
-1.69
0.33
2.01
3.18
3.88
4.35
4.79
5.34
5.95
6.52
6.88
6.86
6.24
4.82
2.39
-1.12
-5.50
-10.28
-14.86
-18.67
-21.49
-23.43
-24.91
-26.38
-28.10
-30.07
-32.12
-34.03
-35.78
-37.56
-39.67
-42.52
-46.37
-51.29
-57.13
-63.39
-69.30
-73.78
-75.69
-74.02
-68.29
-58.77
-46.41
-32.61
-18.78
-5.98
5.26
14.89
23.11
30.28
36.77
42.93
49.06
55.33
61.63
67.52
72.29
75.13
75.39
72.90
68.03
61.62
54.81
48.64
43.73
40.11
37.23
34.34
30.79
26.42
21.55
16.69
12.28
8.38
4.61
0.41
-4.59
-10.48
-16.94
-23.43
-29.42
-34.53
-38.61
-41.72
-44.17
-46.43
-49.12
-52.80
-57.66
-63.34
-68.83
-72.67
-73.43
-70.21
-62.97
-52.49
-40.17
-27.53
-15.85
-5.87
2.18
8.48
13.43
17.41
20.71
23.47
25.73
27.43
28.56
29.16
29.33
29.20
28.92
28.57
28.20
27.81
27.32
26.64
25.59
23.98
21.74
18.87
15.50
11.85
8.13
4.44
0.73
-3.12
-7.13
-11.25
-15.27
-18.93
-22.09
-24.82
-27.40
-30.22
-33.71
-38.17
-43.58
-49.56
-55.26
-59.55
-61.23
-59.43
-53.89
-45.04
-33.95
-21.98
-10.43
-0.22
8.18
14.76
19.75
23.49
26.24
28.20
29.51
30.28
30.61
30.56
30.14
29.35
28.20
26.83
25.54
24.71
24.58
25.15
26.13
27.01
27.32
26.82
25.60
23.89
21.94
19.86
17.53
14.71
11.18
6.84
1.77
-3.82
-9.60
-15.25
-20.53
-25.32
-29.73
-34.12
-39.00
-44.87
-51.91
-59.77
-67.47
-73.58
-76.59
-75.44
-69.83
-60.28
-48.00
-34.47
-21.01
-8.60
2.28
11.49
19.15
25.49
30.77
35.20
38.95
42.12
44.75
46.79
48.21
48.97
49.06
48.58
47.69
46.65
45.74
45.12
44.78
44.54
44.08
43.05
41.25
38.64
35.33
31.55
27.54
23.50
19.50
15.54
11.49
7.19
2.46
-2.76
-8.40
-14.23
-19.97
-25.45
-30.63
-35.79
-41.37
-47.80
-55.31
-63.64
-71.97
-78.96
-83.12
-83.22
-78.74
-69.98
-58.07
-44.56
-30.93
-18.32
-7.32
1.98
9.70
16.13
21.55
26.22
30.30
33.83
36.67
38.61
39.46
39.24
38.23
36.93
35.85
35.30
35.32
35.70
36.12
36.27
35.99
35.24
34.10
32.73
31.33
30.08
29.07
28.20
27.28
26.04
24.33
22.12
19.55
16.76
13.80
10.56
6.68
1.71
-4.82
-13.19
-23.30
-34.44
-45.35
-54.42
-60.14
-61.58
-58.74
-52.50
-44.37
-35.92
-28.35
-22.30
-17.82
-14.55
-12.03
-9.81
-7.64
-5.39
-3.04
-0.59
1.93
4.56
7.33
10.24
13.24
16.31
19.39
22.47
25.55
28.56
31.31
33.57
35.03
35.56
35.19
34.16
32.74
31.13
29.35
27.18
24.37
20.71
16.22
11.12
5.78
0.57
-4.31
-8.85
-13.25
-17.87
-23.15
-29.49
-37.16
-46.01
-55.39
-64.09
-70.59
-73.44
-71.69
-65.28
-55.03
-42.43
-29.17
-16.72
-5.99
2.76
9.79
15.59
20.62
25.13
29.15
32.55
35.22
37.13
38.35
38.95
38.92
38.18
36.69
34.54
32.08
29.76
28.07
27.22
27.12
27.30
27.16
26.18
24.14
21.18
17.78
14.43
11.48
8.93
6.51
3.82
0.56
-3.34
-7.71
-12.19
-16.46
-20.32
-23.77
-26.99
-30.35
-34.28
-39.17
-45.17
-52.01
-58.84
-64.42
-67.27
-66.23
-60.70
-50.95
-37.99
-23.36
-8.67
4.68
15.78
24.30
30.45
34.83
38.11
40.95
43.67
46.33
48.75
50.71
52.04
52.71
52.75
52.28
51.45
50.47
49.56
48.95
48.71
48.69
48.52
47.73
45.94
43.00
39.11
34.70
30.29
26.26
22.72
19.49
16.20
12.51
8.20
3.36
-1.78
-6.84
-11.53
-15.67
-19.34
-22.80
-26.46
-30.79
-36.08
-42.25
-48.65
-54.13
-57.26
-56.77
-52.07
-43.40
-31.85
-18.94
-6.25
5.01
14.23
21.24
26.19
29.30
30.79
30.80
29.52
27.12
23.87
20.01
15.72
11.14
6.36
1.59
-2.83
-6.39
-8.63
-9.29
-8.45
-6.56
-4.28
-2.21
-0.78
-0.10
-0.10
-0.59
-1.39
-2.39
-3.57
-5.00
-6.78
-9.04
-11.93
-15.52
-19.81
-24.61
-29.55
-34.15
-38.00
-40.93
-43.09
-44.96
-47.18
-50.27
-54.29
-58.78
-62.75
-64.97
-64.33
-60.19
-52.64
-42.50
-31.09
-19.89
-10.11
-2.41
3.12
6.74
8.84
9.67
9.29
7.75
5.18
1.97
-1.31
-4.03
-5.67
-5.94
-4.71
-1.96
2.35
8.23
15.51
23.73
32.09
39.60
45.36
48.82
50.01
49.56
48.38
47.42
47.29
48.08
49.35
50.39
50.43
48.95
45.82
41.24
35.64
29.52
23.20
16.81
10.28
3.36
-4.16
-12.34
-20.87
-28.96
-35.47
-39.22
-39.27
-35.31
-27.85
-18.01
-7.33
2.74
11.11
17.30
21.32
23.56
24.47
24.49
23.84
22.67
21.04
19.05
16.88
14.73
12.75
11.01
9.46
8.00
6.59
5.19
3.80
2.35
0.68
-1.41
-4.12
-7.52
-11.49
-15.81
-20.21
-24.51
-28.62
-32.50
-36.12
-39.33
-41.99
-43.94
-45.18
-45.84
-46.25
-46.83
-48.02
-50.22
-53.56
-57.78
-62.14
-65.47
-66.44
-63.92
-57.43
-47.30
-34.65
-21.04
-7.97
3.46
12.79
20.07
25.67
29.87
32.81
34.40
34.54
33.27
30.92
28.06
25.32
23.19
21.84
21.07
20.49
19.68
18.36
16.52
14.27
11.81
9.23
6.51
3.59
0.37
-3.14
-6.83
-10.54
-14.08
-17.37
-20.39
-23.25
-26.15
-29.35
-33.17
-37.92
-43.77
-50.62
-57.99
-64.96
-70.23
-72.50
-70.80
-64.84
-55.11
-42.78
-29.34
-16.20
-4.37
5.75
14.17
21.24
27.36
32.82
37.76
42.17
45.99
49.15
51.61
53.30
54.14
54.06
52.98
50.99
48.32
45.38
42.57
40.20
38.29
36.65
34.91
32.70
29.77
26.05
21.53
16.17
9.87
2.36
-6.58
-17.00
-28.65
-40.96
-53.29
-65.11
-76.12
-86.19
-95.13
-102.38
-107.04
-108.17
-105.06
-97.67
-86.63
-72.90
-57.42
-40.90
-23.76
-6.39
10.73
26.90
41.40
53.67
63.55
71.25
77.24
82.11
86.27
89.87
92.71
94.37
94.45
92.74
89.44
85.07
80.24
75.39
70.61
65.68
60.21
53.92
46.77
38.99
30.90
22.86
15.08
7.61
0.38
-6.77
-14.02
-21.60
-29.72
-38.53
-47.97
-57.68
-66.84
-74.31
-78.81
-79.33
-75.43
-67.44
-56.33
-43.43
-29.98
-16.90
-4.65
6.64
17.00
26.45
34.94
42.38
48.74
53.99
58.18
61.32
63.35
64.20
63.81
62.24
59.63
56.17
52.07
47.48
42.46
37.09
31.42
25.58
19.75
14.08
8.68
3.57
-1.30
-6.00
-10.51
-14.76
-18.61
-21.96
-24.79
-27.22
-29.54
-32.10
-35.33
-39.60
-45.07
-51.50
-58.09
-63.56
-66.44
-65.52
-60.35
-51.39
-39.89
-27.40
-15.28
-4.36
5.11
13.24
20.17
25.97
30.53
33.71
35.49
36.07
35.71
34.79
33.55
32.16
30.66
29.05
27.37
25.70
24.20
23.00
22.11
21.38
20.48
19.07
16.92
14.02
10.62
7.08
3.78
0.96
-1.38
-3.42
-5.39
-7.47
-9.78
-12.30
-14.98
-17.76
-20.63
-23.63
-26.87
-30.53
-34.80
-39.73
-45.10
-50.29
-54.34
-56.14
-54.77
-49.84
-41.68
-31.26
-19.93
-9.08
0.19
7.24
11.88
14.28
14.91
14.43
13.60
13.12
13.49
14.86
17.05
19.67
22.28
24.60
26.63
28.57
30.71
33.29
36.33
39.59
42.66
45.04
46.38
46.48
45.49
43.66
41.35
38.73
35.87
32.65
28.94
24.69
19.97
14.93
9.75
4.59
-0.44
-5.25
-9.79
-14.06
-18.12
-22.18
-26.56
-31.50
-36.98
-42.51
-47.15
-49.74
-49.34
-45.59
-38.94
-30.48
-21.62
-13.60
-7.17
-2.54
0.54
2.48
3.71
4.56
5.29
6.03
6.75
7.27
7.26
6.44
4.79
2.59
0.50
-0.71
-0.42
1.64
5.23
9.78
14.60
19.09
22.94
26.10
28.74
31.15
33.51
35.89
38.11
39.81
40.56
39.99
37.96
34.59
30.19
25.21
19.99
14.67
9.09
2.88
-4.46
-13.37
-24.00
-36.12
-48.97
-61.43
-72.27
-80.52
-85.72
-88.01
-87.99
-86.42
-83.94
-80.96
-77.69
-74.23
-70.59
-66.77
-62.64
-58.01
-52.61
-46.27
-38.89
-30.47
-20.99
-10.45
1.12
13.49
26.19
38.55
49.85
59.51
67.19
72.84
76.64
78.95
80.26
81.05
81.78
82.68
83.74
84.63
84.79
83.69
81.05
76.99
71.93
66.49
61.24
56.48
52.10
47.62
42.43
36.11
28.69
20.71
13.19
7.27
3.87
3.21
4.75
7.36
9.70
10.55
8.90
4.38
-2.79
-12.03
-22.78
-34.76
-47.93
-62.22
-77.38
-93.32
-109.42
-124.62
-137.87
-148.69
-157.41
-164.91
-172.10
-179.57
-188.09
-197.41
-206.32
-213.22
-217.00
-217.63
-216.04
-213.46
-210.92
-209.48
-208.51
-205.75
-198.08
-182.87
-158.91
-126.50
-87.12
-36.68
22.76
83.53
135.56
172.45
194.76
208.19
219.21
231.50
244.65
254.83
258.49
254.44
244.36
231.25
217.73
205.15
195.45
187.30
179.07
170.09
160.49
150.76
141.15
131.43
121.19
109.98
97.48
83.77
69.75
56.88
46.65
39.73
35.45
32.92
30.67
27.19
21.64
13.94
4.63
-5.32
-14.86
-23.22
-29.99
-35.38
-40.06
-44.62
-49.37
-54.15
-58.68
-62.79
-66.89
-71.78
-78.37
-86.87
-96.26
-104.48
-109.06
-108.11
-100.95
-88.43
-72.56
-55.81
-40.39
-27.59
-17.83
-10.80
-5.95
-2.71
-0.64
0.66
1.60
2.56
3.82
5.42
7.28
9.38
12.00
15.66
20.86
27.63
35.21
42.09
46.42
46.86
43.09
36.05
27.58
19.75
14.25
11.94
12.85
16.21
20.81
25.22
28.08
28.36
25.60
19.92
11.96
2.56
-7.47
-17.53
-27.23
-36.20
-43.99
-50.10
-54.05
-55.71
-55.21
-52.96
-49.29
-44.39
-38.21
-30.70
-21.97
-12.47
-3.04
5.25
11.25
13.99
12.99
8.54
1.84
-5.15
-10.28
-11.99
-10.01
-5.58
-1.02
1.18
-0.71
-7.04
-16.77
-27.99
-38.59
-46.84
-51.67
-52.83
-50.78
-46.40
-40.82
-35.07
-29.91
-25.87
-23.23
-22.16
-22.72
-24.76
-27.91
-31.63
-35.44
-39.22
-43.23
-47.89
-53.46
-59.64
-65.55
-69.86
-71.24
-68.75
-62.14
-51.89
-39.20
-25.68
-12.96
-2.39
5.35
10.35
13.35
15.41
17.47
20.00
22.96
25.89
28.33
30.07
31.21
32.08
32.96
33.92
34.77
35.19
34.91
33.92
32.41
30.77
29.30
28.11
27.13
26.11
24.77
22.99
20.85
18.53
16.29
14.21
12.27
10.33
8.21
5.81
3.05
-0.23
-4.32
-9.64
-16.42
-24.47
-32.93
-40.31
-44.91
-45.37
-41.11
-32.60
-21.07
-8.07
5.03
17.35
28.45
38.03
45.73
50.93
53.02
51.74
47.41
41.07
34.25
28.63
25.61
25.91
29.31
34.73
40.45
44.72
46.41
45.41
42.56
39.09
35.85
32.79
29.06
23.71
16.53
8.48
1.32
-3.14
-4.00
-1.47
3.28
8.86
14.02
17.78
19.14
17.03
10.55
-0.34
-14.23
-28.30
-38.88
-42.81
-38.44
-26.20
-8.33
12.06
31.84
48.46
60.19
66.00
65.51
59.03
47.66
33.34
18.56
5.90
-2.59
-5.91
-4.36
0.65
7.05
12.88
16.85
18.70
19.15
19.35
20.21
21.88
23.73
24.63
23.50
19.69
13.22
4.58
-5.30
-15.33
-24.40
-31.66
-36.85
-40.46
-43.66
-47.70
-53.20
-59.65
-65.47
-68.77
-68.30
-64.22
-57.95
-51.59
-46.74
-43.83
-42.08
-40.17
-37.05
-32.62
-27.72
-23.65
-21.43
-21.28
-22.51
-24.03
-24.80
-24.48
-23.50
-22.85
-23.52
-26.05
-30.23
-35.27
-40.18
-44.19
-47.10
-49.08
-50.34
-50.88
-50.37
-48.64
-46.10
-43.91
-43.54
-45.79
-50.07
-54.49
-56.87
-56.03
-52.55
-48.39
-45.51
-44.57
-44.40
-42.69
-37.43
-28.18
-16.41
-4.68
4.65
10.42
12.97
13.72
14.31
15.90
18.75
22.27
25.39
27.08
26.88
25.18
22.99
21.60
21.84
23.89
27.19
30.75
33.63
35.25
35.44
34.31
32.03
28.66
24.24
18.82
12.69
6.44
0.80
-3.54
-6.26
-7.55
-8.07
-8.78
-10.62
-14.19
-19.67
-26.79
-34.96
-43.36
-50.94
-56.52
-59.02
-57.74
-52.60
-44.18
-33.47
-21.60
-9.43
2.50
13.95
24.81
34.96
44.29
52.69
60.04
66.24
71.22
74.97
77.51
78.81
78.80
77.32
74.18
69.48
63.73
57.87
53.01
49.87
48.52
48.18
47.64
45.76
41.99
36.46
29.81
22.80
15.97
9.52
3.30
-3.08
-10.08
-18.24
-28.02
-39.66
-52.90
-66.89
-80.13
-90.92
-97.68
-99.59
-96.69
-89.88
-80.56
-70.16
-59.80
-50.12
-41.25
-32.96
-24.87
-16.63
-8.09
0.55
8.80
15.95
21.37
24.78
26.32
26.59
26.29
26.00
25.87
25.68
24.95
23.32
20.68
17.23
13.42
9.70
6.38
3.56
1.04
-1.66
-5.23
-10.28
-17.00
-24.89
-32.87
-39.39
-43.14
-43.49
-41.09
-37.87
-36.65
-40.22
-50.17
-65.91
-84.29
-100.25
-108.33
-104.47
-87.50
-59.48
-24.88
11.06
43.96
71.28
92.30
107.54
117.97
124.46
127.76
128.63
128.10
127.30
127.24
128.25
129.95
131.28
130.97
128.26
123.12
116.37
109.25
102.89
97.74
93.51
89.33
84.22
77.54
69.28
60.05
50.73
42.10
34.54
27.90
21.64
15.15
8.06
0.26
-8.01
-16.51
-24.98
-33.10
-40.39
-46.07
-49.25
-49.19
-45.68
-39.22
-30.84
-21.84
-13.30
-5.91
0.24
5.39
9.94
14.23
18.43
22.50
26.21
29.28
31.45
32.64
32.97
32.73
32.21
31.60
31.03
30.50
29.99
29.46
28.87
28.09
27.01
25.56
23.67
21.39
18.74
15.69
12.19
8.15
3.67
-0.98
-5.40
-9.27
-12.56
-15.61
-19.09
-23.78
-30.30
-38.84
-48.96
-59.48
-68.62
-74.27
-74.47
-68.05
-55.08
-37.06
-16.56
3.41
20.15
31.91
38.23
39.69
37.49
32.80
26.24
17.89
7.65
-4.08
-15.92
-25.67
-31.00
-30.58
-24.79
-15.65
-5.99
1.87
7.08
10.35
13.16
16.67
20.84
24.60
26.44
25.43
21.84
17.04
12.93
11.08
12.08
15.45
19.88
23.89
26.33
26.65
24.89
21.44
16.82
11.61
6.36
1.74
-1.58
-3.06
-2.45
0.05
3.85
8.02
11.68
14.16
15.26
15.22
14.58
13.95
13.78
14.17
14.94
15.74
16.25
16.27
15.77
14.77
13.24
11.19
8.71
6.07
3.64
1.72
0.36
-0.67
-1.77
-3.24
-5.19
-7.48
-9.91
-12.41
-15.06
-17.96
-21.09
-24.22
-27.04
-29.46
-31.91
-35.17
-40.08
-46.92
-55.12
-63.21
-69.38
-72.10
-70.71
-65.55
-57.69
-48.49
-39.07
-30.10
-21.79
-14.18
-7.30
-1.25
3.85
7.94
11.12
13.63
15.65
17.26
18.37
18.83
18.53
17.61
16.40
15.33
14.70
14.56
14.69
14.72
14.38
13.54
12.26
10.61
8.59
6.06
2.84
-1.15
-5.78
-10.72
-15.50
-19.80
-23.45
-26.63
-29.70
-33.16
-37.47
-42.90
-49.40
-56.59
-63.67
-69.54
-73.14
-73.69
-71.04
-65.71
-58.72
-51.18
-43.83
-36.79
-29.58
-21.50
-12.05
-1.28
10.02
20.55
28.82
33.53
33.96
30.20
23.25
14.89
7.41
3.07
3.60
9.64
20.59
34.79
50.00
64.06
75.32
82.81
86.08
85.09
79.97
71.15
59.46
46.20
32.94
21.03
11.32
3.95
-1.45
-5.51
-8.88
-12.20
-16.20
-21.87
-30.27
-42.22
-57.84
-76.07
-94.74
-110.98
-122.07
-126.33
-123.55
-114.89
-102.28
-87.71
-72.57
-57.65
-43.24
-29.59
-17.22
-6.91
0.52
4.54
5.10
2.72
-1.64
-6.75
-11.37
-14.28
-14.48
-11.37
-4.95
4.12
14.62
25.07
34.17
41.15
45.96
49.13
51.44
53.46
55.37
56.73
56.67
54.15
48.30
38.74
25.83
10.69
-5.05
-19.64
-31.75
-40.69
-46.52
-49.86
-51.69
-53.04
-54.84
-57.71
-61.71
-66.20
-70.00
-71.62
-69.86
-64.17
-54.91
-43.15
-30.34
-17.70
-6.14
4.02
12.77
20.25
26.58
31.77
35.77
38.54
40.11
40.67
40.55
40.10
39.59
39.09
38.49
37.63
36.38
34.84
33.24
31.90
31.06
30.78
30.87
30.93
30.51
29.20
26.79
23.29
18.95
14.16
9.25
4.47
-0.25
-5.19
-10.82
-17.57
-25.67
-34.98
-44.86
-54.29
-62.03
-66.94
-68.15
-65.34
-58.69
-48.82
-36.66
-23.22
-9.52
3.60
15.50
25.73
33.99
40.13
44.16
46.26
46.87
46.60
46.10
45.80
45.82
45.96
45.95
45.64
45.04
44.30
43.51
42.63
41.40
39.51
36.75
33.23
29.24
25.08
21.00
17.07
13.22
9.28
5.07
0.52
-4.13
-8.58
-12.56
-15.70
-17.33
-16.57
-12.55
-4.79
6.60
21.34
38.56
56.83
74.71
91.21
105.80
118.36
128.85
137.27
144.37
150.67
155.86
159.34
160.62
159.62
156.61
151.99
146.11
140.15
134.68
128.79
120.86
109.34
93.24
72.17
46.24
10.28
-35.11
-83.96
-128.41
-162.50
-184.41
-195.77
-199.74
-199.57
-197.68
-196.35
-195.07
-193.82
-192.87
-192.44
-192.40
-192.26
-191.32
-188.92
-184.03
-173.96
-159.05
-141.08
-122.19
-104.04
-87.42
-72.31
-58.20
-44.05
-29.10
-13.98
0.25
12.65
22.71
30.40
36.00
39.95
42.93
45.54
47.62
48.76
48.52
46.56
42.78
37.30
30.34
22.29
13.47
3.74
-7.16
-19.40
-32.88
-47.20
-61.47
-74.48
-84.76
-90.90
-91.99
-87.76
-78.83
-66.53
-52.72
-39.30
-27.77
-18.77
-11.96
-6.03
0.88
10.50
23.92
41.03
60.66
80.94
99.93
116.18
128.90
137.91
143.43
145.79
145.42
142.83
138.58
133.19
126.96
119.90
111.79
102.42
91.85
80.50
69.08
58.43
49.18
41.63
35.70
30.97
26.91
23.00
18.83
14.12
8.83
3.09
-2.79
-8.40
-13.35
-17.42
-20.62
-23.15
-25.35
-27.50
-29.76
-32.04
-34.15
-35.86
-37.09
-37.99
-38.91
-40.40
-42.88
-46.59
-51.24
-56.04
-59.76
-61.17
-59.29
-53.88
-45.49
-35.26
-24.56
-14.51
-5.74
1.66
7.95
13.45
18.34
22.62
26.22
29.04
31.06
32.31
32.86
32.75
32.07
30.93
29.52
28.11
26.90
26.02
25.41
24.85
24.08
22.78
20.77
18.01
14.61
10.84
6.99
3.33
-0.01
-3.09
-6.09
-9.25
-12.70
-16.43
-20.24
-23.84
-26.96
-29.52
-31.54
-33.23
-34.81
-36.52
-38.58
-41.19
-44.49
-48.46
-52.83
-57.06
-60.50
-62.48
-62.56
-60.64
-56.91
-51.79
-45.76
-39.30
-32.84
-26.75
-21.32
-16.67
-12.70
-9.01
-4.99
0.03
6.65
15.29
25.96
38.30
51.55
64.65
76.52
86.41
94.19
100.38
106.01
112.10
119.19
127.05
134.71
140.95
144.79
145.84
144.40
141.09
136.53
130.95
124.27
116.25
106.84
96.31
85.14
73.84
62.68
51.72
40.85
30.06
19.45
9.29
-0.17
-8.75
-16.39
-23.09
-28.81
-33.44
-36.79
-38.66
-38.87
-37.25
-33.74
-28.43
-21.68
-14.17
-6.86
-0.76
3.33
5.09
4.68
2.59
-0.62
-4.65
-9.53
-15.43
-22.48
-30.52
-39.11
-47.64
-55.59
-62.63
-68.74
-74.04
-78.72
-82.94
-86.82
-90.45
-93.91
-97.23
-100.46
-103.69
-107.07
-110.83
-115.14
-120.03
-125.32
-130.62
-135.52
-139.71
-143.11
-145.83
-148.04
-149.90
-151.39
-152.39
-152.68
-152.02
-150.17
-146.93
-142.20
-136.00
-128.58
-120.35
-111.72
-102.88
-93.58
-83.23
-71.06
-56.57
-39.71
-21.10
-1.78
17.03
34.33
49.52
62.48
73.41
82.64
90.41
96.82
101.86
105.48
107.72
108.72
108.64
107.64
105.77
103.12
99.78
96.01
92.15
88.48
85.08
81.77
78.18
73.99
69.05
63.47
57.62
51.89
46.53
41.61
37.01
32.49
27.81
22.89
17.73
12.46
7.23
2.20
-2.57
-7.11
-11.53
-16.00
-20.67
-25.58
-30.56
-35.23
-39.05
-41.46
-42.04
-40.74
-37.84
-33.92
-29.58
-25.36
-21.55
-18.23
-15.31
-12.68
-10.28
-8.13
-6.32
-4.92
-3.92
-3.35
-3.11
-3.05
-3.07
-3.16
-3.47
-4.24
-5.64
-7.72
-10.50
-13.70
-16.87
-19.64
-21.97
-24.19
-26.82
-30.24
-34.57
-39.98
-46.14
-52.45
-58.43
-63.98
-69.40
-75.14
-81.53
-88.72
-97.24
-106.99
-117.27
-127.07
-135.43
-141.55
-144.76
-144.45
-140.20
-132.64
-121.95
-107.80
-89.59
-66.95
-40.16
-10.44
20.23
54.19
89.16
120.41
143.31
156.16
160.12
157.60
150.86
142.11
132.90
123.73
115.44
108.78
104.06
100.88
98.53
96.19
93.63
91.00
87.97
84.51
80.79
77.12
73.74
70.74
