1675593142.00
64.000000
-0.00
-0.00
-0.00
-0.00
-0.00
-0.00
-0.00
-0.00
-0.00
-0.00
0.00
0.01
0.01
-0.00
-0.03
-0.05
-0.05
0.00
0.13
0.36
0.66
1.01
1.37
1.72
2.06
2.40
2.79
3.24
3.80
4.42
5.06
5.66
6.20
6.68
7.15
7.68
8.31
9.14
10.09
11.04
11.88
12.56
13.14
13.76
14.65
15.96
17.91
20.32
22.90
25.38
27.58
29.57
31.68
34.32
37.81
42.54
48.15
54.10
59.83
64.97
69.58
74.14
79.34
85.71
93.76
103.00
112.62
121.73
129.77
136.75
143.30
150.75
157.77
166.64
177.95
191.79
206.97
220.57
228.25
225.36
208.53
176.87
132.76
80.05
23.07
-34.94
-92.44
-149.16
-205.23
-260.37
-313.74
-363.87
-409.83
-450.91
-486.50
-515.74
-537.23
-549.22
-549.96
-538.37
-514.21
-478.67
-433.88
-382.45
-327.02
-269.84
-212.63
-156.66
-102.95
-52.37
-5.90
35.58
71.43
101.35
125.50
144.38
158.69
169.15
176.37
180.75
182.57
182.07
179.51
175.23
169.65
163.18
156.15
148.81
141.30
133.69
126.02
118.33
110.69
103.16
95.80
88.68
81.83
75.25
68.95
62.95
57.25
51.86
46.78
42.03
37.59
33.45
29.61
26.07
22.81
19.83
17.11
14.67
12.48
10.54
8.83
7.35
6.07
4.97
4.05
3.27
2.62
2.09
1.65
1.30
1.01
0.79
0.61
0.48
0.37
0.29
0.24
0.20
0.18
0.17
0.17
0.18
0.20
0.23
0.26
0.30
0.34
0.38
0.43
0.47
0.52
0.57
0.62
0.67
0.73
0.79
0.86
0.93
1.01
1.10
1.20
1.31
1.43
1.57
1.73
1.90
2.09
2.31
2.55
2.81
3.10
3.42
3.78
4.16
4.58
5.03
5.53
6.05
6.62
7.23
7.89
8.58
9.32
10.11
10.95
11.82
12.75
13.72
14.75
15.85
17.01
18.23
19.49
20.77
22.02
23.17
24.12
24.75
24.94
24.58
23.56
21.83
19.37
16.23
12.46
8.25
3.76
-0.79
-5.17
-9.19
-12.68
-15.49
-17.57
-18.87
-19.44
-19.35
-18.71
-17.63
-16.21
-14.55
-12.73
-10.82
-8.86
-6.88
-4.96
-3.11
-1.32
0.42
2.20
4.02
5.92
7.92
10.07
12.25
14.45
16.70
19.04
21.54
24.24
27.14
30.26
33.60
36.93
40.12
43.21
46.29
49.49
52.90
56.56
60.44
64.59
68.59
72.34
75.95
79.68
83.84
88.50
93.59
98.81
103.87
107.88
110.45
111.54
111.32
109.88
106.85
101.10
90.47
77.06
61.05
42.80
23.08
2.82
-17.07
-36.13
-54.38
-72.26
-90.25
-109.57
-131.13
-155.47
-182.50
-211.04
-238.51
-261.31
-275.71
-279.12
-271.66
-255.61
-234.63
-212.42
-191.52
-173.00
-156.89
-143.02
-131.50
-123.07
-118.00
-115.52
-113.70
-109.94
-101.81
-87.91
-68.31
-44.50
-18.96
5.76
27.69
45.74
59.69
69.92
76.94
81.19
83.01
82.71
80.90
78.43
76.31
75.36
75.83
77.39
79.19
80.26
79.86
77.72
74.07
69.37
64.06
58.27
51.86
44.51
36.06
26.67
17.00
7.95
0.42
-5.09
-8.72
-11.08
-12.95
-14.78
-16.54
-17.83
-18.27
-17.95
-17.60
-18.34
-21.22
-26.80
-35.01
-45.20
-56.43
-67.59
-77.26
-83.67
-84.80
-78.87
-65.07
-44.14
-18.43
8.61
33.50
53.64
67.89
76.43
80.18
80.16
77.10
71.53
64.04
55.56
47.28
40.40
35.64
32.98
31.75
31.04
30.13
28.74
27.01
25.22
23.51
21.70
19.43
16.39
12.51
8.06
3.52
-0.66
-4.19
-7.15
-9.90
-12.97
-16.79
-21.54
-27.04
-32.84
-38.38
-43.27
-47.43
-51.17
-55.05
-59.63
-65.18
-71.42
-77.45
-81.83
-82.88
-79.07
-69.48
-54.18
-34.41
-12.32
9.42
28.28
42.48
51.28
54.98
54.63
51.63
47.34
42.88
39.06
36.37
34.96
34.73
35.36
36.42
37.51
38.39
39.01
39.42
39.66
39.54
38.62
36.33
32.21
26.17
18.69
10.81
3.73
-1.59
-4.79
-6.24
-6.87
-7.76
-9.75
-13.14
-17.67
-22.72
-27.59
-31.78
-35.23
-38.35
-41.90
-46.66
-53.07
-60.77
-68.51
-74.25
-75.69
-71.03
-59.54
-41.98
-20.43
2.25
23.18
40.16
52.09
58.97
61.64
61.37
59.54
57.43
56.11
56.28
58.12
61.19
64.48
66.62
66.41
63.18
57.09
48.98
40.10
31.60
24.24
18.21
13.37
9.44
6.28
3.93
2.51
2.00
2.13
2.30
1.84
0.23
-2.63
-6.43
-10.65
-14.87
-18.98
-23.22
-28.00
-33.72
-40.60
-48.55
-57.07
-65.18
-71.41
-74.02
-71.36
-62.44
-47.46
-27.94
-6.42
14.27
31.73
44.57
52.49
56.06
56.26
54.22
50.97
47.43
44.43
42.60
42.33
43.60
46.04
48.98
51.73
53.70
54.55
54.16
52.50
49.57
45.39
40.03
33.65
26.56
19.13
11.70
4.49
-2.33
-8.74
-14.74
-20.30
-25.34
-29.79
-33.59
-36.79
-39.56
-42.18
-45.07
-48.73
-53.61
-59.96
-67.55
-75.51
-82.30
-86.00
-84.84
-77.76
-64.95
-47.78
-28.57
-9.85
6.33
18.75
27.21
32.16
34.41
34.74
33.81
32.09
29.97
27.81
25.94
24.67
24.24
24.83
26.50
29.07
32.16
35.18
37.52
38.76
38.86
38.07
36.70
34.90
32.48
28.97
23.96
17.33
9.40
0.77
-7.79
-15.76
-22.87
-29.17
-34.90
-40.42
-46.19
-52.63
-60.01
-68.22
-76.53
-83.51
-87.26
-85.96
-78.45
-64.75
-46.26
-25.41
-4.94
12.77
26.34
35.50
40.78
43.08
43.26
41.93
39.55
36.52
33.44
31.03
29.93
30.45
32.38
35.02
37.40
38.67
38.43
36.76
34.11
31.02
27.80
24.45
20.74
16.42
11.36
5.68
-0.33
-6.39
-12.37
-18.29
-24.30
-30.55
-37.07
-43.68
-50.09
-56.11
-61.79
-67.57
-73.98
-81.18
-88.54
-94.45
-96.79
-93.72
-84.52
-69.97
-52.11
-33.48
-16.18
-1.40
10.60
20.09
27.60
33.86
39.98
47.46
57.76
71.60
88.32
105.74
120.77
130.42
132.82
127.70
116.20
100.19
81.67
62.30
43.30
25.56
9.76
-3.56
-14.05
-21.58
-26.29
-28.61
-29.33
-29.51
-30.31
-32.68
-37.15
-43.85
-52.56
-63.01
-74.98
-88.24
-102.16
-115.43
-125.87
-130.59
-126.50
-111.17
-83.71
-45.40
0.22
47.91
91.88
127.08
150.23
160.16
157.65
144.81
124.51
100.03
74.74
51.87
34.02
22.78
18.33
19.47
24.01
29.38
33.26
34.01
30.91
24.22
15.00
4.68
-5.33
-14.14
-21.50
-27.56
-32.38
-35.65
-36.80
-35.45
-31.97
-27.66
-24.40
-23.95
-27.19
-33.84
-42.73
-52.39
-61.80
-70.73
-79.51
-88.57
-97.71
-105.84
-111.02
-111.05
-104.36
-90.63
-71.11
-48.28
-25.05
-3.94
13.54
26.99
36.75
43.38
47.44
49.25
49.24
48.05
46.62
45.85
46.26
47.65
49.17
49.64
48.21
44.73
39.91
34.87
30.61
27.57
25.45
23.59
21.35
18.60
15.70
13.21
11.53
10.58
9.81
8.43
5.82
1.65
-4.01
-10.79
-18.18
-25.65
-32.74
-39.07
-44.43
-48.97
-53.20
-57.90
-63.76
-70.85
-78.18
-83.73
-84.76
-78.81
-64.56
-42.57
-15.22
13.92
41.08
63.35
79.12
88.17
91.19
89.36
83.96
76.19
67.23
58.25
50.35
44.38
40.83
39.59
40.08
41.35
42.41
42.45
41.09
38.31
34.36
29.51
23.96
17.87
11.38
4.77
-1.49
-6.92
-11.21
-14.42
-16.97
-19.42
-22.35
-25.99
-30.22
-34.70
-39.05
-43.14
-47.15
-51.56
-56.96
-63.79
-71.96
-80.67
-88.34
-92.94
-92.46
-85.61
-72.28
-53.66
-31.96
-9.81
10.34
26.71
38.42
45.40
48.21
47.83
45.36
41.86
38.24
35.17
33.11
32.34
32.88
34.51
36.77
39.06
40.79
41.56
41.17
39.60
36.94
33.23
28.60
23.26
17.54
11.79
6.26
0.98
-4.23
-9.60
-15.25
-21.06
-26.72
-31.86
-36.31
-40.13
-43.70
-47.66
-52.65
-59.18
-67.19
-75.92
-83.74
-88.54
-88.19
-81.34
-67.87
-49.06
-27.32
-5.47
13.89
29.02
39.18
44.63
46.24
45.22
42.80
40.01
37.63
36.11
35.61
36.09
37.30
38.91
40.53
41.83
42.57
42.58
41.74
39.95
37.19
33.48
28.97
23.88
18.47
12.95
7.39
1.78
-4.02
-10.06
-16.31
-22.56
-28.49
-33.77
-38.27
-42.14
-45.90
-50.25
-55.95
-63.45
-72.63
-82.58
-91.59
-97.46
-97.97
-91.65
-78.24
-59.02
-36.47
-13.66
6.60
22.44
33.22
39.36
41.92
42.13
41.05
39.46
37.99
37.13
37.28
38.66
41.20
44.54
48.05
51.08
53.14
53.93
53.44
51.82
49.24
45.87
41.85
37.27
32.31
27.13
21.86
16.54
11.10
5.37
-0.83
-7.52
-14.47
-21.27
-27.43
-32.59
-36.80
-40.52
-44.62
-50.08
-57.45
-66.50
-75.91
-83.42
-86.47
-83.01
-72.26
-55.07
-33.72
-11.23
9.52
26.46
38.66
46.21
49.87
50.63
49.53
47.41
45.01
42.89
41.41
40.73
40.76
41.24
41.86
42.39
42.70
42.77
42.54
41.79
40.20
37.38
33.16
27.65
21.30
14.71
8.39
2.58
-2.82
-8.08
-13.48
-19.13
-24.90
-30.48
-35.57
-39.97
-43.73
-47.19
-50.86
-55.37
-61.18
-68.39
-76.43
-83.92
-88.93
-89.38
-83.68
-71.39
-53.38
-31.74
-9.22
11.53
28.54
40.82
48.33
51.67
51.74
49.54
46.02
42.07
38.51
36.02
35.02
35.65
37.67
40.59
43.68
46.19
47.47
47.07
44.87
41.11
36.23
30.75
25.06
19.36
13.59
7.65
1.43
-5.08
-11.75
-18.37
-24.74
-30.59
-35.78
-40.25
-44.23
-48.17
-52.78
-58.71
-66.27
-75.02
-83.67
-90.19
-92.31
-88.20
-77.12
-59.75
-38.15
-15.22
6.10
23.52
35.89
43.20
46.28
46.35
44.60
42.05
39.46
37.43
36.38
36.56
37.97
40.35
43.19
45.90
47.93
48.92
48.77
47.50
45.21
42.00
37.88
32.92
27.21
20.96
14.42
7.83
1.35
-4.99
-11.22
-17.32
-23.24
-28.89
-34.21
-39.35
-44.56
-50.30
-57.07
-65.22
-74.65
-84.62
-93.58
-99.39
-99.86
-93.38
-79.60
-59.70
-36.15
-12.02
9.83
27.49
40.19
48.24
52.57
54.23
54.15
53.04
51.49
50.04
49.19
49.32
50.49
52.46
54.70
56.65
57.87
58.14
57.44
55.81
53.22
49.60
44.90
39.25
32.98
26.54
20.26
14.27
8.42
2.41
-4.00
-10.85
-17.94
-24.91
-31.43
-37.32
-42.64
-47.74
-53.18
-59.67
-67.72
-77.32
-87.61
-96.81
-102.48
-102.23
-94.51
-79.24
-58.01
-33.67
-9.49
11.66
28.06
39.26
45.91
49.21
50.39
50.41
49.89
49.22
48.72
48.73
49.54
51.16
53.34
55.48
56.99
57.40
56.58
54.63
51.80
48.27
44.12
39.39
34.07
28.24
21.93
15.24
8.19
0.83
-6.68
-14.10
-21.08
-27.31
-32.64
-37.20
-41.46
-46.06
-51.71
-58.98
-67.97
-78.22
-88.54
-97.06
-101.66
-100.41
-92.26
-77.43
-57.47
-34.92
-12.58
7.18
22.96
34.35
41.71
45.73
47.11
46.43
44.29
41.40
38.59
36.68
36.32
37.72
40.61
44.37
48.21
51.37
53.28
53.60
52.17
48.97
44.06
37.67
30.12
21.82
13.19
4.55
-3.86
-11.92
-19.57
-26.74
-33.35
-39.40
-45.00
-50.44
-56.08
-62.27
-69.33
-77.45
-86.60
-96.25
-105.22
-111.60
-113.05
-107.51
-93.94
-72.87
-46.43
-17.85
9.51
32.98
51.14
63.82
71.73
76.05
77.94
78.40
78.18
77.76
77.39
77.11
76.87
76.50
75.85
74.82
73.36
71.44
69.04
66.08
62.48
58.14
53.00
46.99
40.11
32.41
24.08
15.46
6.99
-0.96
-8.28
-15.12
-21.81
-28.65
-35.73
-42.87
-49.84
-56.58
-63.41
-70.98
-79.88
-90.15
-100.79
-109.78
-114.45
-112.41
-102.36
-84.72
-61.58
-36.17
-11.87
8.69
24.14
34.38
40.18
42.57
42.52
40.83
38.26
35.68
34.03
34.11
36.24
40.11
44.92
49.63
53.44
55.95
57.17
57.29
56.47
54.68
51.76
47.61
42.35
36.41
30.39
24.87
20.12
16.02
12.07
7.61
2.10
-4.63
-12.26
-20.08
-27.27
-33.26
-38.02
-42.17
-46.82
-53.14
-61.81
-72.52
-83.74
-92.93
-97.33
-94.78
-84.58
-67.79
-46.96
-25.35
-6.05
8.79
18.28
22.59
22.64
19.55
14.46
8.37
2.16
-3.40
-7.77
-10.74
-12.46
-13.26
-13.27
-12.17
-9.15
-3.28
5.89
17.85
31.02
43.19
52.24
56.85
56.78
52.71
45.74
37.00
27.40
17.76
8.99
2.13
-1.89
-2.62
-0.55
2.80
5.22
4.44
-1.13
-11.85
-26.83
-44.07
-61.08
-75.31
-84.56
-87.21
-82.48
-70.48
-52.38
-30.30
-7.03
14.58
32.19
44.44
51.15
53.06
51.46
47.80
43.35
39.15
35.94
34.27
34.39
36.26
39.50
43.43
47.25
50.19
51.69
51.40
49.27
45.53
40.60
35.03
29.29
23.59
17.85
11.77
5.09
-2.24
-9.91
-17.32
-23.89
-29.27
-33.50
-37.06
-40.63
-44.99
-50.76
-58.26
-67.23
-76.74
-85.06
-90.00
-89.39
-81.82
-67.27
-47.31
-24.75
-2.86
15.56
28.86
36.73
39.90
39.60
37.12
33.56
29.92
27.13
26.08
27.48
31.56
37.85
45.22
52.18
57.33
59.81
59.56
57.17
53.57
49.56
45.47
41.14
36.07
29.78
22.12
13.38
4.11
-5.09
-13.78
-21.79
-29.20
-36.27
-43.38
-50.99
-59.58
-69.51
-80.72
-92.44
-103.02
-110.11
-111.31
-104.84
-90.28
-68.84
-43.13
-16.43
8.11
28.31
43.22
52.98
58.49
60.80
60.88
59.46
57.20
54.69
52.56
51.35
51.33
52.38
54.05
55.71
56.74
56.74
55.58
53.42
50.51
47.08
43.23
38.86
33.70
27.40
19.75
10.82
1.00
-9.00
-18.40
-26.61
-33.36
-38.86
-43.62
-48.34
-53.79
-60.60
-69.21
-79.57
-90.85
-101.33
-108.51
-109.79
-103.26
-88.57
-67.22
-42.28
-17.40
4.17
20.45
30.94
36.38
38.09
37.46
35.66
33.59
31.94
31.32
32.21
34.78
38.86
43.87
49.06
53.67
57.18
59.29
59.94
59.17
57.13
54.03
50.14
45.77
41.18
36.45
31.52
26.19
20.25
13.61
6.39
-1.06
-8.33
-14.96
-20.76
-25.79
-30.54
-35.77
-42.39
-51.06
-61.86
-73.91
-85.32
-93.45
-95.58
-89.77
-75.62
-54.61
-29.69
-4.55
17.48
34.20
44.82
49.74
50.07
47.13
42.19
36.40
30.74
26.08
23.00
21.73
22.04
23.36
24.95
26.13
26.44
25.80
24.38
22.50
20.44
18.29
15.95
13.20
9.81
5.65
0.73
-4.74
-10.43
-15.89
-20.64
-24.31
-26.86
-28.59
-30.14
-32.43
-36.35
-42.66
-51.79
-63.44
-76.39
-88.33
-96.19
-96.92
-88.52
-70.98
-46.47
-18.80
7.76
29.73
45.24
54.12
57.37
56.47
52.87
47.79
42.27
37.25
33.49
31.46
31.16
32.18
33.80
35.34
36.36
36.86
37.11
37.43
37.89
38.22
37.89
36.32
33.13
28.28
22.07
14.97
7.46
-0.02
-7.12
-13.62
-19.38
-24.44
-29.01
-33.42
-38.13
-43.60
-50.28
-58.40
-67.79
-77.67
-86.46
-91.97
-91.93
-84.71
-70.04
-49.24
-24.98
-0.49
21.30
38.47
50.23
56.80
58.93
57.57
53.67
48.21
42.27
36.93
33.15
31.46
31.82
33.62
35.87
37.58
38.01
36.89
34.36
30.86
26.86
22.69
18.45
14.01
9.11
3.50
-2.90
-9.91
-17.11
-23.92
-29.87
-34.75
-38.72
-42.30
-46.24
-51.25
-57.88
-66.26
-75.96
-85.86
-94.09
-98.38
-96.52
-87.11
-70.22
-47.53
-21.96
3.11
24.76
41.25
52.10
57.87
59.65
58.65
55.91
52.34
48.72
45.78
44.10
43.99
45.40
47.86
50.56
52.65
53.42
52.52
50.01
46.22
41.61
36.55
31.20
25.59
19.63
13.29
6.55
-0.51
-7.75
-15.00
-22.03
-28.57
-34.39
-39.35
-43.57
-47.43
-51.59
-56.85
-63.94
-73.10
-83.78
-94.43
-102.66
-105.75
-101.49
-88.94
-68.92
-43.93
-17.41
7.20
27.35
41.89
51.01
55.71
57.29
56.87
55.30
53.22
51.24
49.91
49.64
50.48
52.08
53.81
55.04
55.41
54.90
53.73
52.08
49.90
46.90
42.68
37.08
30.22
22.59
14.78
7.27
0.26
-6.31
-12.71
-19.19
-25.82
-32.48
-38.89
-44.73
-49.86
-54.40
-58.82
-63.86
-70.29
-78.45
-87.93
-97.31
-104.28
-106.18
-100.77
-86.94
-65.21
-37.65
-7.44
21.94
47.52
67.35
80.65
87.71
89.54
87.46
82.88
76.95
70.58
64.32
58.43
52.91
47.55
42.02
35.93
28.99
21.16
12.73
4.31
-3.33
-9.43
-13.52
-15.53
-15.75
-14.77
-13.30
-12.03
-11.54
-12.20
-14.11
-17.08
-20.75
-24.65
-28.43
-31.91
-35.06
-38.01
-40.92
-44.04
-47.76
-52.60
-59.01
-66.95
-75.47
-82.62
-85.80
-82.59
-71.63
-53.31
-29.78
-4.23
20.02
40.51
56.04
66.67
73.15
76.44
77.43
76.89
75.77
75.22
76.53
80.77
88.34
98.75
110.72
122.47
132.26
138.76
141.30
139.88
135.09
127.95
119.80
112.19
106.63
104.28
105.66
110.39
117.33
124.78
131.04
135.07
137.03
138.35
141.30
148.24
160.55
178.08
198.98
220.27
238.67
251.75
258.69
260.69
260.81
263.15
271.46
287.41
309.24
331.44
345.94
344.55
321.74
276.52
212.50
136.32
54.97
-26.35
-105.07
-180.71
-253.45
-323.00
-388.16
-447.57
-500.49
-547.48
-590.25
-630.98
-671.59
-713.58
-758.37
-807.29
-861.04
-918.18
-974.03
-1020.66
-1048.85
-1051.31
-1025.60
-975.25
-908.33
-834.26
-760.49
-690.79
-625.48
-563.06
-501.99
-441.53
-381.59
-322.02
-262.22
-201.21
-138.05
-72.31
-4.10
65.94
137.08
208.65
279.84
349.43
415.34
474.40
522.62
556.23
573.03
573.80
562.91
547.53
535.54
532.95
542.11
561.54
587.45
615.86
644.03
670.46
693.70
711.39
720.09
716.50
699.13
669.28
630.69
587.84
544.21
501.15
457.84
412.34
363.02
309.74
254.50
201.12
154.13
116.94
90.16
71.24
55.47
38.19
16.84
-8.34
-35.39
-62.59
-89.86
-118.72
-150.67
-185.29
-219.69
-249.50
-271.20
-283.82
-289.18
-290.47
-290.18
-288.85
-285.44
-279.13
-270.98
-264.19
-262.71
-268.89
-281.47
-295.61
-304.38
-301.24
-282.30
-246.94
-196.88
-134.63
-62.55
16.81
99.42
178.59
245.55
291.46
310.32
300.99
267.18
215.17
150.69
77.14
-3.92
-90.16
-175.89
-251.49
-305.71
-329.75
-320.85
-283.49
-227.66
-165.22
-106.27
-56.95
-19.04
8.63
28.40
42.45
52.09
57.90
60.29
60.14
58.89
58.31
59.73
63.13
67.16
69.67
68.94
64.70
58.22
51.57
46.46
43.48
41.94
40.80
39.54
38.71
39.67
43.72
51.17
60.91
70.71
77.97
80.59
77.53
68.87
55.50
38.80
20.35
1.74
-15.74
-31.28
-44.86
-57.23
-69.62
-83.10
-97.88
-112.98
-126.30
-135.26
-137.66
-132.40
-119.74
-101.11
-78.62
-54.46
-30.51
-8.29
10.89
25.89
35.65
39.51
37.60
31.06
22.24
14.13
9.68
10.86
17.87
29.07
41.61
52.54
59.87
63.19
63.37
61.85
59.75
57.42
54.53
50.57
45.41
39.43
33.40
27.93
23.14
18.49
12.93
5.28
-5.40
-19.32
-35.71
-52.74
-67.88
-78.50
-82.73
-79.99
-71.12
-57.98
-42.68
-26.98
-12.09
1.26
12.53
21.20
26.91
29.74
30.33
29.77
29.25
29.60
31.05
33.19
35.21
36.16
35.34
32.52
28.03
22.69
17.50
13.35
10.73
9.56
9.25
8.90
7.54
4.40
-0.85
-8.10
-16.88
-26.72
-37.36
-48.81
-61.14
-73.90
-85.78
-94.56
-97.67
-93.18
-80.64
-61.39
-38.22
-14.43
7.18
24.92
38.29
47.57
53.29
55.95
56.00
53.96
50.65
47.07
44.08
42.16
41.17
40.56
39.63
38.00
35.79
33.45
31.53
30.21
29.18
27.72
24.96
20.29
13.59
5.26
-3.96
-13.19
-21.72
-29.22
-35.83
-42.21
-49.36
-58.20
-69.09
-81.32
-92.96
-101.28
-103.59
-98.22
-85.23
-66.35
-44.41
-22.37
-2.52
14.00
26.92
36.57
43.40
47.76
49.91
50.10
48.67
46.11
42.92
39.62
36.53
33.68
30.81
27.45
23.17
17.90
12.07
6.46
1.88
-1.29
-3.29
-4.91
-7.06
-10.32
-14.63
-19.37
-23.67
-26.86
-28.74
-29.66
-30.31
-31.50
-34.06
-38.57
-45.22
-53.61
-62.47
-69.81
-73.24
-70.62
-60.82
-44.11
-22.17
2.41
26.87
48.94
67.26
81.32
91.26
97.55
100.77
101.51
100.39
98.04
95.06
91.94
88.96
86.16
83.38
80.36
76.89
72.85
68.22
63.05
57.39
51.28
44.72
37.76
30.41
22.69
14.61
6.20
-2.47
-11.22
-19.79
-27.89
-35.23
-41.74
-47.51
-52.83
-58.17
-64.14
-71.30
-79.98
-89.97
-100.27
-109.06
-114.07
-113.08
-104.71
-88.90
-67.08
-41.77
-15.95
7.80
27.77
43.29
54.50
61.95
66.29
68.10
67.99
66.60
64.67
62.91
61.78
61.35
61.33
61.25
60.72
59.55
57.84
55.79
53.57
51.09
48.09
44.27
39.37
33.41
26.62
19.38
12.11
5.10
-1.59
-8.03
-14.43
-20.92
-27.51
-34.06
-40.33
-46.15
-51.57
-56.99
-63.08
-70.62
-80.08
-91.32
-103.22
-113.76
-120.42
-120.82
-113.54
-98.55
-77.37
-52.59
-27.19
-3.73
16.10
31.62
42.96
50.68
55.49
58.09
59.14
59.29
59.15
59.16
59.58
60.39
61.30
61.95
62.01
61.36
60.07
58.37
56.49
54.53
52.40
49.80
46.45
42.22
37.31
32.22
27.58
23.86
21.11
18.95
16.66
13.59
9.40
4.19
-1.62
-7.49
-13.06
-18.21
-23.07
-27.97
-33.37
-39.83
-47.72
-56.91
-66.52
-74.71
-79.11
-77.40
-68.20
-51.62
-29.35
-4.15
20.96
43.43
61.58
74.76
83.03
86.92
87.26
85.04
81.34
77.32
73.92
71.80
71.09
71.43
72.10
72.33
71.66
70.04
67.87
65.76
64.23
63.38
62.91
62.27
60.98
58.99
56.76
55.15
55.00
56.80
60.36
64.95
69.63
73.78
77.41
81.17
86.05
92.91
102.08
113.19
125.23
136.90
146.99
154.85
160.84
166.51
174.40
187.46
207.98
236.66
271.92
309.94
345.33
372.20
385.35
381.14
357.88
315.74
256.39
182.52
97.49
5.06
-90.72
-185.87
-276.88
-361.21
-437.72
-506.59
-569.01
-626.60
-681.11
-734.11
-786.48
-837.54
-884.21
-920.86
-940.36
-936.38
-905.78
-850.03
-774.65
-687.08
-593.83
-498.78
-403.14
-307.00
-211.15
-117.96
-30.69
48.05
117.88
180.98
241.05
301.07
361.25
417.87
464.09
492.64
498.86
482.80
449.35
405.88
358.81
310.86
260.64
204.67
140.78
70.12
-3.25
-74.93
-142.74
-207.32
-270.04
-329.87
-381.45
-416.11
-425.49
-405.70
-359.28
-294.06
-219.57
-143.09
-67.45
8.11
85.33
163.89
240.04
307.56
360.36
395.31
413.61
419.96
420.06
417.62
412.96
403.80
387.66
364.24
336.23
307.89
282.47
260.25
238.43
213.01
181.36
143.87
103.65
64.93
31.17
3.69
-17.87
-34.26
-45.11
-48.56
-42.37
-25.56
0.10
30.14
59.06
82.52
99.16
110.67
120.32
130.83
142.85
154.66
163.25
165.67
160.15
146.56
126.08
100.76
73.08
45.68
20.92
0.19
-16.55
-30.81
-44.97
-61.27
-80.92
-103.91
-129.20
-155.31
-180.53
-203.07
-220.90
-231.96
-235.00
-230.51
-221.45
-212.72
-209.75
-216.26
-232.52
-255.30
-279.34
-299.62
-312.95
-318.25
-315.42
-304.07
-283.13
-251.85
-211.26
-164.94
-118.09
-75.50
-39.73
-10.55
13.82
35.12
53.99
70.31
84.26
97.16
111.01
127.12
144.67
160.31
168.96
165.72
147.74
115.49
72.88
26.38
-16.64
-49.88
-69.74
-76.10
-71.87
-61.64
-49.81
-39.35
-31.40
-25.77
-21.77
-18.88
-17.08
-16.78
-18.76
-24.00
-33.42
-47.41
-65.21
-84.63
-102.12
-113.68
-115.90
-107.01
-87.39
-59.37
-26.54
7.09
37.81
62.70
79.98
89.20
91.29
88.27
82.71
76.99
72.65
70.17
69.25
69.36
70.20
71.76
74.16
77.16
80.01
81.60
80.92
77.44
71.25
62.90
53.00
42.05
30.34
18.25
6.39
-4.43
-13.53
-20.73
-26.55
-32.05
-38.45
-46.71
-57.18
-69.72
-83.82
-98.74
-113.52
-126.64
-135.95
-138.97
-133.47
-118.49
-95.11
-66.39
-36.66
-10.25
9.86
22.76
29.48
32.30
33.93
36.69
42.35
51.91
65.32
81.10
96.11
105.94
106.07
93.51
68.23
33.39
-5.73
-43.77
-77.01
-104.31
-126.38
-144.39
-158.58
-167.93
-170.79
-166.05
-153.69
-134.58
-109.40
-78.10
-40.17
4.03
51.84
97.95
135.58
158.93
165.47
156.82
138.05
115.88
96.74
85.71
86.22
99.89
126.37
162.82
204.04
243.48
274.91
293.98
298.81
289.34
266.06
229.35
179.88
119.90
54.15
-10.35
-66.12
-107.51
-132.27
-141.54
-138.34
-125.83
-106.24
-80.93
-51.32
-19.78
10.19
34.45
49.04
50.98
38.55
11.54
-28.65
-78.72
-133.61
-186.83
-231.54
-261.87
-274.47
-269.46
-250.90
-225.79
-202.25
-186.80
-182.01
-185.51
-190.98
-190.85
-179.36
-154.69
-119.16
-77.61
-35.20
4.39
39.51
69.88
95.54
116.25
131.45
140.77
144.40
143.23
138.55
131.58
123.21
113.89
103.83
93.12
82.20
71.93
63.64
58.72
57.95
61.08
66.71
72.62
76.57
76.98
73.32
66.05
56.23
45.05
33.47
22.04
10.91
-0.18
-11.76
-24.41
-38.37
-53.31
-68.08
-80.88
-89.61
-92.38
-87.95
-76.03
-57.55
-34.53
-9.73
13.94
34.08
49.32
59.47
65.29
67.95
68.53
67.82
66.32
64.46
62.72
61.56
61.21
61.40
61.52
60.83
58.87
55.66
51.60
47.21
42.76
38.18
33.12
27.15
20.04
11.98
3.45
-4.89
-12.50
-19.09
-24.84
-30.38
-36.52
-44.10
-53.63
-65.19
-78.25
-91.65
-103.64
-112.04
-114.68
-109.89
-97.14
-77.36
-52.81
-26.57
-1.62
19.83
36.74
49.08
57.53
62.85
65.70
66.48
65.57
63.43
60.68
58.12
56.37
55.81
56.32
57.36
58.21
58.20
56.99
54.62
51.50
47.99
44.24
40.06
35.03
28.73
21.02
12.11
2.48
-7.20
-16.39
-24.72
-32.15
-38.95
-45.60
-52.71
-60.91
-70.60
-81.67
-93.23
-103.55
-110.23
-110.85
-103.64
-88.21
-65.78
-38.91
-10.89
15.23
37.23
54.10
65.90
73.39
77.70
79.99
81.24
82.21
83.28
84.53
85.65
86.11
85.40
83.23
79.72
75.36
70.82
66.64
63.00
59.51
55.38
49.58
41.30
30.18
16.54
1.25
-14.51
-29.64
-43.43
-55.73
-66.80
-77.05
-86.75
-95.96
-104.58
-112.73
-120.95
-130.09
-140.99
-153.90
-167.99
-181.26
-190.66
-192.80
-184.66
-164.45
-132.22
-90.09
-42.05
6.70
50.79
85.79
109.09
120.36
121.25
114.68
103.80
91.19
78.52
66.55
55.49
45.32
35.88
26.99
18.42
10.14
2.44
-3.93
-7.97
-8.91
-6.62
-1.93
3.45
7.52
8.42
4.94
-3.40
-16.47
-33.79
-54.70
-78.24
-102.84
-125.98
-144.31
-154.30
-153.27
-140.68
-118.61
-91.44
-64.35
-41.57
-24.88
-13.28
-3.87
6.60
20.24
37.27
56.22
74.82
90.92
103.23
111.52
116.37
118.81
120.04
121.20
123.37
127.63
134.86
145.58
159.60
175.82
192.41
207.21
218.50
225.47
228.25
227.60
223.99
217.17
205.99
189.07
165.68
136.42
103.27
68.99
36.21
6.63
-19.24
-41.77
-61.62
-79.25
-94.72
-107.87
-118.59
-127.08
-133.81
-139.33
-144.15
-148.62
-153.11
-157.98
-163.54
-169.64
-175.22
-178.31
-176.30
-166.93
-149.23
-124.04
-94.02
-62.74
-33.69
-9.34
9.17
21.96
29.93
34.40
36.82
38.60
40.89
44.38
49.14
54.67
60.12
64.60
67.49
68.57
67.94
66.01
63.26
60.12
56.84
53.42
49.63
45.20
39.95
33.96
27.56
21.13
14.88
8.73
2.40
-4.38
-11.60
-18.95
-25.89
-31.90
-36.67
-40.30
-43.19
-46.00
-49.51
-54.43
-61.21
-69.80
-79.39
-88.35
-94.47
-95.47
-89.81
-77.24
-59.05
-37.71
-16.06
3.45
19.39
31.36
39.74
45.01
47.50
47.31
44.58
39.79
33.89
28.12
23.56
20.73
19.35
18.49
16.98
13.97
9.26
3.35
-2.88
-8.74
-14.10
-19.45
-25.63
-33.42
-43.15
-54.74
-67.75
-81.42
-94.38
-104.42
-108.66
-104.40
-90.30
-67.40
-39.03
-9.68
16.66
37.89
54.02
66.24
75.65
82.43
86.11
86.63
85.26
84.68
88.00
97.23
112.21
130.45
148.10
161.50
168.45
168.79
163.89
155.71
145.65
134.07
120.31
103.35
82.63
58.58
32.75
7.32
-15.54
-34.50
-49.47
-61.52
-72.35
-83.54
-95.90
-109.07
-121.62
-131.40
-136.08
-133.66
-122.99
-104.07
-78.25
-48.11
-16.88
12.19
36.65
55.21
67.67
74.56
76.48
73.86
66.95
56.10
42.11
26.30
10.31
-4.24
-15.97
-23.98
-27.69
-26.88
-21.62
-12.37
-0.12
13.58
26.86
37.96
45.66
49.73
50.78
49.97
48.41
46.67
44.70
41.93
37.69
31.53
23.41
13.60
2.55
-9.17
-20.84
-31.52
-40.21
-46.05
-48.76
-48.88
-47.65
-46.55
-46.74
-48.74
-52.35
-57.02
-62.21
-67.65
-73.37
-79.40
-85.58
-91.58
-97.00
-101.63
-105.62
-109.38
-113.31
-117.44
-121.25
-123.65
-123.24
-118.80
-109.67
-96.18
-79.72
-62.49
-46.96
-35.25
-28.60
-27.09
-29.83
-35.35
-42.29
-49.68
-57.14
-64.72
-72.53
-80.60
-88.82
-97.03
-105.25
-113.76
-122.92
-133.09
-144.34
-156.38
-168.61
-180.33
-191.03
-200.33
-207.91
-213.02
-214.27
-209.56
-196.65
-173.95
-141.43
-100.91
-55.63
-9.33
34.90
75.12
110.69
141.73
168.66
191.97
212.26
230.53
248.17
266.79
287.65
311.24
336.95
363.27
388.09
409.30
425.20
434.72
437.58
434.10
425.09
411.61
394.81
375.78
355.34
333.97
311.83
288.73
264.15
237.30
207.27
173.50
136.39
97.72
60.30
27.07
-0.13
-21.23
-37.71
-51.74
-65.04
-78.34
-91.53
-104.26
-116.31
-127.57
-137.70
-145.83
-150.83
-151.94
-149.38
-144.45
-139.10
-135.26
-134.11
-136.04
-140.69
-147.34
-155.03
-162.70
-169.42
-174.43
-177.45
-178.66
-178.71
-178.47
-178.82
-180.51
-184.10
-189.79
-197.26
-205.31
-211.86
-214.20
-209.69
-196.72
-175.43
-147.77
-116.93
-86.33
-58.58
-35.02
-15.88
-0.81
10.56
18.53
23.45
26.05
27.57
29.42
32.81
38.31
45.70
54.18
62.77
70.66
77.25
82.26
85.44
86.65
85.91
83.46
79.81
75.58
71.31
67.29
63.54
59.98
56.48
53.02
49.61
46.17
42.59
38.62
34.02
28.71
22.74
16.39
10.03
4.08
-1.08
-5.32
-8.79
-12.02
-15.66
-20.22
-25.79
-31.93
-37.85
-42.73
-46.13
-48.25
-49.74
-51.51
-54.26
-58.19
-62.75
-66.57
-67.70
-63.92
-53.49
-35.65
-11.13
17.95
48.63
77.92
103.57
124.45
140.38
151.63
158.48
160.77
158.03
149.77
136.05
117.84
97.18
76.81
59.31
46.29
37.70
31.95
26.72
20.09
11.46
1.79
-7.08
-13.81
-18.60
-23.58
-32.15
-47.58
-71.74
-104.76
-145.48
-192.22
-243.05
-295.04
-343.33
-381.02
-400.38
-395.39
-364.13
-309.69
-238.60
-158.01
-73.13
12.93
97.38
175.18
238.34
277.80
287.08
265.57
219.25
158.12
91.95
27.03
-34.55
-93.25
-149.60
-202.85
-251.32
-293.59
-329.29
-358.59
-380.96
-394.36
-395.82
-383.13
-356.38
-318.49
-274.11
-227.61
-181.52
-136.15
-90.41
-43.30
5.17
54.02
101.68
146.87
189.02
228.54
266.68
305.50
347.41
394.46
446.95
501.94
552.83
590.43
605.60
592.36
550.22
484.50
404.68
321.49
244.06
178.27
126.48
88.14
60.63
40.10
22.18
2.76
-20.97
-49.90
-82.81
-117.04
-149.29
-176.49
-196.45
-208.30
-212.76
-212.18
-210.13
-210.21
-214.68
-223.02
-231.52
-234.41
-225.70
-201.31
-160.23
-104.82
-40.40
25.44
83.78
126.05
146.38
144.04
124.26
96.64
71.37
55.39
50.37
53.96
62.90
75.89
94.06
118.82
148.90
178.82
200.30
206.05
193.60
166.83
134.46
106.12
88.22
81.68
82.56
84.65
82.92
75.74
64.98
54.28
46.51
42.07
38.87
33.80
24.62
11.37
-3.73
-17.54
-27.59
-33.18
-35.58
-37.17
-40.32
-46.39
-55.30
-65.70
-75.62
-83.04
-86.45
-85.10
-79.11
-69.25
-56.75
-42.94
-29.02
-15.87
-4.14
5.61
12.75
16.71
17.20
14.61
10.07
5.19
1.52
0.01
0.73
2.99
5.78
8.21
9.85
10.80
11.44
12.14
13.00
13.73
13.85
12.83
10.42
6.69
1.97
-3.33
-8.90
-14.55
-20.18
-25.66
-30.74
-35.19
-38.80
-41.57
-43.68
-45.48
-47.48
-50.24
-54.26
-59.78
-66.43
-73.17
-78.31
-80.06
-77.02
-68.75
-55.98
-40.36
-23.90
-8.45
4.68
14.88
22.08
26.56
28.81
29.40
28.95
28.08
27.26
26.74
26.56
26.58
26.58
26.41
26.02
25.46
24.81
24.13
23.40
22.58
21.49
20.02
18.04
15.54
12.57
9.20
5.49
1.44
-3.03
-8.00
-13.51
-19.45
-25.46
-31.03
-35.58
-38.71
-40.34
-40.88
-41.12
-42.12
-44.76
-49.53
-56.17
-63.64
-70.32
-74.41
-74.44
-69.75
-60.71
-48.65
-35.38
-22.62
-11.52
-2.51
4.62
10.28
14.85
18.46
21.12
22.82
23.69
23.90
23.69
23.21
22.51
21.60
20.53
19.43
18.41
17.53
16.66
15.63
14.22
12.45
10.43
8.33
6.14
3.59
0.28
-4.01
-9.07
-14.24
-18.57
-21.34
-22.25
-21.52
-19.51
-16.43
-12.30
-7.12
-1.40
3.71
6.60
5.74
0.21
-9.96
-23.77
-39.56
-55.22
-68.49
-77.22
-79.68
-74.94
-63.26
-46.24
-26.47
-7.01
9.51
21.42
28.28
30.75
30.04
27.53
24.42
21.49
19.22
17.84
17.33
17.59
18.34
19.12
19.48
18.99
17.45
14.98
11.96
8.91
6.25
4.23
2.75
1.63
0.54
-0.77
-2.56
-5.05
-8.41
-12.77
-18.07
-24.00
-30.01
-35.49
-39.94
-43.14
-45.27
-46.82
-48.55
-51.29
-55.76
-62.11
-69.73
-77.11
-82.17
-82.90
-78.07
-67.68
-52.91
-35.77
-18.39
-2.50
10.79
21.03
28.23
32.74
35.12
36.10
36.46
36.83
37.54
38.54
39.57
40.40
41.00
41.57
42.44
43.80
45.52
47.12
47.98
47.55
45.64
42.39
38.22
33.56
28.72
23.86
19.00
14.09
9.01
3.66
-2.04
-8.11
-14.38
-20.52
-26.19
-31.10
-35.24
-38.90
-42.66
-47.20
-53.06
-60.38
-68.55
-76.28
-81.67
-82.82
-78.35
-67.95
-52.49
-33.82
-14.32
3.82
18.95
30.33
38.04
42.74
45.34
46.70
47.43
47.84
47.96
47.66
46.76
45.07
42.43
38.84
34.47
29.81
25.45
21.96
19.69
18.54
18.10
17.70
16.66
14.52
11.09
6.66
1.85
-2.45
-5.40
-6.55
-6.11
-5.00
-4.56
-6.07
-10.18
-16.67
-24.50
-32.27
-38.79
-43.52
-46.72
-49.35
-52.62
-57.51
-64.29
-72.23
-79.69
-84.50
-84.64
-78.87
-67.20
-50.82
-31.72
-12.07
6.25
21.98
34.51
43.68
49.73
53.18
54.71
55.12
55.07
55.03
55.23
55.67
56.28
56.88
57.28
57.35
57.02
56.34
55.41
54.36
53.18
51.72
49.66
46.68
42.57
37.36
31.35
24.99
18.79
13.21
8.45
4.56
1.24
-2.01
-5.76
-10.44
-16.12
-22.42
-28.65
-34.11
-38.43
-41.73
-44.64
-48.01
-52.67
-59.09
-67.20
-76.22
-84.73
-90.79
-92.40
-88.07
-77.37
-61.23
-41.70
-21.41
-2.79
12.50
23.79
31.29
35.72
37.97
38.84
39.01
38.92
38.84
38.89
39.12
39.53
40.15
40.97
41.97
43.11
44.28
45.34
46.20
46.81
47.23
47.57
47.88
48.17
48.33
48.14
47.39
45.89
43.53
40.28
36.01
30.60
23.79
15.35
5.18
-6.54
-19.37
-32.59
-45.40
-56.98
-66.67
-74.06
-79.07
-81.99
-83.54
-84.85
-87.39
-92.37
-100.30
-110.29
-119.89
-125.54
-123.67
-112.07
-90.78
-62.27
-30.57
0.01
26.13
46.01
59.38
66.79
69.04
66.95
61.38
53.52
44.97
37.47
32.47
30.72
31.99
35.12
38.59
41.02
41.72
40.85
39.14
37.38
35.85
34.16
31.61
27.64
22.38
16.69
11.70
8.17
6.05
4.44
2.12
-1.80
-7.47
-14.28
-21.26
-27.60
-32.94
-37.39
-41.40
-45.63
-50.75
-57.40
-65.87
-75.72
-85.56
-93.08
-95.69
-91.37
-79.52
-61.33
-39.44
-17.07
2.92
18.74
29.83
36.64
40.06
41.06
40.47
38.95
37.03
35.09
33.46
32.35
31.90
32.15
33.04
34.42
36.08
37.84
39.54
41.08
42.29
43.03
43.06
42.10
39.92
36.33
31.15
24.35
16.11
6.83
-2.78
-12.02
-20.30
-27.42
-33.59
-39.38
-45.45
-52.47
-60.86
-70.60
-80.90
-90.13
-96.02
-96.23
-89.19
-74.82
-54.73
-31.68
-8.82
11.33
27.37
39.00
46.60
50.85
52.41
51.90
50.03
47.54
45.18
43.42
42.49
42.21
42.23
42.16
41.76
40.98
39.95
38.84
37.75
36.53
34.82
32.09
27.77
21.57
13.54
4.27
-5.45
-14.73
-22.97
-30.00
-36.14
-42.09
-48.76
-57.04
-67.52
-80.11
-93.67
-105.95
-113.95
-114.63
-106.04
-88.08
-62.75
-33.65
-4.87
20.16
39.47
52.64
60.38
63.77
63.75
61.04
56.33
50.52
44.82
40.52
38.47
38.78
40.74
43.24
45.20
46.03
45.78
44.94
44.09
43.58
43.33
42.91
41.63
38.84
34.02
27.07
18.28
8.36
-1.77
-11.23
-19.43
-26.27
-32.19
-38.05
-44.86
-53.50
-64.27
-76.52
-88.41
-97.17
-99.76
-93.94
-79.13
-56.80
-30.10
-2.89
21.41
40.66
54.15
62.42
66.58
67.84
67.24
65.58
63.44
61.27
59.36
57.95
57.13
56.90
57.16
57.66
58.09
58.17
57.65
56.39
54.34
51.48
47.76
43.14
37.58
31.15
23.97
16.22
8.00
-0.62
-9.49
-18.41
-27.04
-35.03
-42.14
-48.44
-54.35
-60.68
-68.35
-78.14
-90.20
-103.59
-116.19
-124.90
-126.54
-118.88
-101.58
-76.53
-47.32
-18.18
7.37
27.28
41.18
49.91
54.72
56.80
57.01
56.03
54.53
53.29
52.98
54.08
56.68
60.59
65.48
71.04
77.03
83.09
88.65
92.84
94.70
93.54
89.17
82.13
73.43
64.30
55.75
48.30
41.83
35.77
29.39
22.06
13.56
4.11
-5.77
-15.48
-24.56
-32.88
-40.56
-48.09
-56.14
-65.53
-76.96
-90.53
-105.26
-118.84
-127.95
-129.27
-120.66
-102.14
-76.07
-46.42
-17.55
7.09
25.68
38.04
45.11
48.22
48.61
47.18
44.68
41.76
39.17
37.58
37.46
38.87
41.38
44.22
46.55
47.73
47.50
45.91
43.20
39.62
35.41
30.78
25.98
21.16
16.38
11.48
6.10
-0.15
-7.46
-15.70
-24.46
-33.14
-41.17
-48.29
-54.54
-60.34
-66.37
-73.53
-82.67
-94.17
-107.49
-120.76
-130.95
-134.52
-128.63
-112.25
-86.77
-55.63
-23.34
5.97
29.59
46.62
57.57
63.67
66.18
66.09
64.12
60.99
57.50
54.55
52.93
53.05
54.88
57.92
61.37
64.37
66.18
66.31
64.63
61.30
56.70
51.32
45.51
39.43
32.85
25.41
16.79
6.98
-3.58
-14.16
-23.91
-32.21
-38.89
-44.20
-48.81
-53.61
-59.62
-67.81
-78.70
-91.83
-105.45
-116.52
-121.39
-117.05
-102.21
-78.07
-48.00
-16.53
12.06
34.89
50.93
60.72
65.63
67.17
66.59
64.76
62.41
60.17
58.60
58.02
58.40
59.42
60.52
61.25
61.40
61.05
60.34
59.32
57.75
55.18
51.21
45.74
39.13
31.98
24.93
18.23
11.70
4.85
-2.82
-11.44
-20.70
-29.85
-38.15
-45.08
-50.63
-55.32
-60.08
-66.04
-74.19
-84.88
-97.49
-110.14
-119.93
-123.55
-118.32
-103.19
-79.25
-49.59
-18.44
10.12
33.15
49.45
59.37
64.19
65.41
64.31
61.83
58.79
55.96
54.12
53.80
55.03
57.35
59.99
62.24
63.80
64.76
65.38
65.73
65.44
63.76
59.87
53.29
44.19
33.44
22.33
12.16
3.74
-2.80
-8.09
-13.24
-19.28
-26.76
-35.47
-44.46
-52.55
-58.79
-62.95
-65.69
-68.30
-72.39
-79.23
-89.24
-101.55
-113.92
-123.09
-125.49
-118.42
-101.01
-74.73
-43.06
-10.55
18.60
41.55
57.32
66.44
70.28
70.34
67.90
64.02
59.66
55.80
53.24
52.39
53.12
54.82
56.70
58.21
59.22
60.00
60.89
61.93
62.73
62.49
60.36
55.80
48.87
40.25
30.98
22.07
14.12
7.16
0.67
-6.09
-13.65
-22.00
-30.66
-38.79
-45.74
-51.33
-56.11
-61.08
-67.45
-76.09
-87.25
-100.21
-113.20
-123.58
-128.30
-124.73
-111.50
-89.17
-60.26
-28.70
1.22
26.05
43.80
54.20
58.34
58.02
55.25
51.78
48.99
47.82
48.76
51.78
56.39
61.68
66.53
70.02
71.86
72.64
73.68
76.49
81.82
89.19
96.72
101.88
102.50
97.63
87.89
74.91
60.42
45.48
30.16
14.02
-3.20
-21.02
-38.24
-53.48
-65.83
-75.17
-82.07
-87.31
-91.43
-94.57
-96.53
-97.01
-95.50
-91.10
-82.43
-67.91
-46.50
-18.45
14.22
48.10
79.42
105.16
123.76
135.05
139.60
137.99
130.46
117.05
98.09
74.64
48.67
22.64
-1.15
-21.12
-36.73
-48.28
-56.43
-61.66
-64.08
-63.58
-60.26
-54.74
-48.18
-41.91
-36.99
-33.81
-32.21
-31.76
-32.28
-34.07
-37.74
-43.90
-52.64
-63.26
-74.45
-84.62
-92.44
-97.34
-99.70
-100.76
-102.25
-105.87
-112.70
-122.64
-134.18
-144.47
-149.99
-147.52
-135.24
-113.50
-84.79
-53.05
-22.56
3.34
22.87
35.90
43.42
46.93
47.79
47.11
45.70
44.30
43.57
44.08
46.12
49.59
54.08
58.94
63.47
67.04
69.17
69.54
68.03
64.75
59.98
54.15
47.65
40.72
33.41
25.61
17.22
8.23
-1.20
-10.79
-20.24
-29.29
-37.85
-46.07
-54.28
-63.09
-73.24
-85.33
-99.43
-114.59
-128.60
-138.22
-139.96
-131.22
-111.52
-82.86
-49.37
-15.98
13.00
35.07
49.74
58.08
61.75
62.32
60.88
58.20
54.97
51.95
49.90
49.44
50.77
53.69
57.61
61.76
65.47
68.24
69.87
70.36
69.86
68.46
66.23
63.21
59.43
54.99
49.97
44.43
38.32
31.56
24.12
16.04
7.53
-1.12
-9.64
-17.90
-25.87
-33.81
-42.27
-51.98
-63.63
-77.19
-91.44
-103.72
-110.50
-108.48
-95.98
-73.74
-44.96
-14.24
13.88
36.25
51.72
60.86
65.23
66.55
66.26
65.38
64.57
64.24
64.56
65.48
66.71
67.84
68.46
68.27
67.24
65.51
63.33
60.88
58.15
54.92
50.84
45.78
39.86
33.55
27.36
21.55
15.93
9.92
2.93
-5.30
-14.47
-23.89
-32.79
-40.82
-48.15
-55.40
-63.35
-72.67
-83.72
-96.22
-109.11
-120.34
-127.12
-126.47
-116.33
-96.53
-69.08
-37.84
-7.29
18.79
38.28
50.87
57.58
59.88
59.13
56.34
52.33
47.96
44.14
41.70
41.07
42.19
44.51
47.31
49.93
52.03
53.50
54.36
54.49
53.58
51.24
47.21
41.66
35.15
28.44
22.13
16.34
10.67
4.41
-2.97
-11.52
-20.66
-29.45
-37.04
-43.02
-47.61
-51.58
-55.98
-61.98
-70.55
-82.22
-96.60
-111.94
-125.11
-132.18
-129.65
-115.75
-91.37
-59.97
-26.49
4.20
28.72
45.76
55.86
60.46
61.17
59.22
55.43
50.56
45.45
41.06
38.19
37.23
37.90
39.33
40.38
40.13
38.32
35.41
32.37
30.09
28.90
28.35
27.47
25.22
21.06
15.20
8.46
1.94
-3.47
-7.26
-9.32
-9.80
-8.97
-7.24
-5.25
-3.91
-4.33
-7.64
-14.79
-26.24
-41.70
-59.83
-78.16
-93.31
-101.70
-100.56
-88.92
-68.07
-41.33
-13.08
12.51
32.58
46.02
53.24
55.52
54.31
50.80
45.84
40.17
34.49
29.63
26.33
25.04
25.73
27.94
30.92
33.87
36.19
37.51
37.70
36.76
34.76
31.84
28.19
24.02
19.45
14.47
8.94
2.66
-4.45
-12.29
-20.50
-28.60
-36.07
-42.59
-48.11
-52.92
-57.71
-63.36
-70.73
-80.15
-90.96
-101.29
-108.32
-109.01
-101.17
-84.37
-60.26
-32.21
-4.25
20.02
38.37
50.17
56.09
57.50
55.86
52.35
47.78
42.83
38.16
34.44
32.34
32.19
33.85
36.65
39.61
41.77
42.49
41.65
39.56
36.69
33.40
29.84
25.84
21.08
15.24
8.18
0.02
-8.82
-17.74
-26.16
-33.65
-40.12
-45.73
-50.95
-56.34
-62.56
-70.29
-79.99
-91.56
-103.90
-114.70
-120.77
-118.95
-107.31
-86.10
-57.90
-26.86
2.59
27.02
44.78
55.90
61.55
63.25
62.45
60.22
57.46
54.89
53.15
52.61
53.33
55.05
57.24
59.37
61.00
62.01
62.43
62.33
61.66
60.15
57.40
53.08
47.18
40.08
32.47
25.00
18.02
11.41
4.75
-2.46
-10.40
-18.84
-27.21
-34.94
-41.69
-47.66
-53.42
-59.92
-68.17
-78.90
-92.12
-106.70
-120.18
-129.15
-130.12
-120.71
-100.76
-72.62
-40.56
-9.36
17.11
36.96
50.26
58.51
63.52
66.72
68.82
70.00
70.39
70.26
70.11
70.34
71.09
72.06
72.78
72.88
72.38
71.66
71.22
71.33
71.67
71.37
69.31
64.68
57.37
48.11
38.14
28.79
20.88
14.41
8.74
2.87
-4.04
-12.27
-21.46
-30.77
-39.30
-46.45
-52.20
-57.14
-62.33
-69.08
-78.45
-90.94
-105.83
-121.01
-133.09
-138.19
-133.19
-116.93
-90.88
-58.83
-25.69
4.01
27.34
43.38
52.90
57.39
58.35
56.92
53.92
50.15
46.50
43.89
43.02
44.13
46.89
50.58
54.30
57.33
59.34
60.35
60.57
60.11
58.75
56.01
51.35
44.57
36.04
26.72
17.81
10.25
4.36
-0.31
-4.75
-9.90
-16.33
-23.89
-31.89
-39.40
-45.64
-50.35
-53.91
-57.30
-61.83
-68.82
-79.03
-92.12
-106.30
-118.43
-124.73
-121.92
-108.46
-85.21
-55.35
-23.31
6.53
31.01
48.79
60.06
65.97
67.91
67.12
64.62
61.33
58.17
55.93
55.17
55.97
58.04
60.70
63.23
65.06
66.00
66.14
65.77
65.04
63.81
61.62
57.87
52.21
44.77
36.21
27.50
19.44
12.30
5.71
-1.10
-8.81
-17.63
-27.15
-36.49
-44.80
-51.57
-56.93
-61.53
-66.36
-72.50
-80.77
-91.39
-103.56
-115.35
-123.83
-125.79
-118.82
-102.20
-77.37
-47.61
-17.03
10.61
32.86
48.91
59.20
64.78
66.75
65.97
63.21
59.27
55.16
51.91
50.30
50.54
52.19
54.44
56.45
57.70
58.07
57.64
56.45
54.27
50.62
45.03
37.29
27.56
16.33
4.30
-7.87
-19.72
-31.02
-41.80
-52.27
-62.55
-72.63
-82.18
-90.62
-97.41
-102.37
-105.91
-109.09
-113.33
-119.83
-128.98
-139.86
-150.15
-156.53
-155.62
-145.05
-124.42
-95.59
-62.19
-28.52
1.84
26.76
45.81
59.67
69.42
76.04
80.27
82.83
84.54
86.23
88.48
91.32
94.16
95.94
95.54
92.08
85.22
75.15
62.56
48.48
34.22
21.26
11.01
4.53
2.20
3.57
7.43
12.20
16.36
18.81
19.00
16.78
12.34
5.88
-2.41
-12.42
-24.08
-37.39
-52.22
-68.13
-84.02
-97.91
-107.16
-109.01
-101.66
-85.01
-60.97
-33.05
-5.30
18.84
37.37
49.93
57.41
61.15
62.34
61.75
59.93
57.50
55.29
54.23
55.04
57.88
62.31
67.33
71.85
74.86
75.66
73.92
69.62
63.03
54.71
45.36
35.72
26.30
17.27
8.44
-0.49
-9.56
-18.41
-26.32
-32.60
-36.94
-39.70
-41.72
-44.08
-47.83
-53.86
-62.81
-74.84
-89.19
-103.85
-115.57
-120.61
-116.01
-100.78
-76.60
-47.34
-17.77
7.93
27.33
40.04
47.13
50.31
51.10
50.53
49.10
47.13
45.03
43.26
42.28
42.34
43.41
45.22
47.44
49.78
52.00
53.77
54.57
53.70
50.55
44.95
37.31
28.58
19.94
12.39
6.34
1.59
-2.51
-6.70
-11.48
-16.97
-22.90
-28.81
-34.27
-38.99
-42.96
-46.34
-49.38
-52.03
-53.54
-52.24
-45.62
-31.03
-6.71
27.13
67.84
110.71
150.15
181.30
201.29
209.64
207.85
198.30
183.21
163.79
140.13
111.52
77.12
36.73
-8.67
-56.77
-104.35
-148.05
-185.26
-214.71
-236.62
-252.22
-263.13
-270.81
-276.26
-280.07
-282.44
-282.95
-280.07
-271.01
-252.24
-220.93
-176.61
-122.28
-63.99
-9.03
36.62
70.11
92.13
105.53
113.27
116.88
116.21
110.57
100.26
87.40
75.67
68.85
69.21
76.60
88.58
101.57
112.27
118.78
120.87
119.41
115.60
110.21
103.54
95.77
87.51
80.08
75.19
74.25
77.62
84.25
91.90
97.89
100.12
97.68
91.02
81.56
71.01
60.61
50.80
41.24
31.12
19.68
6.61
-7.73
-22.43
-36.41
-48.85
-59.46
-68.54
-76.75
-84.85
-93.49
-103.10
-113.80
-125.19
-136.05
-144.17
-146.68
-140.89
-125.44
-101.18
-71.21
-40.07
-12.14
9.64
24.50
33.49
38.41
40.78
41.23
39.78
36.36
31.46
26.21
22.07
20.08
20.39
22.16
24.00
24.66
23.58
21.18
18.49
16.58
15.90
16.06
15.87
13.99
9.45
2.19
-6.91
-16.37
-24.73
-31.10
-35.55
-39.05
-43.13
-49.42
-59.22
-72.97
-89.87
-107.70
-123.02
-131.92
-131.14
-119.26
-97.28
-68.45
-37.23
-7.89
16.59
35.00
47.59
55.41
59.52
60.68
59.35
56.00
51.35
46.41
42.30
39.92
39.70
41.51
44.69
48.39
51.69
53.90
54.59
53.62
51.00
46.85
41.18
33.96
25.16
14.89
3.59
-7.95
-18.79
-28.14
-35.72
-41.86
-47.39
-53.33
-60.63
-69.91
-81.35
-94.42
-107.67
-118.67
-124.38
-121.89
-109.52
-87.67
-58.91
-27.34
2.65
27.66
46.03
57.79
64.13
66.64
66.76
65.54
63.76
62.07
61.05
61.13
62.43
64.71
67.34
69.56
70.69
70.31
68.40
65.19
61.03
56.21
50.85
44.96
38.48
31.33
23.47
14.90
5.68
-3.99
-13.72
-23.01
-31.43
-38.79
-45.24
-51.26
-57.56
-64.86
-73.80
-84.71
-97.36
-110.64
-122.32
-129.34
-128.58
-117.90
-97.24
-68.89
-36.97
-6.08
20.07
39.63
52.68
60.52
64.78
66.74
67.16
66.54
65.44
64.64
64.88
66.49
69.25
72.34
74.74
75.74
75.21
73.63
71.69
69.88
68.21
66.13
62.87
57.79
50.81
42.46
33.66
25.34
18.03
11.60
5.38
-1.48
-9.54
-18.77
-28.56
-38.05
-46.55
-53.85
-60.27
-66.52
-73.45
-81.90
-92.54
-105.55
-120.19
-134.45
-145.08
-148.37
-141.34
-123.11
-95.48
-62.55
-29.42
-0.54
21.49
36.17
44.51
48.07
48.23
45.96
42.08
37.59
33.74
31.70
32.00
34.31
37.64
41.00
44.18
47.96
53.74
62.62
74.57
88.05
100.47
109.13
112.22
109.36
101.57
90.66
78.50
66.42
54.93
43.79
32.45
20.47
7.85
-4.80
-16.56
-26.60
-34.63
-41.09
-47.01
-53.71
-62.39
-73.84
-88.03
-103.84
-118.87
-129.69
-132.69
-125.14
-106.39
-78.35
-45.12
-11.74
17.35
39.37
53.65
61.10
63.41
62.29
59.11
54.95
50.78
47.46
45.69
45.74
47.37
49.87
52.39
54.23
55.12
55.15
54.60
53.65
52.22
49.92
46.34
41.19
34.59
27.09
19.50
12.61
6.80
1.94
-2.70
-7.98
-14.58
-22.56
-31.34
-39.91
-47.27
-52.82
-56.66
-59.51
-62.56
-67.15
-74.33
-84.47
-96.75
-108.99
-117.88
-119.81
-112.05
-93.87
-67.02
-35.25
-3.23
24.92
46.62
61.12
69.09
71.81
70.65
66.77
61.21
55.10
49.62
45.78
44.15
44.62
46.49
48.75
50.50
51.28
51.15
50.54
49.82
49.08
47.94
45.70
41.69
35.63
27.85
19.24
10.92
3.79
-1.83
-6.36
-10.75
-16.07
-22.94
-31.30
-40.36
-48.99
-56.21
-61.62
-65.56
-68.99
-73.16
-79.28
-88.14
-99.76
-113.09
-125.86
-134.78
-136.38
-128.02
-109.02
-81.12
-48.11
-14.72
14.84
37.88
53.59
62.55
66.05
65.38
61.71
56.13
49.90
44.33
40.55
39.10
39.73
41.54
43.37
44.38
44.39
43.87
43.54
43.87
44.72
45.38
44.85
42.41
37.90
31.86
25.27
19.14
14.10
10.17
6.77
2.92
-2.35
-9.58
-18.64
-28.68
-38.51
-47.10
-54.08
-59.92
-65.80
-73.20
-83.33
-96.58
-112.04
-127.37
-139.05
-143.24
-136.89
-118.99
-91.12
-57.26
-22.55
8.21
31.87
47.43
55.67
58.31
57.11
53.52
48.61
43.35
38.74
35.80
35.20
36.95
40.32
44.07
46.92
48.15
47.79
46.49
45.01
43.67
42.05
39.24
34.33
27.06
17.99
8.38
-0.42
-7.55
-13.02
-17.59
-22.38
-28.26
-35.51
-43.67
-51.79
-58.94
-64.55
-68.70
-72.07
-75.79
-81.14
-89.06
-99.73
-112.09
-123.68
-130.98
-130.35
-119.19
-97.07
-66.08
-30.37
5.13
36.13
59.95
75.86
84.58
87.59
86.48
82.64
77.31
71.71
66.97
63.99
63.18
64.34
66.68
69.23
71.15
72.08
72.11
71.55
70.62
69.18
66.76
62.79
56.97
49.47
41.01
32.52
24.74
17.88
11.57
5.03
-2.42
-10.96
-20.12
-28.96
-36.51
-42.23
-46.33
-49.66
-53.57
-59.43
-68.29
-80.38
-94.75
-109.03
-119.74
-123.11
-116.33
-98.67
-71.95
-40.13
-8.05
19.98
41.21
54.81
61.42
62.48
59.58
54.08
47.19
40.04
33.69
29.13
26.99
27.51
30.34
34.62
39.26
43.17
45.54
46.05
44.79
42.18
38.65
34.59
30.18
25.46
20.31
14.53
7.83
-0.09
-9.38
-19.95
-31.34
-42.76
-53.31
-62.32
-69.69
-76.03
-82.56
-90.72
-101.63
-115.52
-131.24
-146.20
-156.78
-159.22
-150.76
-130.68
-100.63
-64.24
-26.12
9.36
39.05
61.39
76.16
84.10
86.38
84.39
79.63
73.65
67.93
63.71
61.88
62.83
66.43
72.03
78.51
84.51
88.75
90.36
89.08
85.26
79.53
72.48
64.43
55.43
45.40
34.32
22.35
9.83
-2.80
-15.10
-26.71
-37.36
-46.94
-55.58
-63.64
-71.75
-80.76
-91.48
-104.32
-118.80
-133.10
-144.18
-148.39
-142.66
-125.76
-99.00
-66.00
-31.58
-0.17
25.36
44.19
57.06
65.34
70.25
72.61
72.97
72.05
70.82
70.35
71.39
74.07
77.85
81.85
85.29
87.76
89.20
89.68
89.07
87.02
83.02
76.81
68.56
58.89
48.58
38.27
28.16
18.07
7.62
-3.39
-14.76
-25.83
-35.82
-44.08
-50.41
-55.24
-59.52
-64.49
-71.40
-81.22
-94.26
-109.68
-125.33
-137.85
-143.44
-138.93
-123.00
-96.78
-63.66
-28.24
4.94
32.66
53.47
67.44
75.58
79.21
79.60
77.92
75.34
72.97
71.75
72.15
74.08
76.84
79.36
80.58
79.76
76.75
71.92
66.01
59.76
53.66
47.82
42.10
36.32
30.45
24.65
19.13
13.93
8.71
2.89
-4.15
-12.67
-22.40
-32.59
-42.29
-50.81
-58.03
-64.43
-71.03
-79.01
-89.38
-102.51
-117.61
-132.53
-143.88
-147.72
-140.83
-121.98
-92.67
-56.86
-19.83
13.50
39.92
58.40
69.74
75.59
77.62
77.05
74.79
71.73
68.91
67.38
67.89
70.51
74.61
79.04
82.66
84.76
85.29
84.69
83.55
82.16
80.30
77.24
72.23
64.88
55.48
44.96
34.60
25.44
17.92
11.66
5.76
-0.77
-8.51
-17.38
-26.66
-35.39
-42.85
-48.89
-54.10
-59.60
-66.69
-76.42
-89.14
-104.03
-118.95
-130.60
-135.28
-129.97
-113.49
-87.09
-54.28
-19.77
11.88
37.51
55.79
67.02
72.45
73.50
71.51
67.68
63.21
59.35
57.21
57.44
59.94
63.90
68.09
71.36
73.01
73.06
72.01
70.49
68.78
66.67
63.52
58.65
51.77
43.15
33.61
24.18
15.65
8.34
1.92
-4.34
-11.21
-19.09
-27.86
-36.90
-45.36
-52.49
-58.09
-62.50
-66.68
-71.96
-79.63
-90.45
-104.06
-118.68
-131.11
-137.48
-134.42
-120.29
-96.00
-64.85
-31.55
-0.74
24.24
41.98
52.80
57.96
58.99
57.15
53.47
48.88
44.42
41.06
39.54
40.11
42.46
45.85
49.39
52.32
54.13
54.59
53.60
51.20
47.45
42.54
36.72
30.36
23.70
16.90
9.90
2.56
-5.30
-13.70
-22.49
-31.30
-39.67
-47.17
-53.59
-59.07
-64.13
-69.68
-76.80
-86.28
-98.08
-110.86
-121.93
-127.73
-124.94
-111.72
-88.54
-58.28
-25.38
5.53
30.89
48.95
59.79
64.63
65.10
62.75
58.78
54.13
49.63
46.01
43.81
43.29
44.30
46.34
48.72
50.78
52.01
52.20
51.29
49.38
46.54
42.81
38.22
32.80
26.59
19.61
11.88
3.38
-5.79
-15.37
-24.94
-33.95
-41.93
-48.73
-54.57
-60.06
-66.09
-73.64
-83.49
-95.74
-109.40
-122.19
-130.78
-131.64
-122.20
-101.97
-72.99
-39.32
-5.88
23.05
44.91
59.13
66.74
69.50
69.13
66.97
63.91
60.55
57.43
54.93
53.32
52.67
52.78
53.34
53.96
54.23
53.80
52.37
49.71
45.75
40.57
34.45
27.75
20.78
13.70
6.48
-1.01
-8.87
-17.07
-25.43
-33.70
-41.60
-48.95
-55.70
-61.98
-68.14
-74.80
-82.79
-92.79
-104.82
-117.65
-128.62
-134.10
-130.62
-116.18
-91.29
-58.95
-23.91
8.91
35.77
54.98
66.83
72.88
75.04
74.88
73.44
71.35
69.18
67.49
66.79
67.38
69.13
71.52
73.77
75.18
75.34
74.16
71.77
68.38
64.10
58.95
52.93
46.08
38.48
30.24
21.44
12.12
2.31
-7.91
-18.32
-28.61
-38.47
-47.66
-56.16
-64.14
-72.10
-80.74
-90.91
-103.15
-117.22
-131.54
-143.12
-148.20
-143.47
-127.36
-100.99
-67.98
-33.38
-1.97
23.01
40.54
51.35
57.09
59.45
59.69
58.68
57.17
55.92
55.70
57.02
59.94
64.08
68.66
72.95
76.44
78.99
80.71
81.75
82.02
81.17
78.71
74.27
67.85
59.82
50.70
40.89
30.47
19.26
7.11
-5.82
-18.97
-31.48
-42.61
-51.98
-59.76
-66.65
-73.73
-82.21
-93.03
-106.39
-121.18
-134.90
-143.91
-144.53
-134.33
-113.23
-83.80
-50.49
-18.33
8.70
28.49
40.95
47.34
49.39
48.62
46.16
42.81
39.27
36.26
34.35
33.76
34.27
35.28
36.04
36.02
34.97
32.95
30.17
26.78
22.90
18.56
13.90
9.19
4.81
1.03
-2.15
-5.01
-8.03
-11.70
-16.23
-21.50
-27.11
-32.50
-37.20
-41.04
-44.14
-47.09
-50.77
-56.29
-64.56
-75.62
-88.13
-99.19
-104.89
-101.53
-87.04
-61.94
-29.39
5.80
38.62
65.31
84.09
95.11
99.76
99.81
96.88
92.20
86.69
81.26
76.74
73.89
73.14
74.39
76.94
79.74
81.73
82.19
80.91
78.15
74.35
69.84
64.72
58.89
52.23
44.69
36.39
27.43
17.90
7.74
-3.06
-14.38
-25.84
-36.77
-46.52
-54.67
-61.31
-67.08
-73.10
-80.65
-90.73
-103.41
-117.42
-130.03
-137.47
-136.02
-123.39
-99.73
-67.91
-32.71
0.67
28.12
47.67
59.42
64.78
65.58
63.27
58.88
53.26
47.38
42.38
39.32
38.81
40.74
44.30
48.28
51.51
53.19
53.01
51.15
48.03
44.14
39.78
35.07
29.88
23.91
16.86
8.53
-1.02
-11.43
-22.10
-32.28
-41.33
-48.91
-55.11
-60.41
-65.73
-72.17
-80.69
-91.67
-104.45
-117.05
-126.33
-128.75
-121.50
-103.62
-76.47
-43.61
-9.72
20.76
44.78
61.15
70.34
73.74
72.98
69.44
64.19
58.16
52.38
47.86
45.46
45.54
47.76
51.11
54.23
55.96
55.65
53.34
49.61
45.19
40.62
36.04
31.17
25.47
18.48
10.00
0.26
-10.18
-20.59
-30.32
-39.02
-46.74
-53.78
-60.66
-67.96
-76.31
-86.24
-98.02
-111.17
-124.05
-133.84
-137.05
-130.67
-113.30
-86.04
-52.33
-17.04
14.98
40.22
57.12
66.01
68.45
66.41
61.76
55.99
50.25
45.35
41.79
39.73
38.87
38.58
38.21
37.35
36.23
35.65
36.61
39.79
45.04
51.17
56.32
58.54
56.49
49.77
38.85
24.56
7.69
-11.14
-31.29
-51.69
-70.75
-86.57
-97.53
-102.86
-102.95
-99.26
-94.00
-89.62
-88.34
-91.54
-99.23
-109.66
-119.46
-124.51
-121.38
-108.69
-87.77
-62.19
-36.33
-13.70
4.17
17.88
29.45
41.05
54.12
68.95
84.86
100.61
114.80
126.08
133.36
135.93
133.74
127.45
118.46
108.48
99.22
91.88
87.03
84.70
84.58
86.25
89.35
93.59
98.74
104.65
111.10
117.70
123.47
126.83
125.84
118.78
105.02
85.50
62.68
39.79
19.67
3.84
-8.02
-17.77
-28.00
-40.88
-57.12
-75.40
-92.43
-103.85
-105.53
-95.17
-73.32
-43.51
-11.24
17.77
39.29
51.69
55.89
54.41
49.99
44.61
39.15
33.77
28.56
23.99
20.86
19.89
21.19
23.90
26.37
26.73
23.39
15.69
3.93
-10.83
-27.18
-43.83
-59.85
-74.74
-88.29
-100.45
-111.15
-120.25
-127.54
-132.94
-136.51
-138.51
-139.38
-139.59
-139.67
-140.10
-141.48
-144.48
-149.64
-156.98
-165.36
-172.31
-174.25
-167.60
-150.04
-121.75
-85.56
-46.29
-9.15
21.76
44.37
58.62
65.81
67.68
65.85
61.61
56.17
50.71
46.42
44.25
44.61
47.25
51.30
55.58
58.99
60.81
60.91
59.60
57.43
54.89
52.12
48.84
44.47
38.35
30.11
19.85
8.20
-3.83
-15.18
-25.07
-33.28
-40.16
-46.46
-53.02
-60.60
-69.78
-80.82
-93.54
-106.93
-118.88
-126.31
-125.90
-115.23
-93.91
-63.98
-29.53
4.58
34.10
56.45
70.91
78.15
79.53
76.47
70.31
62.41
54.36
47.84
44.34
44.50
47.83
52.69
56.93
58.86
57.97
55.16
52.12
50.35
50.22
50.62
49.49
44.83
35.73
22.81
7.94
-6.58
-19.00
-28.72
-36.35
-43.35
-51.50
-62.28
-76.53
-94.00
-113.00
-130.39
-142.03
-143.85
-133.26
-110.34
-78.09
-41.59
-6.38
23.18
44.91
58.72
65.82
67.74
65.80
61.07
54.70
48.18
43.13
40.92
42.02
45.88
51.10
55.93
59.07
60.02
59.21
57.56
55.92
54.47
52.57
49.01
42.59
32.73
19.86
5.28
-9.31
-22.42
-33.37
-42.33
-50.28
-58.55
-68.48
-80.93
-95.87
-111.96
-126.47
-135.72
-136.04
-125.10
-102.91
-72.10
-37.16
-3.08
26.18
48.57
63.94
73.37
78.19
79.51
78.14
74.96
71.13
68.01
66.76
67.80
70.63
73.90
76.11
76.26
74.29
71.01
67.61
64.93
62.97
60.80
56.97
50.20
40.00
26.93
12.41
-1.82
-14.36
-24.65
-33.05
-40.73
-49.25
-60.16
-74.47
-92.18
-111.84
-130.42
-143.79
-147.79
-139.59
-118.84
-88.02
-51.76
-15.37
16.71
41.96
59.92
71.50
78.17
81.16
81.39
79.60
76.64
73.56
71.42
71.00
72.49
75.45
78.99
82.12
84.07
84.47
83.47
81.45
78.76
75.44
71.05
64.79
55.86
43.95
29.52
13.86
-1.40
-14.87
-25.98
-35.18
-43.80
-53.48
-65.67
-81.09
-99.25
-118.33
-135.13
-145.70
-146.31
-134.69
-111.10
-78.47
-41.74
-6.31
23.56
45.74
60.33
68.96
73.61
75.82
76.38
75.60
73.80
71.58
69.80
69.27
70.31
72.56
75.06
76.63
76.36
73.93
69.71
64.49
59.13
54.11
49.33
44.10
37.50
28.80
17.82
5.15
-8.11
-20.69
-31.66
-40.74
-48.32
-55.29
-62.72
-71.66
-82.90
-96.77
-112.69
-128.85
-142.11
-148.55
-144.63
-128.49
-100.93
-65.44
-27.24
8.27
37.06
57.30
69.38
75.12
76.84
76.49
75.33
74.02
72.85
72.02
71.77
72.33
73.72
75.64
77.46
78.39
77.79
75.39
71.40
66.35
60.81
55.12
49.31
43.10
36.06
27.89
18.48
8.04
-3.02
-14.10
-24.66
-34.29
-42.82
-50.39
-57.42
-64.57
-72.70
-82.70
-95.21
-110.10
-125.98
-139.98
-148.21
-146.87
-133.67
-108.89
-75.62
-38.86
-3.98
24.94
45.98
59.31
66.48
69.39
69.66
68.40
66.41
64.41
63.05
62.83
63.84
65.77
67.91
69.51
70.03
69.38
67.82
65.75
63.43
60.79
57.42
52.83
46.70
39.04
30.23
20.77
11.08
1.42
-8.13
-17.49
-26.48
-34.77
-42.06
-48.25
-53.57
-58.61
-64.25
-71.47
-81.11
-93.43
-107.57
-121.21
-130.76
-132.23
-122.64
-101.34
-70.55
-34.81
0.48
30.78
53.52
68.34
76.41
79.39
78.73
75.45
70.28
64.02
57.59
51.95
47.77
45.31
44.32
44.23
44.28
43.81
42.37
39.79
36.13
31.56
26.38
20.87
15.27
9.72
4.22
-1.35
-7.28
-13.80
-21.01
-28.77
-36.66
-44.12
-50.65
-56.09
-60.68
-65.10
-70.36
-77.51
-87.30
-99.66
-113.26
-125.37
-132.32
-130.51
-117.70
-94.05
-62.31
-27.09
6.52
34.49
54.78
67.39
73.68
75.46
74.24
71.06
66.61
61.64
57.01
53.67
52.30
53.01
55.19
57.70
59.33
59.18
57.05
53.35
48.91
44.49
40.39
36.33
31.51
25.07
16.38
5.47
-6.89
-19.44
-30.89
-40.36
-47.66
-53.39
-58.58
-64.51
-72.25
-82.54
-95.46
-110.10
-124.37
-135.00
-138.28
-131.17
-112.54
-83.83
-48.93
-13.01
19.09
44.13
61.05
70.64
74.79
75.43
74.09
71.75
68.99
66.30
64.10
62.82
62.69
63.67
65.39
67.22
68.49
68.70
67.61
65.29
61.98
57.88
53.12
47.65
41.35
34.06
25.66
16.13
5.52
-5.93
-17.86
-29.77
-41.15
-51.53
-60.71
-68.76
-76.10
-83.55
-92.14
-102.92
-116.21
-130.99
-144.52
-152.74
-151.43
-137.83
-111.94
-76.82
-37.73
-0.40
30.68
53.24
67.28
74.20
75.86
73.88
69.46
63.67
57.57
52.27
48.66
47.17
47.60
49.20
51.02
52.24
52.40
51.45
49.62
47.11
43.95
39.92
34.73
28.23
20.48
11.83
2.69
-6.57
-15.81
-25.03
-34.21
-43.18
-51.51
-58.72
-64.48
-68.81
-72.23
-75.59
-79.91
-86.14
-94.87
-105.92
-118.13
-129.05
-135.37
-133.69
-121.64
-98.98
-67.97
-32.77
1.67
31.09
52.93
66.58
72.92
73.61
70.45
64.95
58.38
51.83
46.28
42.59
41.54
43.71
49.58
59.31
72.61
88.66
106.06
123.02
137.67
148.40
154.05
154.00
148.12
136.72
120.42
100.16
77.01
52.09
26.43
1.08
-22.82
-43.99
-61.23
-73.79
-81.83
-86.50
-89.72
-93.54
-99.67
-109.06
-121.76
-136.73
-151.72
-163.34
-167.68
-161.32
-142.74
-113.11
-76.30
-37.68
-2.47
25.73
45.58
57.66
63.58
65.08
63.53
59.99
55.40
50.85
47.37
45.76
46.30
48.60
51.81
54.87
56.87
57.33
56.11
53.35
49.22
43.92
37.59
30.49
22.97
15.42
8.03
0.76
-6.73
-14.80
-23.61
-32.93
-42.18
-50.63
-57.76
-63.48
-68.26
-72.97
-78.70
-86.44
-96.77
-109.40
-122.75
-133.87
-138.97
-134.45
-118.28
-90.95
-55.66
-17.40
18.59
48.33
69.99
83.74
90.97
93.25
91.90
87.83
81.95
75.43
69.60
65.61
64.00
64.52
66.26
68.11
69.20
69.16
68.05
66.09
63.45
60.09
55.90
50.79
44.73
37.78
30.03
21.49
12.14
2.02
-8.67
-19.50
-29.90
-39.23
-46.99
-53.02
-57.61
-61.59
-66.23
-72.99
-82.92
-96.03
-110.74
-123.87
-131.18
-128.65
-113.84
-86.95
-51.05
-11.34
26.19
56.33
75.76
83.54
80.86
70.34
55.32
39.07
24.44
13.46
7.24
5.98
8.99
14.95
22.20
29.06
34.17
36.66
36.14
32.59
26.21
17.40
6.75
-4.98
-16.89
-28.26
-38.66
-48.17
-57.27
-66.67
-77.02
-88.84
-102.35
-117.68
-134.92
-154.14
-175.37
-198.42
-222.84
-247.66
-271.30
-291.49
-305.41
-310.23
-303.75
-285.03
-254.72
-214.96
-168.97
-120.46
-73.09
-29.98
6.76
36.37
59.31
77.01
91.19
103.25
114.08
124.12
133.65
143.00
152.35
161.49
169.67
175.76
178.84
178.67
175.81
171.26
165.90
159.99
153.01
144.05
132.22
117.21
99.49
80.30
61.30
43.89
28.71
15.27
2.15
-12.44
-30.00
-51.19
-75.48
-101.06
-124.93
-143.31
-152.38
-149.24
-132.94
-105.06
-69.42
-31.13
4.88
35.10
57.85
73.06
81.60
84.57
83.09
78.38
71.92
65.47
60.66
58.61
59.44
62.24
65.41
67.33
66.97
64.24
59.88
54.88
49.92
44.90
39.01
31.13
20.40
6.71
-9.21
-25.94
-41.93
-55.97
-67.60
-77.23
-85.98
-95.41
-107.08
-121.99
-140.05
-159.56
-177.23
-188.66
-189.51
-176.90
-150.44
-112.60
-67.99
-21.97
20.75
57.20
86.33
108.46
124.57
135.57
142.10
144.72
144.24
141.82
138.88
136.69
136.01
136.81
138.36
139.64
139.79
138.56
136.22
133.40
130.63
127.99
124.97
120.63
113.93
104.13
91.09
75.43
58.33
41.18
25.13
10.75
-2.16
-14.44
-27.30
-41.99
-59.40
-79.71
-102.00
-124.05
-142.46
-153.23
-152.82
-139.35
-113.45
-78.37
-39.16
-1.23
31.17
55.88
72.85
83.51
89.67
92.77
93.66
92.82
90.79
88.35
86.43
85.78
86.70
88.83
91.45
93.68
94.83
94.47
92.37
88.51
82.95
75.84
67.43
58.00
47.70
36.59
24.75
12.33
-0.34
-12.84
-24.81
-36.10
-46.71
-56.89
-66.96
-77.46
-89.14
-102.87
-119.20
-137.66
-156.20
-171.12
-177.92
-172.76
-154.01
-123.08
-84.21
-43.11
-5.28
25.58
48.04
62.75
71.44
75.97
77.72
77.49
75.80
73.19
70.47
68.60
68.42
70.33
74.03
78.60
82.71
85.06
84.70
81.23
74.79
65.93
55.45
44.14
32.70
21.48
10.23
-2.13
-17.58
-38.64
-67.40
-104.50
-148.28
-194.77
-238.65
-274.82
-299.93
-313.16
-315.97
-311.13
-301.38
-288.59
-273.48
-255.82
-234.97
-210.39
-182.03
-150.50
-117.19
-83.95
-52.77
-25.39
-3.25
12.55
20.97
21.05
12.33
-4.20
-25.30
-45.29
-57.20
-54.75
-34.57
2.71
52.89
109.78
167.17
220.22
265.77
302.05
328.09
343.46
348.42
343.95
331.57
312.87
289.04
260.83
229.04
195.18
161.93
132.69
110.69
97.82
93.80
96.22
101.42
105.98
107.84
106.94
104.85
103.78
105.68
111.71
122.15
136.68
154.38
173.67
192.15
206.86
214.89
214.35
205.10
188.92
168.91
148.46
130.10
114.86
102.17
90.45
77.98
63.66
47.47
30.29
13.41
-1.94
-15.11
-26.09
-35.49
-44.26
-53.46
-63.93
-76.01
-89.37
-103.20
-116.48
-128.48
-139.04
-148.58
-157.68
-166.67
-175.31
-182.90
-188.59
-191.97
-193.32
-193.68
-194.61
-197.86
-204.92
-216.42
-231.67
-248.12
-261.57
-266.97
-259.92
-238.22
-202.75
-157.37
-107.60
-59.03
-15.92
19.30
45.66
62.93
71.19
70.87
63.24
50.94
37.94
29.01
28.70
40.16
64.26
99.20
140.79
183.37
221.22
249.87
267.03
272.78
269.08
258.94
245.62
232.22
221.40
215.07
213.77
216.10
218.52
216.11
203.99
179.22
141.92
95.17
43.70
-8.00
-57.35
-104.22
-150.51
-199.14
-252.99
-313.94
-381.88
-453.78
-523.34
-581.82
-620.15
-631.71
-614.72
-572.77
-513.18
-444.13
-371.80
-298.99
-225.52
-150.08
-72.34
5.81
80.25
145.87
198.45
236.19
260.43
275.05
285.04
294.30
304.42
314.66
323.10
328.23
329.88
329.00
326.41
321.64
312.57
296.31
270.60
235.01
191.33
143.12
94.51
49.11
9.44
-23.08
-47.88
-64.88
-74.34
-76.89
-73.67
-66.35
-56.97
-47.64
-40.13
-35.55
-34.08
-35.03
-37.13
-39.03
-39.78
-39.23
-38.12
-37.81
-39.75
-44.90
-53.45
-64.82
-78.09
-92.45
-107.50
-123.22
-139.71
-156.73
-173.54
-189.11
-202.44
-213.01
-221.05
-227.28
-232.54
-237.30
-241.60
-245.24
-248.30
-251.31
-255.05
-259.95
-265.38
-269.46
-269.37
-262.40
-246.82
-222.61
-191.43
-156.06
-119.60
-84.79
-53.60
-27.14
-5.83
10.41
21.92
29.29
33.31
34.95
35.27
35.36
36.24
38.72
43.40
50.54
59.93
70.84
82.14
92.51
100.88
106.66
109.82
110.61
109.22
105.50
98.97
89.15
76.07
60.49
43.94
28.21
14.76
4.18
-4.01
-11.16
-18.98
-28.83
-41.21
-55.41
-69.50
-80.76
-86.20
-83.34
-70.89
-49.34
-21.02
10.33
40.56
66.29
85.69
98.63
106.13
109.44
109.45
106.57
101.13
93.84
85.91
78.77
73.41
70.03
67.97
66.28
64.26
61.82
59.39
57.52
56.41
55.66
54.38
51.53
46.32
38.42
28.04
15.89
2.84
-10.20
-22.47
-33.46
-42.85
-50.62
-56.95
-62.41
-67.81
-74.13
-82.02
-91.47
-101.34
-109.45
-113.00
-109.49
-97.52
-77.40
-51.21
-22.20
6.03
30.44
49.23
62.00
69.54
73.24
74.54
74.56
74.02
73.43
73.33
74.34
77.00
81.40
86.98
92.63
97.12
99.56
99.73
98.04
95.10
91.27
86.47
80.31
72.55
63.38
53.53
44.02
35.67
28.74
22.80
16.91
9.99
1.22
-9.61
-22.22
-36.08
-50.86
-66.56
-83.28
-100.60
-117.05
-129.94
-135.95
-132.22
-117.44
-92.34
-59.53
-22.63
14.51
48.42
76.21
95.73
105.77
106.40
99.08
86.38
71.33
56.59
44.04
34.66
28.67
25.80
25.47
26.99
29.84
33.90
39.56
47.37
57.28
67.91
76.26
78.33
70.48
50.97
20.84
-16.26
-55.33
-91.70
-122.29
-145.95
-162.99
-174.40
-181.33
-185.11
-187.46
-190.43
-195.80
-204.08
-213.81
-221.57
-222.97
-214.22
-193.41
-161.10
-120.04
-74.18
-27.76
15.51
52.84
82.52
103.91
117.30
123.66
124.29
120.56
113.69
104.88
95.35
86.52
79.88
76.79
78.02
83.49
92.13
102.08
111.24
117.83
120.83
119.98
115.55
107.90
97.25
83.76
67.73
49.94
31.66
14.36
-0.81
-13.38
-23.74
-32.87
-42.02
-52.41
-65.00
-80.27
-97.91
-116.49
-133.42
-145.26
-148.59
-141.05
-122.19
-93.74
-59.20
-22.81
11.44
40.69
63.47
79.59
89.66
94.69
95.84
94.19
90.84
86.75
82.77
79.45
77.00
75.27
73.91
72.52
70.82
68.75
66.42
64.08
61.95
60.16
58.58
56.70
53.79
48.96
41.72
32.07
20.72
8.71
-2.93
-13.56
-23.12
-31.91
-40.52
-49.69
-60.20
-72.74
-87.37
-103.09
-117.52
-127.25
-128.75
-119.65
-99.70
-70.95
-37.16
-2.71
28.60
54.17
72.80
84.44
89.80
90.06
86.67
81.16
75.04
69.62
65.81
64.12
64.51
66.45
69.06
71.38
72.61
72.33
70.53
67.50
63.58
58.91
53.42
46.86
39.04
29.98
19.98
9.57
-0.79
-10.81
-20.46
-29.93
-39.41
-48.95
-58.45
-67.83
-77.28
-87.34
-98.60
-111.16
-123.99
-134.68
-139.86
-136.19
-121.65
-96.45
-63.18
-26.06
10.20
41.74
66.20
82.94
92.60
96.58
96.48
93.84
89.97
85.86
82.20
79.44
77.70
76.86
76.56
76.30
75.57
74.03
71.54
68.19
64.22
59.77
54.83
49.18
42.54
34.69
25.60
15.47
4.69
-6.32
-17.13
-27.42
-36.97
-45.65
-53.42
-60.38
-66.90
-73.64
-81.48
-91.19
-102.83
-115.27
-126.04
-131.83
-129.46
-117.03
-94.72
-64.85
-31.20
2.11
31.56
54.96
71.44
81.24
85.29
84.83
81.27
75.97
70.26
65.18
61.54
59.80
59.97
61.74
64.52
67.64
70.45
72.38
72.66
70.20
63.62
51.54
33.24
9.36
-17.97
-45.36
-69.13
-86.36
-95.85
-98.32
-96.02
-91.90
-88.70
-88.41
-92.13
-100.16
-111.93
-126.00
-139.81
-149.95
-152.76
-145.35
-126.66
-98.01
-62.89
-25.89
8.67
37.87
60.76
78.06
91.28
101.83
110.31
116.42
119.42
118.83
114.92
108.84
102.15
96.17
91.41
87.56
83.81
79.41
74.05
67.85
61.14
54.16
46.90
39.14
30.66
21.30
10.99
-0.12
-11.79
-23.56
-34.87
-45.12
-53.93
-61.28
-67.50
-73.25
-79.33
-86.54
-95.45
-106.15
-117.98
-129.31
-137.65
-140.10
-134.26
-119.03
-95.28
-65.69
-34.12
-4.45
20.41
39.10
51.74
59.42
63.49
65.08
64.95
63.63
61.59
59.40
57.63
56.71
56.75
57.55
58.71
59.82
60.58
60.79
60.29
58.76
55.86
51.27
44.92
37.09
28.34
19.35
10.59
2.15
-6.18
-14.82
-24.00
-33.65
-43.32
-52.39
-60.35
-66.99
-72.56
-77.73
-83.46
-90.69
-99.88
-110.56
-121.10
-128.92
-131.11
-125.43
-111.11
-89.20
-62.23
-33.51
-6.06
17.90
37.28
51.86
61.93
67.99
70.64
70.58
68.67
65.84
62.96
60.65
59.16
58.36
57.96
57.77
57.87
58.58
60.23
62.80
65.69
67.69
67.37
63.62
56.11
45.43
32.93
20.24
8.69
-1.00
-8.77
-15.03
-20.32
-25.15
-29.86
-34.68
-39.78
-45.38
-51.75
-59.29
-68.49
-79.84
-93.57
-109.37
-125.99
-141.17
-151.92
-155.14
-148.55
-131.38
-104.82
-71.78
-36.16
-1.82
28.30
52.68
71.09
84.10
92.48
96.80
97.49
95.01
90.10
83.76
77.11
70.95
65.61
60.89
56.28
51.37
46.08
40.73
35.93
32.22
29.86
28.72
28.21
27.50
25.55
21.27
13.62
1.79
-14.54
-35.04
-58.54
-83.21
-106.74
-126.93
-142.11
-151.54
-155.53
-155.34
-152.93
-150.70
-151.24
-156.93
-169.23
-187.75
-209.42
-228.55
-237.92
-231.17
-205.14
-161.43
-106.00
-47.20
6.84
50.39
80.98
99.05
107.09
108.80
108.30
109.51
115.28
126.63
142.55
160.39
176.86
189.14
195.38
194.97
188.42
177.33
164.41
153.36
148.00
150.97
162.46
179.62
197.01
208.14
207.39
191.59
160.67
117.26
65.65
10.45
-44.50
-96.93
-146.38
-194.19
-242.92
-295.20
-352.11
-411.74
-468.69
-515.03
-542.70
-546.38
-525.36
-483.72
-428.59
-367.30
-305.10
-244.24
-184.51
-124.51
-62.92
0.68
65.65
130.32
192.10
247.73
293.65
326.73
345.19
349.33
341.87
327.50
311.77
299.55
293.68
294.24
298.94
304.30
307.09
305.50
299.35
289.43
276.58
260.91
241.98
219.46
193.75
166.25
138.90
113.28
89.94
68.34
47.47
26.68
6.36
-12.25
-27.75
-39.55
-48.34
-55.80
-63.92
-74.22
-87.37
-103.43
-121.93
-141.95
-161.73
-178.57
-189.15
-190.40
-180.61
-160.10
-131.18
-97.35
-62.32
-29.18
-0.06
23.90
42.38
55.68
64.57
70.07
73.24
74.95
75.90
76.59
77.30
78.01
78.40
77.80
75.45
70.78
63.64
54.39
43.70
32.41
21.23
10.61
0.63
-8.96
-18.61
-28.63
-38.95
-48.99
-57.98
-65.32
-70.95
-75.46
-79.82
-85.13
-92.30
-101.98
-114.37
-129.02
-144.38
-157.80
-165.86
-165.35
-154.47
-133.61
-105.42
-73.96
-43.55
-17.65
1.76
14.12
19.97
20.50
17.15
11.41
4.68
-1.75
-6.71
-9.22
-8.68
-4.96
1.35
9.13
16.97
23.71
28.82
32.45
35.23
37.82
40.45
42.82
44.23
44.00
41.88
38.15
33.58
29.04
25.17
22.00
19.02
15.20
9.31
0.24
-12.69
-29.37
-48.65
-68.18
-84.64
-94.41
-94.45
-83.35
-62.01
-33.58
-2.68
25.86
48.34
63.01
70.17
71.52
69.18
64.86
59.48
53.34
46.64
39.80
33.73
29.43
27.57
28.08
30.11
32.28
33.26
32.15
28.71
23.26
16.35
8.46
-0.20
-9.64
-19.98
-31.20
-43.08
-55.08
-66.49
-76.60
-84.92
-91.44
-96.65
-101.43
-106.85
-113.81
-122.79
-133.64
-145.29
-155.63
-161.71
-160.31
-148.86
-126.38
-94.03
-55.00
-13.64
25.82
60.19
87.81
108.43
122.63
131.31
135.42
135.90
133.68
129.62
124.48
118.83
113.05
107.38
102.06
97.32
93.39
90.42
88.36
86.91
85.51
83.44
80.03
74.80
67.73
59.12
49.50
39.36
28.94
18.20
6.96
-4.85
-16.92
-28.65
-39.36
-48.55
-56.22
-62.88
-69.47
-77.14
-86.96
-99.56
-114.61
-130.48
-144.11
-151.57
-149.14
-134.66
-108.55
-73.96
-35.85
0.49
30.97
53.55
68.21
76.21
79.27
78.87
76.17
72.15
67.84
64.31
62.47
62.75
64.90
68.14
71.44
73.95
75.23
75.26
74.22
72.21
69.10
64.55
58.21
50.05
40.45
30.22
20.30
11.43
3.78
-3.08
-9.96
-17.59
-26.17
-35.28
-44.04
-51.62
-57.62
-62.36
-66.77
-72.14
-79.75
-90.44
-104.12
-119.39
-133.47
-142.59
-142.95
-131.95
-109.32
-77.35
-40.35
-3.37
29.22
54.72
72.32
82.63
87.00
86.87
83.54
78.18
71.94
65.97
61.28
58.48
57.61
58.18
59.34
60.32
60.65
60.24
59.24
57.78
55.70
52.60
47.96
41.48
33.29
23.99
14.40
5.25
-3.13
-10.89
-18.55
-26.64
-35.42
-44.66
-53.80
-62.07
-68.89
-74.16
-78.32
-82.37
-87.62
-95.26
-105.80
-118.59
-131.50
-141.17
-143.87
-136.57
-118.10
-89.67
-54.60
-17.42
17.39
46.49
68.16
82.16
89.28
90.76
87.99
82.40
75.43
68.49
62.79
59.03
57.34
57.27
58.00
58.71
58.85
58.25
57.02
55.35
53.25
50.46
46.56
41.22
34.42
26.54
18.25
10.19
2.68
-4.46
-11.78
-19.83
-28.83
-38.48
-48.06
-56.71
-63.91
-69.70
-74.67
-79.90
-86.60
-95.77
-107.76
-121.80
-135.72
-146.19
-149.43
-142.35
-123.68
-94.58
-58.52
-20.21
15.69
45.69
68.14
82.97
91.18
94.16
93.26
89.66
84.51
79.05
74.45
71.67
71.02
72.14
74.03
75.48
75.62
74.22
71.76
69.01
66.59
64.47
62.00
58.18
52.21
43.92
33.94
23.42
13.56
5.14
-1.81
-7.88
-14.01
-21.02
-29.22
-38.33
-47.60
-56.13
-63.27
-68.95
-73.71
-78.56
-84.77
-93.42
-105.05
-119.06
-133.51
-145.12
-149.98
-144.71
-127.62
-99.59
-63.93
-25.48
10.83
41.27
63.96
78.74
86.55
88.72
86.58
81.37
74.40
67.09
60.74
56.25
53.78
52.67
51.74
49.78
46.06
40.67
34.31
27.94
22.24
17.28
12.53
7.29
1.06
-6.10
-13.53
-20.27
-25.55
-29.15
-31.58
-33.87
-37.06
-41.79
-47.88
-54.47
-60.30
-64.25
-65.84
-65.46
-64.34
-64.27
-67.24
-74.88
-87.82
-105.17
-124.16
-140.38
-148.79
-145.09
-127.21
-96.16
-55.83
-11.74
30.48
66.65
94.64
114.36
127.02
134.29
137.79
138.66
137.73
135.43
132.04
127.73
122.61
116.75
110.16
102.88
94.96
86.66
78.33
70.45
63.31
56.90
50.81
44.32
36.84
28.16
18.71
9.34
0.97
-5.97
-11.82
-17.55
-24.39
-33.16
-43.86
-55.57
-66.87
-76.38
-83.33
-87.81
-90.65
-93.19
-96.89
-103.10
-112.49
-124.72
-137.99
-148.98
-153.53
-147.85
-129.86
-100.22
-62.29
-21.16
17.87
50.74
75.38
91.62
100.52
103.60
102.32
97.94
91.70
84.90
78.84
74.53
72.47
72.36
73.31
74.20
74.24
73.24
71.58
69.91
68.65
67.64
66.17
63.18
57.75
49.53
38.94
27.08
15.45
5.31
-2.69
-8.86
-14.23
-20.08
-27.31
-36.00
-45.38
-54.22
-61.50
-66.82
-70.66
-74.17
-78.75
-85.72
-95.91
-109.20
-124.21
-138.21
-147.38
-147.80
-136.69
-113.46
-80.23
-41.29
-1.85
33.38
61.25
80.56
91.67
95.81
94.54
89.39
81.89
73.58
65.97
60.37
57.67
58.16
61.37
66.26
71.52
75.92
78.60
79.20
77.71
74.23
68.72
60.95
50.68
37.97
23.40
8.12
-6.48
-19.16
-29.34
-37.18
-43.52
-49.49
-56.03
-63.59
-72.03
-80.75
-88.99
-96.15
-102.04
-106.99
-111.78
-117.54
-125.28
-135.31
-146.74
-157.16
-163.06
-160.72
-147.46
-122.72
-88.47
-48.71
-8.29
28.38
58.27
80.06
93.75
100.16
100.45
95.96
88.22
78.93
69.73
61.93
56.19
52.44
50.02
48.13
46.09
43.62
40.73
37.50
33.92
29.75
24.70
18.60
11.52
3.93
-3.48
-10.03
-15.28
-19.26
-22.39
-25.27
-28.39
-31.88
-35.49
-38.74
-41.11
-42.39
-42.76
-42.91
-44.07
-47.65
-54.93
-66.33
-80.79
-95.61
-106.83
-110.34
-103.28
-85.11
-57.94
-25.92
6.00
33.47
53.64
65.52
69.66
67.57
61.02
51.75
41.29
31.06
22.40
16.60
14.67
17.09
23.61
33.23
44.42
55.49
64.94
71.82
75.76
76.89
75.65
72.48
67.70
61.40
53.45
43.72
32.27
19.53
6.28
-6.54
-18.11
-28.03
-36.40
-43.81
-51.15
-59.44
-69.64
-82.29
-97.13
-112.69
-126.19
-133.94
-132.35
-119.20
-94.55
-61.02
-23.14
14.04
46.28
71.06
87.74
97.04
100.32
98.92
93.96
86.40
77.32
67.99
59.76
53.80
50.70
50.25
51.59
53.42
54.51
53.97
51.41
46.84
40.56
32.85
23.94
13.87
2.52
-10.31
-24.65
-40.23
-56.42
-72.37
-87.34
-100.94
-113.26
-124.73
-135.93
-147.40
-159.61
-172.83
-186.89
-200.72
-212.06
-217.56
-213.66
-197.70
-168.99
-129.28
-82.29
-32.57
15.72
59.65
97.75
129.66
155.62
175.95
190.90
200.67
205.54
206.02
202.96
197.51
191.00
184.70
179.46
175.49
172.28
168.73
163.59
155.91
145.42
132.46
117.81
102.16
85.84
68.80
50.88
32.19
13.31
-4.82
-21.30
-35.53
-47.54
-57.83
-67.25
-76.67
-87.01
-99.02
-113.23
-129.46
-146.42
-161.39
-170.59
-170.10
-157.19
-131.57
-95.68
-54.27
-12.93
23.47
51.88
71.45
83.05
88.34
89.04
86.50
81.79
75.95
70.15
65.54
62.95
62.50
63.49
64.65
64.67
62.73
58.79
53.45
47.65
42.16
37.29
32.76
27.91
21.94
14.27
4.73
-6.29
-17.97
-29.30
-39.40
-47.79
-54.58
-60.35
-66.07
-72.83
-81.74
-93.55
-108.30
-124.83
-140.50
-151.49
-153.69
-144.14
-122.17
-89.98
-52.03
-13.70
20.32
47.18
66.13
77.99
84.19
86.07
84.61
80.58
75.01
69.26
64.79
62.68
63.13
65.36
67.92
69.28
68.46
65.36
60.63
55.30
50.20
45.58
41.04
35.68
28.58
19.19
7.64
-5.22
-18.17
-30.01
-40.02
-48.20
-55.21
-62.13
-70.14
-80.26
-93.08
-108.43
-124.94
-139.92
-149.60
-150.10
-138.73
-115.15
-81.88
-43.64
-5.95
26.55
51.23
67.73
77.37
82.11
83.71
83.29
81.50
78.78
75.67
72.86
70.94
70.22
70.55
71.37
71.92
71.53
69.84
66.86
62.86
58.20
53.16
47.86
42.21
35.95
28.77
20.39
10.78
0.18
-10.87
-21.67
-31.59
-40.24
-47.61
-54.15
-60.60
-67.94
-77.20
-89.20
-104.00
-120.47
-135.94
-146.45
-147.83
-137.10
-113.75
-80.24
-41.31
-2.53
31.42
57.86
76.31
87.81
94.00
96.35
95.89
93.48
89.98
86.38
83.61
82.21
82.10
82.62
82.80
81.87
79.56
76.21
72.58
69.36
66.70
64.09
60.48
54.82
46.57
36.07
24.49
13.31
3.73
-3.87
-10.05
-16.01
-22.97
-31.54
-41.49
-51.87
-61.46
-69.37
-75.46
-80.47
-85.76
-92.99
-103.64
-118.44
-136.81
-156.53
-173.77
-183.83
-182.40
-167.11
-138.50
-100.08
-57.37
-16.13
19.23
46.59
66.02
78.84
86.64
90.63
91.59
90.26
87.64
85.00
83.45
83.57
85.06
86.93
87.94
87.21
84.53
80.34
75.42
70.43
65.62
60.71
55.15
48.32
39.94
30.19
19.83
9.95
1.63
-4.48
-8.46
-11.20
-14.05
-18.36
-24.89
-33.49
-43.25
-52.80
-61.01
-67.41
-72.40
-77.08
-82.91
-91.23
-102.84
-117.54
-133.80
-148.65
-158.15
-158.23
-146.08
-121.23
-86.05
-45.20
-4.28
31.74
59.77
78.90
89.98
94.72
94.91
92.04
87.32
81.90
76.97
73.59
72.39
73.37
75.81
78.53
80.33
80.42
78.69
75.59
71.93
68.45
65.44
62.63
59.31
54.65
48.08
39.59
29.77
19.59
10.06
1.85
-4.96
-10.84
-16.55
-22.77
-29.85
-37.62
-45.49
-52.73
-58.77
-63.48
-67.26
-71.00
-75.88
-83.10
-93.50
-107.12
-122.71
-137.58
-147.84
-149.34
-138.94
-115.80
-81.91
-41.74
-0.92
35.38
63.76
83.08
94.15
98.75
98.82
95.90
91.13
85.42
79.70
74.90
71.75
70.58
71.13
72.70
74.43
75.60
75.90
75.43
74.48
73.24
71.63
69.20
65.37
59.64
51.88
42.45
32.08
21.74
12.31
4.35
-2.08
-7.36
-12.23
-17.43
-23.38
-29.94
-36.55
-42.47
-47.17
-50.71
-53.79
-57.60
-63.47
-72.50
-85.24
-101.25
-118.81
-134.83
-145.32
-146.34
-135.27
-111.89
-78.69
-40.27
-1.99
31.50
57.26
74.30
83.15
85.09
81.74
74.69
65.67
56.42
48.58
43.44
41.52
42.50
45.37
48.83
51.71
53.37
53.68
52.84
51.08
48.37
44.44
38.94
31.76
23.14
13.82
4.68
-3.54
-10.62
-16.85
-22.97
-29.73
-37.46
-45.91
-54.30
-61.72
-67.55
-71.83
-75.28
-79.15
-84.79
-93.29
-104.87
-118.55
-131.90
-141.37
-143.10
-134.20
-113.84
-83.83
-48.18
-11.90
20.60
46.53
65.07
76.80
82.90
84.48
82.48
77.76
71.49
65.06
59.84
56.63
55.52
55.83
56.52
56.74
56.09
54.70
52.96
51.12
49.03
46.15
41.76
35.35
26.92
17.07
6.78
-3.04
-11.89
-19.89
-27.69
-36.07
-45.54
-56.11
-67.31
-78.41
-88.79
-98.16
-106.69
-114.94
-123.71
-133.80
-145.51
-158.15
-169.64
-176.70
-175.63
-163.53
-139.53
-105.42
-65.25
-24.14
13.19
43.56
65.72
80.00
87.55
89.76
87.90
83.30
77.41
71.75
67.73
66.20
67.21
70.00
73.33
76.03
77.39
77.44
76.75
76.02
75.65
75.37
74.30
71.31
65.48
56.67
45.64
33.89
23.13
14.53
8.33
3.74
-0.60
-6.01
-13.21
-21.97
-31.35
-40.10
-47.22
-52.34
-55.98
-59.49
-64.86
-74.20
-88.98
-109.07
-132.02
-153.08
-166.23
-166.13
-150.09
-119.26
-78.47
-34.51
6.08
38.86
62.20
76.72
84.10
86.12
84.16
79.43
73.23
67.01
62.00
58.80
57.06
55.79
53.91
50.83
46.76
42.56
39.26
37.57
37.50
38.34
38.89
37.87
34.49
28.70
21.29
13.54
6.73
1.54
-2.22
-5.49
-9.51
-15.20
-22.74
-31.49
-40.25
-47.84
-53.58
-57.63
-61.07
-65.67
-73.40
-85.78
-103.12
-123.91
-144.61
-160.28
-165.74
-157.21
-133.64
-97.28
-53.12
-7.47
33.84
66.73
89.51
102.50
107.26
105.74
99.87
91.45
82.26
74.08
68.46
66.32
67.66
71.51
76.22
80.10
81.99
81.63
79.55
76.58
73.35
69.85
65.45
59.26
50.72
40.02
28.21
16.81
7.21
0.05
-5.06
-9.30
-14.16
-20.69
-29.15
-38.90
-48.82
-57.80
-65.19
-71.08
-76.17
-81.64
-88.86
-99.03
-112.66
-128.97
-145.53
-158.38
-162.96
-155.50
-134.50
-101.47
-60.65
-17.75
21.73
53.95
77.20
91.67
98.65
99.86
97.00
91.74
85.72
80.48
77.20
76.40
77.84
80.61
83.53
85.57
86.21
85.51
83.90
81.81
79.41
76.43
72.24
66.21
58.00
47.85
36.57
25.30
15.10
6.44
-0.89
-7.69
-14.92
-23.24
-32.69
-42.69
-52.33
-60.80
-67.70
-73.27
-78.39
-84.30
-92.34
-103.30
-116.96
-131.58
-143.97
-150.02
-145.97
-129.68
-101.60
-64.89
-24.54
14.03
46.47
70.38
85.42
92.65
93.76
90.46
84.19
76.26
67.95
60.49
54.90
51.67
50.70
51.33
52.73
54.14
55.13
55.42
54.82
53.06
49.86
45.06
38.77
31.31
23.14
14.59
5.79
-3.35
-13.01
-23.29
-34.10
-45.15
-56.01
-66.19
-75.30
-83.19
-90.18
-97.06
-105.07
-115.33
-128.20
-142.56
-155.60
-163.22
-161.27
-147.02
-120.31
-83.90
-42.66
-2.18
32.86
59.71
77.71
87.78
91.52
90.64
86.56
80.57
73.84
67.56
62.74
60.02
59.46
60.54
62.38
63.99
64.55
63.65
61.25
57.63
53.19
48.26
42.97
37.12
30.33
22.19
12.50
1.45
-10.36
-22.10
-32.97
-42.48
-50.54
-57.57
-64.21
-71.31
-79.82
-90.55
-103.90
-119.22
-134.46
-146.21
-150.36
-143.44
-123.99
-93.31
-55.29
-15.25
21.64
51.77
73.51
87.10
93.82
95.27
92.96
88.21
82.27
76.35
71.50
68.46
67.47
68.24
70.04
71.98
73.26
73.28
71.80
68.85
64.63
59.38
53.26
46.35
38.69
30.25
20.98
10.90
0.07
-11.25
-22.63
-33.52
-43.35
-51.82
-59.01
-65.45
-72.00
-79.74
-89.65
-102.30
-117.31
-133.00
-146.31
-153.26
-150.14
-134.71
-107.40
-71.30
-31.43
6.83
39.19
63.42
79.24
87.86
90.97
90.23
87.00
82.41
77.49
73.21
70.28
69.06
69.33
70.46
71.66
72.26
71.98
70.82
68.98
66.52
63.29
58.95
53.24
46.15
38.00
29.33
20.63
12.06
3.46
-5.57
-15.29
-25.65
-36.15
-46.04
-54.69
-61.87
-67.94
-73.87
-81.05
-90.87
-104.18
-120.66
-138.35
-153.65
-162.05
-159.41
-143.45
-114.74
-76.68
-34.67
5.61
39.67
65.13
81.65
90.40
93.13
91.63
87.52
82.27
77.20
73.42
71.57
71.63
73.00
74.68
75.77
75.79
74.81
73.35
71.96
70.83
69.59
67.39
63.25
56.53
47.30
36.40
25.12
14.71
5.79
-1.87
-9.25
-17.51
-27.45
-39.08
-51.66
-64.03
-75.19
-84.72
-92.94
-100.76
-109.40
-119.97
-132.97
-147.77
-162.22
-172.78
-175.20
-165.78
-142.86
-107.61
-64.10
-18.11
24.49
59.39
84.66
100.57
108.83
111.51
110.36
106.69
101.63
96.24
91.71
89.04
88.71
90.39
93.06
95.42
96.42
95.67
93.49
90.62
87.75
85.13
82.44
78.92
73.74
66.40
56.95
46.10
34.95
24.64
15.82
8.46
1.86
-4.98
-12.88
-22.08
-32.09
-41.98
-50.80
-58.03
-63.82
-68.91
-74.50
-81.93
-92.42
-106.62
-124.13
-143.07
-160.00
-170.49
-170.33
-156.89
-130.22
-93.30
-51.23
-9.75
26.37
54.32
73.45
84.66
89.58
89.82
86.80
81.78
76.08
71.08
67.95
67.28
68.85
71.67
74.42
75.95
75.78
74.18
71.89
69.71
67.91
66.10
63.35
58.63
51.31
41.56
30.37
19.15
9.19
1.08
-5.53
-11.61
-18.31
-26.33
-35.59
-45.37
-54.67
-62.68
-69.21
-74.71
-80.18
-86.85
-95.94
-108.21
-123.54
-140.41
-155.81
-165.64
-165.83
-153.72
-129.15
-94.76
-55.31
-16.21
17.99
44.59
62.93
73.86
78.93
79.76
77.86
74.61
71.37
69.40
69.56
72.03
76.17
80.71
84.26
85.83
85.25
83.14
80.52
78.22
76.53
74.91
72.34
67.80
60.76
51.49
41.02
30.66
21.49
13.87
7.26
0.52
-7.53
-17.56
-29.30
-41.75
-53.48
-63.39
-71.08
-77.07
-82.61
-89.37
-98.88
-111.98
-128.26
-145.64
-160.45
-168.17
-164.70
-147.82
-118.15
-79.27
-36.59
4.12
38.40
63.94
80.54
89.51
92.69
91.90
88.65
84.29
80.04
76.95
75.70
76.41
78.50
80.96
82.72
83.08
81.94
79.82
77.50
75.52
73.84
71.74
68.12
62.06
53.31
42.50
30.89
19.85
10.22
2.05
-5.33
-12.94
-21.50
-31.15
-41.37
-51.23
-59.85
-66.76
-72.12
-76.71
-81.82
-88.89
-99.13
-112.88
-129.12
-145.19
-157.16
-160.65
-152.32
-131.05
-98.60
-59.19
-18.28
19.03
49.28
71.02
84.55
91.09
92.14
89.08
83.27
76.16
69.26
63.98
61.21
61.06
62.84
65.32
67.25
67.80
66.79
64.60
61.84
58.90
55.73
51.78
46.38
39.10
30.13
20.30
10.74
2.42
-4.30
-9.90
-15.37
-21.78
-29.68
-38.88
-48.52
-57.49
-64.99
-70.89
-75.88
-81.19
-88.30
-98.40
-111.97
-128.23
-144.92
-158.41
-164.45
-159.37
-141.40
-111.51
-73.27
-31.94
7.12
39.80
64.03
79.69
87.95
90.49
88.94
84.74
79.18
73.60
69.24
67.08
67.47
70.00
73.61
76.91
78.75
78.62
76.78
73.98
71.01
68.16
65.03
60.70
54.24
45.23
34.11
22.07
10.66
1.08
-6.26
-11.88
-16.94
-22.74
-30.04
-38.87
-48.50
-57.91
-66.16
-72.91
-78.55
-84.06
-90.82
-100.14
-112.80
-128.49
-145.38
-160.16
-168.58
-166.57
-151.61
-123.83
-86.17
-43.66
-1.96
34.22
62.17
81.33
92.71
98.00
98.84
96.60
92.43
87.50
83.03
80.08
79.22
80.30
82.56
84.90
86.33
86.33
84.92
82.57
79.79
76.93
73.85
70.04
64.84
57.69
48.51
37.81
26.59
16.03
7.03
-0.17
-6.06
-11.65
-18.00
-25.76
-34.85
-44.57
-53.87
-61.85
-68.19
-73.24
-77.97
-83.70
-91.74
-102.99
-117.59
-134.42
-150.95
-163.39
-167.52
-159.89
-139.15
-106.71
-66.66
-24.53
14.23
45.73
68.22
81.96
88.39
89.25
86.18
80.58
73.84
67.36
62.47
60.06
60.25
62.37
65.24
67.63
68.81
68.69
67.68
66.27
64.58
62.24
58.48
52.63
44.46
34.46
23.60
12.99
3.43
-4.95
-12.59
-20.27
-28.62
-37.84
-47.51
-56.86
-65.08
-71.75
-77.09
-81.95
-87.69
-95.70
-106.89
-121.06
-136.52
-150.01
-157.34
-154.55
-139.25
-111.63
-74.68
-33.36
6.83
41.35
67.63
85.05
94.50
97.55
95.83
90.82
83.93
76.67
70.51
66.79
66.24
68.77
73.41
78.66
83.10
85.78
86.50
85.60
83.52
80.32
75.59
68.63
58.94
46.70
32.89
19.05
6.68
-3.34
-11.05
-17.33
-23.54
-30.82
-39.64
-49.60
-59.68
-68.70
-75.84
-81.11
-85.36
-90.16
-97.29
-108.19
-123.26
-141.23
-159.06
-172.25
-176.05
-166.87
-143.70
-108.62
-66.38
-22.86
16.53
48.28
71.15
85.77
93.75
96.76
96.25
93.39
89.30
85.20
82.24
81.17
82.07
84.31
86.78
88.40
88.49
87.06
84.62
81.88
79.24
76.59
73.26
68.37
61.20
51.61
40.19
28.08
16.60
6.66
-1.53
-8.63
-15.80
-24.14
-34.22
-45.73
-57.74
-69.08
-78.92
-87.14
-94.31
-101.47
-109.79
-120.18
-132.89
-147.19
-160.96
-170.91
-173.04
-163.94
-141.97
-108.17
-66.21
-21.40
20.85
56.44
83.36
101.53
112.20
117.06
117.80
115.90
112.75
109.52
107.13
105.97
105.83
106.01
105.58
103.85
100.49
95.70
89.92
83.58
76.92
69.84
61.95
52.74
41.84
29.21
15.40
1.36
-11.77
-23.26
-33.03
-41.76
-50.40
-59.62
-69.29
-78.59
-86.44
-92.23
-96.32
-100.07
-105.36
-114.01
-127.07
-144.36
-164.19
-183.43
-197.87
-203.08
-195.63
-174.29
-140.72
-99.30
-55.87
-16.18
15.74
38.25
51.88
58.50
60.29
59.11
56.37
53.18
50.58
49.41
50.20
52.87
56.83
61.19
65.20
68.53
71.27
73.68
75.86
77.57
78.30
77.58
75.16
71.28
66.43
61.17
55.78
50.23
44.28
37.65
30.31
22.49
14.60
6.98
-0.24
-7.27
-14.71
-23.44
-34.45
-48.47
-65.40
-83.73
-100.42
-111.27
-112.13
-100.42
-76.28
-42.85
-5.42
30.28
59.80
80.97
93.90
100.08
101.27
98.73
93.19
85.23
75.75
66.14
57.96
52.35
49.66
49.28
49.95
50.33
49.43
46.89
42.88
37.96
32.69
27.47
22.37
17.15
11.42
4.82
-2.78
-11.19
-19.93
-28.39
-36.02
-42.57
-48.18
-53.37
-59.03
-66.24
-76.14
-89.51
-106.24
-124.78
-141.97
-153.49
-155.03
-143.69
-119.21
-84.34
-44.11
-4.36
29.99
56.10
73.48
83.32
87.50
87.66
84.92
80.07
74.00
67.91
63.22
61.05
61.78
64.77
68.61
71.60
72.43
70.56
66.28
60.44
54.00
47.66
41.59
35.40
28.31
19.56
8.64
-4.28
-18.43
-32.62
-45.66
-56.76
-65.80
-73.35
-80.52
-88.69
-99.20
-112.97
-129.91
-148.39
-165.03
-175.21
-174.24
-159.05
-129.52
-88.95
-43.14
1.29
38.95
66.94
85.01
94.82
98.68
98.57
95.85
91.40
86.06
80.81
76.68
74.40
74.12
75.29
76.95
78.01
77.63
75.45
71.55
66.42
60.65
54.79
49.12
43.48
37.39
30.20
21.36
10.69
-1.45
-14.31
-27.02
-38.83
-49.36
-58.63
-67.05
-75.34
-84.49
-95.56
-109.28
-125.36
-141.98
-155.57
-161.56
-155.73
-135.86
-102.91
-60.95
-16.07
25.58
59.49
83.71
98.74
106.48
109.17
108.63
106.05
102.18
97.72
93.33
89.60
86.84
84.93
83.40
81.62
79.16
75.91
72.05
67.81
63.30
58.34
52.62
45.89
38.10
29.39
19.95
9.88
-0.89
-12.37
-24.37
-36.37
-47.63
-57.48
-65.69
-72.64
-79.29
-86.90
-96.75
-109.74
-125.97
-144.27
-161.96
-175.00
-178.80
-169.68
-146.31
-110.57
-67.23
-22.61
17.38
48.79
70.29
82.75
88.11
88.34
84.92
78.89
71.25
63.25
56.33
51.77
50.25
51.58
54.75
58.29
60.89
61.77
60.89
58.78
56.15
53.36
50.18
45.83
39.32
29.93
17.58
3.05
-12.30
-26.96
-39.79
-50.36
-58.93
-66.38
-73.79
-82.29
-92.81
-105.84
-120.94
-136.38
-149.04
-154.89
-150.21
-132.90
-103.58
-65.70
-24.63
13.99
45.82
68.74
82.91
89.98
92.11
91.21
88.61
85.20
81.65
78.61
76.59
75.84
76.13
76.80
77.02
76.08
73.62
69.68
64.55
58.54
51.92
44.90
37.62
30.19
22.59
14.65
6.04
-3.46
-13.78
-24.45
-34.74
-43.91
-51.63
-58.09
-64.05
-70.61
-78.97
-90.16
-104.65
-121.83
-139.71
-154.81
-162.74
-159.50
-142.79
-113.17
-74.17
-31.28
9.69
44.24
70.14
87.44
97.60
102.60
104.08
103.19
100.71
97.33
93.72
90.41
87.69
85.45
83.38
81.15
78.64
76.02
73.57
71.43
69.35
66.78
62.97
57.35
49.83
40.84
31.12
21.38
11.95
2.65
-7.00
-17.49
-28.89
-40.76
-52.30
-62.68
-71.43
-78.66
-85.08
-91.84
-100.30
-111.65
-126.32
-143.33
-159.94
-171.91
-174.47
-164.00
-139.48
-103.22
-60.19
-16.55
22.31
53.08
74.83
88.48
95.69
98.18
97.27
94.10
89.75
85.36
81.84
79.65
78.67
78.26
77.65
76.29
74.08
71.33
68.48
65.74
62.92
59.38
54.39
47.50
38.78
28.89
18.72
9.04
0.12
-8.32
-16.87
-26.07
-36.04
-46.38
-56.38
-65.32
-72.87
-79.30
-85.47
-92.68
-102.32
-115.36
-131.61
-149.25
-164.74
-173.45
-171.03
-154.95
-125.54
-86.16
-42.20
0.55
37.45
65.95
85.59
97.32
102.73
103.46
101.00
96.74
92.09
88.21
85.86
85.10
85.33
85.53
84.73
82.49
79.06
75.21
71.76
69.13
67.02
64.51
60.43
53.99
45.12
34.56
23.64
13.58
5.06
-2.10
-8.79
-16.09
-24.75
-34.73
-45.34
-55.61
-64.72
-72.48
-79.33
-86.24
-94.47
-105.18
-119.08
-135.87
-153.72
-169.16
-177.59
-174.63
-157.67
-127.16
-86.74
-42.22
0.21
35.82
62.34
79.77
89.64
93.83
94.02
91.46
87.26
82.58
78.54
75.92
74.79
74.59
74.28
73.05
70.64
67.48
64.38
61.98
60.28
58.50
55.44
49.98
41.73
31.21
19.71
8.69
-0.74
-8.30
-14.56
-20.54
-27.28
-35.27
-44.35
-53.82
-62.82
-70.77
-77.60
-83.86
-90.64
-99.27
-110.81
-125.35
-141.41
-155.72
-163.80
-161.19
-145.13
-115.71
-76.18
-32.00
10.75
47.23
74.82
93.32
104.16
109.49
111.27
110.93
109.37
107.16
104.69
102.28
100.09
98.02
95.80
93.07
89.60
85.34
80.43
75.05
69.20
62.63
54.92
45.69
34.91
22.98
10.62
-1.35
-12.41
-22.51
-32.08
-41.71
-51.79
-62.27
-72.60
-82.03
-89.99
-96.48
-102.20
-108.47
-116.85
-128.54
-143.61
-160.43
-175.54
-184.26
-181.97
-165.72
-135.44
-94.27
-47.78
-2.27
36.95
66.80
86.64
97.67
101.92
101.44
97.87
92.53
86.60
81.23
77.35
75.44
75.26
75.96
76.41
75.82
74.06
71.67
69.46
67.94
66.88
65.35
62.04
56.04
47.15
36.16
24.44
13.45
4.08
-3.58
-10.24
-16.96
-24.65
-33.63
-43.51
-53.39
-62.31
-69.69
-75.66
-81.00
-87.03
-95.16
-106.38
-120.64
-136.41
-150.50
-158.69
-156.74
-141.85
-113.87
-75.57
-32.00
10.97
48.29
76.87
95.84
106.07
109.31
107.48
102.31
95.37
88.11
81.88
77.70
76.00
76.44
78.10
79.80
80.60
80.09
78.42
76.03
73.33
70.34
66.75
62.00
55.62
47.51
38.01
27.87
17.96
9.00
1.20
-5.76
-12.67
-20.35
-29.22
-39.13
-49.29
-58.67
-66.48
-72.57
-77.54
-82.62
-89.25
-98.67
-111.35
-126.50
-141.92
-154.10
-158.94
-152.95
-134.44
-104.30
-66.08
-24.90
13.95
46.40
70.48
86.08
94.35
96.85
94.98
89.90
82.77
74.89
67.65
62.27
59.37
58.78
59.68
60.96
61.74
61.61
60.65
59.06
56.90
53.88
49.46
43.23
35.21
25.97
16.43
7.40
-0.74
-8.24
-15.70
-23.79
-32.71
-42.13
-51.29
-59.39
-65.99
-71.32
-76.25
-82.06
-90.08
-101.11
-115.04
-130.42
-144.44
-153.33
-153.28
-141.65
-118.01
-84.51
-45.47
-6.10
28.95
56.69
76.05
87.61
92.71
92.86
89.42
83.65
76.86
70.34
65.28
62.35
61.61
62.55
64.33
66.16
67.43
67.89
67.45
66.02
63.38
59.25
53.40
45.82
36.89
27.27
17.64
8.37
-0.62
-9.89
-20.09
-31.60
-44.25
-57.37
-69.98
-81.31
-91.08
-99.66
-108.06
-117.65
-129.67
-144.72
-162.01
-179.10
-192.04
-196.29
-188.16
-166.21
-131.98
-89.79
-45.45
-4.64
28.61
52.47
67.18
74.21
75.46
72.70
67.49
61.23
55.29
50.94
49.08
50.00
53.32
58.12
63.38
68.31
72.53
75.92
78.41
79.69
79.23
76.50
71.27
63.94
55.31
46.30
37.47
28.81
19.79
9.74
-1.65
-14.18
-27.10
-39.49
-50.63
-60.29
-68.75
-76.79
-85.48
-95.94
-108.93
-124.35
-140.70
-154.94
-163.06
-161.12
-146.77
-120.19
-84.35
-44.09
-4.78
29.19
55.29
72.89
82.79
86.50
85.72
82.11
77.24
72.55
69.22
67.89
68.58
70.69
73.27
75.50
76.99
77.94
78.95
80.57
82.96
85.65
87.75
88.27
86.53
82.39
76.19
68.58
60.13
51.16
41.66
31.37
20.01
7.51
-5.85
-19.46
-32.57
-44.66
-55.71
-66.33
-77.68
-91.11
-107.47
-126.56
-146.56
-164.14
-175.04
-175.19
-162.03
-135.52
-98.27
-54.98
-11.06
28.79
61.45
85.73
101.81
110.71
113.72
112.25
107.93
102.55
97.89
95.33
95.47
98.01
101.98
106.22
109.91
112.79
115.08
117.14
119.13
120.70
121.00
118.89
113.42
104.14
91.40
76.28
60.19
44.46
29.79
16.21
3.16
-9.98
-23.49
-37.05
-49.89
-61.15
-70.32
-77.48
-83.33
-88.87
-94.96
-101.92
-109.35
-116.11
-120.53
-120.70
-114.83
-101.71
-81.16
-54.37
-23.87
6.87
34.29
55.64
69.63
76.54
77.84
75.45
71.14
66.20
61.39
57.17
53.79
51.32
49.65
48.52
47.59
46.52
45.00
42.78
39.64
35.43
30.10
23.82
16.89
9.71
2.58
-4.38
-11.34
-18.54
-26.30
-34.72
-43.69
-52.78
-61.42
-69.11
-75.57
-80.95
-85.81
-91.01
-97.50
-105.98
-116.53
-128.27
-139.18
-146.35
-146.48
-136.95
-116.73
-87.00
-51.07
-13.54
20.94
48.92
68.81
80.82
86.34
87.14
84.79
80.46
75.11
69.59
64.81
61.53
60.10
60.32
61.46
62.51
62.59
61.17
58.18
53.86
48.58
42.67
36.27
29.42
22.06
14.09
5.52
-3.61
-13.15
-22.86
-32.47
-41.66
-50.20
-57.99
-65.09
-71.85
-78.85
-86.85
-96.57
-108.35
-121.69
-134.89
-145.11
-148.89
-143.10
-126.13
-98.63
-63.64
-25.74
10.17
40.23
62.47
76.76
84.33
86.94
86.24
83.53
79.81
75.93
72.65
70.52
69.79
70.22
71.24
72.11
72.22
71.30
69.34
66.53
63.00
58.69
53.35
46.77
38.86
29.91
20.38
10.81
1.51
-7.56
-16.68
-26.12
-35.89
-45.64
-54.77
-62.75
-69.46
-75.33
-81.32
-88.69
-98.48
-111.08
-125.74
-140.31
-151.45
-155.36
-148.86
-130.58
-101.67
-65.62
-27.35
8.29
37.72
59.41
73.68
81.94
85.93
87.12
86.57
85.11
83.49
82.32
81.95
82.27
82.72
82.54
81.18
78.58
75.21
71.87
69.11
67.01
64.94
61.86
56.79
49.26
39.60
28.74
17.89
8.00
-0.57
-8.18
-15.61
-23.66
-32.68
-42.48
-52.34
-61.47
-69.37
-76.16
-82.54
-89.70
-98.84
-110.79
-125.47
-141.53
-156.17
-165.61
-165.89
-154.20
-129.95
-95.34
-54.82
-13.92
22.45
51.15
71.33
83.91
90.71
93.48
93.48
91.51
88.24
84.47
81.07
78.82
78.04
78.43
79.27
79.71
79.18
77.55
74.96
71.60
67.42
62.11
55.27
46.76
36.85
26.23
15.73
5.93
-3.05
-11.59
-20.24
-29.38
-38.97
-48.53
-57.42
-65.15
-71.76
-77.85
-84.54
-93.11
-104.53
-118.88
-134.88
-149.80
-159.78
-160.86
-150.15
-127.00
-93.46
-53.82
-13.35
23.17
52.58
73.84
87.53
95.14
98.26
98.18
95.90
92.31
88.36
84.84
82.32
80.82
79.99
79.26
78.19
76.63
74.72
72.61
70.27
67.37
63.33
57.72
50.39
41.63
32.15
22.64
13.52
4.85
-3.80
-12.96
-22.99
-33.78
-44.78
-55.12
-64.00
-71.13
-76.83
-82.10
-88.32
-96.91
-108.73
-123.59
-139.74
-153.98
-162.13
-160.22
-145.82
-119.09
-82.95
-42.36
-2.79
31.32
57.57
75.70
86.97
93.09
95.55
95.43
93.49
90.50
87.36
84.83
83.37
82.84
82.60
81.87
80.10
77.26
73.70
69.94
66.23
62.38
57.81
51.82
43.98
34.39
23.72
12.96
3.04
-5.58
-13.04
-20.06
-27.46
-35.80
-44.97
-54.31
-62.84
-69.78
-75.04
-79.29
-83.86
-90.33
-99.94
-113.03
-128.58
-143.97
-155.41
-158.71
-150.60
-129.88
-98.08
-59.22
-18.60
18.65
48.93
70.73
84.39
91.28
93.07
91.25
87.10
81.84
76.72
72.93
71.24
71.77
73.90
76.57
78.65
79.39
78.68
76.87
74.46
71.68
68.25
63.53
56.81
47.84
37.07
25.58
14.62
5.06
-2.92
-9.95
-16.99
-24.83
-33.71
-43.19
-52.44
-60.60
-67.28
-72.76
-77.97
-84.31
-93.20
-105.60
-121.43
-139.04
-155.18
-165.55
-165.89
-153.47
-128.10
-92.55
-51.68
-11.03
24.80
53.10
73.20
85.93
92.74
95.09
94.24
91.31
87.49
83.95
81.62
80.92
81.61
82.93
83.89
83.75
82.28
79.83
77.06
74.51
72.24
69.63
65.65
59.32
50.30
39.12
27.10
15.78
6.30
-1.16
-7.35
-13.61
-21.13
-30.37
-40.84
-51.42
-60.85
-68.39
-74.17
-79.11
-84.61
-92.14
-102.76
-116.71
-133.05
-149.41
-162.15
-167.03
-160.39
-140.60
-108.81
-68.98
-26.74
12.36
44.35
67.62
82.64
91.01
94.48
94.45
91.98
88.06
83.85
80.44
78.59
78.33
79.00
79.53
79.00
77.05
73.98
70.50
67.25
64.45
61.69
58.14
52.90
45.54
36.30
26.10
16.21
7.74
1.16
-3.89
-8.43
-13.71
-20.58
-29.18
-38.87
-48.54
-57.18
-64.33
-70.35
-76.34
-83.79
-94.02
-107.66
-124.17
-141.53
-156.47
-164.99
-163.37
-149.41
-123.26
-87.67
-47.27
-7.30
27.82
55.48
75.08
87.46
94.09
96.33
95.22
91.65
86.69
81.64
77.82
76.08
76.48
78.16
79.77
80.12
78.66
75.68
72.06
68.69
65.95
63.43
60.15
55.11
47.77
38.42
28.09
18.06
9.37
2.30
-3.71
-9.70
-16.76
-25.46
-35.59
-46.28
-56.43
-65.12
-72.05
-77.64
-82.87
-89.10
-97.61
-109.32
-124.26
-141.10
-157.02
-167.95
-169.62
-158.87
-134.94
-100.01
-58.71
-16.71
20.93
51.01
72.53
86.26
93.80
96.71
96.24
93.41
89.25
85.00
81.82
80.47
81.00
82.70
84.41
85.03
84.05
81.70
78.76
76.10
74.09
72.38
69.97
65.66
58.65
48.91
37.28
25.14
13.88
4.36
-3.34
-9.92
-16.48
-23.99
-32.87
-42.84
-53.05
-62.45
-70.30
-76.51
-81.73
-87.15
-94.18
-103.94
-116.90
-132.42
-148.55
-162.09
-169.09
-165.89
-150.29
-122.58
-85.67
-44.45
-4.42
29.86
55.84
73.14
83.01
87.35
87.95
86.17
82.99
79.35
76.23
74.51
74.65
76.52
79.33
82.03
83.73
84.07
83.14
81.32
78.81
75.41
70.57
63.69
54.51
43.40
31.34
19.54
9.06
0.31
-7.07
-13.99
-21.46
-30.13
-39.88
-49.93
-59.18
-66.75
-72.46
-77.02
-81.86
-88.77
-99.19
-113.57
-130.83
-148.20
-161.58
-166.53
-159.64
-139.71
-108.38
-69.76
-29.24
8.18
39.05
62.09
77.70
87.22
92.09
93.44
92.23
89.45
86.25
83.76
82.73
83.19
84.45
85.37
85.02
83.11
80.06
76.77
74.02
72.01
70.10
67.12
61.85
53.64
42.76
30.39
18.28
8.09
0.86
-3.30
-5.38
-6.93
-9.60
-14.44
-21.62
-30.37
-39.54
-48.17
-56.04
-63.83
-72.89
-84.71
-100.13
-118.77
-138.47
-155.62
-165.73
-164.77
-150.50
-123.45
-87.01
-46.48
-7.59
25.24
49.75
65.89
75.06
79.03
79.20
76.51
71.72
65.88
60.54
57.47
58.10
62.96
71.33
81.53
91.46
99.36
104.26
106.09
105.27
102.20
96.88
88.84
77.48
62.62
44.82
25.38
6.02
-11.79
-27.15
-39.92
-50.39
-58.91
-65.53
-69.98
-71.95
-71.44
-69.08
-66.08
-64.02
-64.44
-68.51
-76.74
-88.76
-103.13
-117.30
-127.92
-131.50
-125.45
-108.94
-83.42
-52.31
-20.02
9.25
32.60
48.82
58.27
62.21
62.25
59.87
56.32
52.68
49.94
48.92
50.08
53.37
58.02
62.74
66.02
66.55
63.56
57.08
47.86
37.12
26.11
15.81
6.54
-2.02
-10.65
-20.18
-31.07
-43.17
-55.65
-67.43
-77.51
-85.47
-91.61
-96.84
-102.51
-110.07
-120.69
-134.81
-151.71
-169.11
-183.34
-190.07
-185.62
-168.17
-138.61
-100.42
-58.63
-18.36
16.61
44.42
65.12
79.83
89.99
96.85
101.28
103.96
105.53
106.72
108.09
109.88
111.86
113.47
114.08
113.37
111.49
108.99
106.43
104.01
101.36
97.62
91.85
83.48
72.76
60.65
48.52
37.57
28.25
20.16
12.27
3.44
-6.94
-18.62
-30.67
-41.88
-51.37
-59.04
-65.66
-72.63
-81.63
-93.95
-110.04
-128.85
-147.67
-162.33
-168.19
-161.51
-140.93
-108.13
-67.58
-25.18
13.55
44.89
67.50
81.97
89.88
92.94
92.46
89.53
85.24
80.86
77.61
76.36
77.25
79.64
82.31
84.08
84.28
83.06
81.18
79.57
78.70
78.27
77.27
74.49
69.13
61.18
51.59
41.71
32.77
25.26
18.78
12.33
4.80
-4.38
-14.97
-26.06
-36.46
-45.22
-52.11
-57.71
-63.29
-70.47
-80.76
-95.03
-112.88
-132.26
-149.45
-159.77
-158.85
-144.16
-116.12
-78.28
-36.27
3.88
37.48
62.16
77.93
86.30
89.32
88.84
86.28
82.79
79.44
77.23
76.80
78.23
80.88
83.64
85.38
85.42
83.73
80.94
77.88
75.09
72.52
69.48
65.02
58.41
49.62
39.36
28.81
19.03
10.52
3.00
-4.44
-12.78
-22.53
-33.42
-44.47
-54.48
-62.58
-68.64
-73.47
-78.54
-85.64
-96.29
-111.14
-129.37
-148.38
-164.00
-171.36
-166.36
-147.14
-114.95
-74.05
-30.39
10.15
43.35
67.42
82.78
91.11
94.40
94.31
91.96
88.25
84.02
80.10
77.16
75.54
75.11
75.37
75.70
75.57
74.70
73.01
70.48
66.98
62.31
56.25
48.80
40.18
30.82
21.15
11.41
1.59
-8.42
-18.69
-29.08
-39.27
-48.84
-57.54
-65.45
-73.02
-81.10
-90.72
-102.81
-117.66
-134.39
-150.58
-162.41
-165.56
-156.57
-134.32
-100.67
-60.08
-18.35
19.20
49.06
70.06
83.03
89.75
92.12
91.61
89.22
85.70
81.75
78.11
75.38
73.86
73.40
73.52
73.50
72.73
70.83
67.79
63.86
59.37
54.54
49.33
43.43
36.36
27.68
17.19
5.10
-7.91
-20.95
-33.04
-43.53
-52.24
-59.51
-66.11
-72.99
-81.13
-91.38
-104.18
-119.21
-135.01
-148.82
-156.90
-155.45
-141.98
-116.32
-81.05
-40.87
-1.17
33.52
60.57
79.42
91.03
97.01
98.91
97.94
95.07
91.28
87.60
84.95
83.84
84.23
85.50
86.86
87.61
87.47
86.52
85.01
83.10
80.63
77.18
72.22
65.35
56.49
45.86
33.90
21.14
7.99
-5.24
-18.36
-31.17
-43.37
-54.58
-64.47
-72.85
-79.90
-86.22
-92.77
-100.67
-110.75
-123.07
-136.52
-148.79
-156.66
-156.98
-147.64
-128.54
-101.69
-70.79
-40.04
-12.99
8.24
23.12
32.16
36.29
36.39
33.20
27.55
20.64
13.99
9.16
7.29
8.61
12.42
17.35
21.88
24.90
25.93
25.20
23.29
20.83
18.11
14.99
10.98
5.51
-1.79
-10.85
-21.12
-31.71
-41.66
-50.22
-57.10
-62.52
-67.18
-72.09
-78.42
-87.24
-99.05
-113.36
-128.24
-140.39
-145.75
-140.73
-123.44
-94.67
-57.84
-18.07
19.38
50.56
73.66
88.88
97.72
101.99
103.14
102.09
99.49
95.95
92.29
89.41
88.04
88.39
90.14
92.46
94.37
94.94
93.56
89.97
84.30
76.87
68.14
58.54
48.42
37.94
27.14
15.89
4.06
-8.38
-21.16
-33.76
-45.55
-55.97
-64.85
-72.53
-79.86
-88.00
-98.24
-111.55
-128.05
-146.43
-163.71
-175.55
-177.40
-165.92
-140.35
-103.13
-59.22
-14.67
25.23
57.19
80.26
95.25
103.76
107.42
107.54
105.21
101.54
97.69
94.66
93.07
92.92
93.66
94.51
94.84
94.42
93.37
91.98
90.37
88.28
85.12
80.24
73.23
64.13
53.39
41.64
29.32
16.58
3.33
-10.45
-24.37
-37.67
-49.47
-59.19
-66.89
-73.31
-79.60
-86.96
-96.38
-108.39
-122.89
-138.68
-153.22
-162.70
-162.89
-150.47
-124.50
-87.15
-43.32
0.85
39.81
70.00
90.33
101.68
105.91
104.99
100.62
94.21
87.14
80.71
76.04
73.69
73.52
74.80
76.49
77.72
78.04
77.47
76.24
74.47
71.98
68.31
62.91
55.47
46.16
35.69
25.09
15.37
7.07
-0.00
-6.62
-13.84
-22.35
-32.19
-42.58
-52.35
-60.47
-66.57
-71.16
-75.47
-81.05
-89.30
-100.89
-115.33
-130.69
-143.66
-150.16
-146.42
-130.27
-102.09
-64.97
-23.99
15.27
48.24
72.41
87.42
94.53
95.67
92.66
86.94
79.70
72.08
65.30
60.52
58.37
58.77
60.83
63.21
64.73
64.77
63.47
61.43
59.26
57.09
54.50
50.68
44.88
36.86
27.08
16.57
6.50
-2.31
-9.67
-16.07
-22.42
-29.55
-37.85
-47.06
-56.45
-65.15
-72.60
-78.79
-84.23
-89.85
-96.69
-105.58
-116.84
-129.90
-143.07
-153.55
-157.91
-153.03
-137.15
-110.64
-76.22
-38.23
-1.49
29.99
53.79
69.21
76.95
78.48
75.58
70.04
63.65
58.08
54.73
54.52
57.61
63.28
70.07
76.16
79.95
80.48
77.63
72.05
64.73
56.60
48.21
39.70
30.92
21.66
11.83
1.51
-9.09
-19.67
-29.89
-39.32
-47.57
-54.40
-59.89
-64.49
-69.07
-74.72
-82.58
-93.41
-107.07
-122.07
-135.48
-143.38
-141.93
-128.65
-103.53
-69.24
-30.50
7.35
39.87
64.47
80.57
89.07
91.44
89.22
83.73
76.25
68.16
60.94
55.92
53.87
54.78
57.81
61.70
65.13
67.12
67.22
65.43
62.00
57.29
51.60
45.14
38.02
30.29
21.98
13.04
3.48
-6.58
-16.92
-27.19
-36.96
-45.89
-53.75
-60.59
-66.75
-72.94
-80.15
-89.38
-101.14
-114.97
-128.96
-139.90
-143.95
-137.77
-119.86
-91.20
-55.27
-16.99
18.66
47.98
69.33
82.84
89.86
92.03
90.80
87.25
82.40
77.32
73.12
70.69
70.39
71.92
74.41
76.77
78.02
77.58
75.25
71.17
65.56
58.69
50.78
41.91
32.06
20.99
8.37
-6.15
-22.63
-40.72
-59.70
-78.54
-96.24
-112.08
-125.69
-137.13
-146.84
-155.56
-164.37
-174.29
-185.72
-197.76
-207.82
-212.00
-206.17
-187.59
-156.11
-114.52
-67.75
-21.34
20.17
54.12
79.91
98.34
110.87
118.95
123.82
126.47
127.79
128.54
129.31
130.43
131.86
133.16
133.62
132.51
129.33
123.92
116.58
107.92
98.64
89.28
80.19
71.33
62.36
52.71
41.72
28.90
14.14
-2.12
-18.93
-35.09
-49.47
-61.39
-70.85
-78.53
-85.61
-93.50
-103.44
-115.98
-130.47
-144.74
-155.18
-157.63
-148.61
-126.76
-93.60
-53.42
-11.97
25.20
54.37
74.26
85.74
90.77
91.35
88.80
83.89
77.18
69.49
62.02
56.00
52.33
51.21
52.19
54.42
57.07
59.55
61.50
62.59
62.46
60.61
56.70
50.66
42.83
33.88
24.55
15.39
6.68
-1.61
-9.64
-17.52
-25.28
-32.79
-39.85
-46.34
-52.30
-58.02
-64.15
-71.60
-81.13
-92.83
-105.57
-116.76
-122.74
-119.79
-105.45
-79.66
-45.09
-6.50
30.61
61.52
83.43
95.84
100.01
98.12
92.33
84.34
75.30
66.01
57.19
49.45
43.18
38.33
34.38
30.51
25.99
20.46
13.99
7.04
0.15
-6.26
-11.99
-17.08
-21.67
-26.07
-30.52
-35.17
-40.02
-44.89
-49.58
-54.00
-58.30
-62.85
-68.09
-74.40
-82.01
-91.12
-101.99
-114.90
-129.84
-145.82
-160.57
-170.55
-171.76
-161.09
-137.59
-103.07
-61.78
-19.21
19.53
50.96
73.69
88.08
95.51
97.55
95.70
91.31
85.79
80.59
76.99
75.81
77.16
80.48
84.75
88.89
92.09
93.89
94.04
92.49
89.23
84.26
77.67
69.65
60.48
50.41
39.60
28.11
16.02
3.46
-9.17
-21.33
-32.44
-42.16
-50.57
-58.20
-65.93
-74.83
-85.97
-100.14
-117.45
-136.79
-155.54
-169.66
-174.56
-166.57
-144.33
-109.64
-67.17
-22.98
17.18
49.48
72.55
87.04
94.73
97.54
97.07
94.51
91.00
87.62
85.48
85.31
87.27
90.85
95.03
98.74
101.14
101.86
100.89
98.37
94.29
88.53
80.90
71.50
60.79
49.55
38.64
28.52
19.19
10.06
0.38
-10.40
-22.32
-34.85
-47.09
-58.20
-67.77
-76.01
-83.82
-92.62
-103.96
-118.87
-137.18
-156.86
-174.00
-183.67
-181.30
-164.42
-133.76
-93.28
-48.95
-6.92
28.25
54.45
71.93
82.32
87.63
89.55
89.24
87.59
85.39
83.46
82.37
82.36
83.17
84.27
85.13
85.48
85.34
84.80
83.80
81.87
78.26
72.28
63.64
52.73
40.60
28.46
17.29
7.37
-1.75
-10.96
-21.07
-32.42
-44.65
-56.99
-68.55
-78.88
-88.13
-97.16
-107.30
-120.03
-136.37
-156.33
-178.24
-198.69
-212.95
-216.21
-205.13
-179.19
-141.12
-96.15
-50.43
-9.21
24.42
49.71
67.64
79.84
87.76
92.46
94.75
95.53
95.93
96.99
99.32
102.72
106.29
108.86
109.60
108.36
105.68
102.32
98.77
94.95
90.18
83.70
75.10
64.64
53.23
41.95
31.61
22.39
13.82
5.13
-4.29
-14.52
-25.11
-35.30
-44.42
-52.27
-59.25
-66.35
-74.94
-86.52
-102.16
-121.90
-144.08
-165.09
-179.92
-183.47
-172.37
-146.39
-108.80
-65.39
-22.55
14.75
44.07
65.47
80.46
90.78
97.64
101.67
103.38
103.61
103.51
104.21
106.23
109.27
112.29
114.12
114.00
111.96
108.75
105.46
102.91
101.24
99.78
97.28
92.42
84.39
73.25
60.00
46.28
33.75
23.47
15.55
9.15
2.93
-4.41
-13.56
-24.42
-36.12
-47.49
-57.56
-65.94
-73.09
-80.18
-88.86
-100.74
-116.88
-137.08
-159.42
-180.15
-194.30
-196.99
-185.02
-158.19
-119.62
-74.94
-30.50
8.53
39.34
61.67
76.97
87.17
93.82
97.79
99.58
99.78
99.21
98.86
99.43
101.02
103.01
104.44
104.45
102.67
99.50
95.72
92.14
89.06
86.07
82.26
76.55
68.29
57.59
45.34
32.86
21.46
11.92
4.23
-2.41
-9.18
-17.20
-27.04
-38.47
-50.52
-61.91
-71.56
-79.08
-84.94
-90.42
-97.21
-106.98
-120.83
-138.65
-158.69
-177.44
-190.22
-192.29
-180.51
-154.49
-117.04
-73.36
-29.40
9.84
41.47
64.88
81.01
91.34
97.22
99.55
99.14
96.92
94.12
92.01
91.49
92.73
95.08
97.35
98.36
97.46
94.76
91.01
87.14
83.75
80.76
77.40
72.62
65.54
55.93
44.38
32.11
20.52
10.66
2.79
-3.63
-9.72
-16.68
-25.29
-35.60
-46.93
-58.20
-68.37
-76.88
-83.91
-90.36
-97.63
-107.30
-120.59
-137.83
-157.83
-177.65
-192.86
-198.59
-191.04
-168.95
-134.27
-91.76
-47.55
-7.22
25.58
49.73
66.08
76.42
82.47
85.35
85.68
83.93
80.81
77.28
74.34
72.64
72.26
72.72
73.38
73.74
73.78
73.84
74.35
75.45
76.73
77.28
75.97
71.95
64.96
55.47
44.59
33.64
23.75
15.45
8.55
2.19
-4.71
-13.02
-22.97
-34.08
-45.37
-55.76
-64.55
-71.70
-77.79
-83.94
-91.56
-102.03
-116.27
-134.22
-154.15
-172.56
-184.70
-185.80
-172.77
-145.49
-107.07
-62.95
-19.17
19.43
50.14
72.52
87.65
97.15
102.50
104.80
104.88
103.49
101.44
99.45
98.08
97.51
97.62
98.00
98.25
98.10
97.48
96.52
95.27
93.63
91.26
87.68
82.47
75.45
66.74
56.71
45.91
34.89
24.20
14.30
5.51
-2.06
-8.59
-14.61
-20.84
-28.03
-36.60
-46.51
-57.19
-67.75
-77.27
-85.20
-91.57
-97.09
-102.99
-110.81
-121.88
-136.70
-154.37
-172.21
-186.03
-191.10
-183.52
-161.72
-127.17
-84.18
-38.55
4.08
39.71
66.61
85.08
96.54
102.70
104.97
104.44
102.05
98.76
95.58
93.28
92.19
92.10
92.42
92.44
91.60
89.73
86.88
83.25
79.00
74.15
68.55
62.01
54.30
45.32
35.08
23.74
11.69
-0.51
-12.14
-22.52
-31.14
-37.86
-42.98
-47.13
-51.11
-55.56
-60.76
-66.53
-72.43
-77.95
-82.91
-87.54
-92.61
-99.19
-108.42
-121.23
-137.71
-156.69
-175.40
-189.67
-194.71
-186.59
-163.63
-127.26
-81.85
-33.54
11.54
48.88
76.32
94.04
103.71
107.53
107.53
105.22
101.77
98.14
95.13
93.43
93.40
94.92
97.35
99.75
101.18
101.09
99.48
96.88
93.95
91.12
88.25
84.74
79.74
72.59
63.12
51.78
39.47
27.24
16.00
6.22
-2.19
-9.84
-17.70
-26.66
-37.20
-49.11
-61.53
-73.24
-83.19
-90.87
-96.48
-100.90
-105.44
-111.60
-120.71
-133.55
-149.77
-167.39
-182.68
-190.84
-187.28
-169.22
-136.96
-94.05
-46.33
-0.23
39.03
68.63
88.20
99.17
103.69
103.75
100.91
96.33
91.10
86.35
83.13
82.07
83.09
85.37
87.64
88.75
88.10
85.85
82.74
79.61
76.90
74.42
71.39
66.76
59.82
50.46
39.33
27.69
16.86
7.80
0.75
-4.85
-10.06
-16.02
-23.50
-32.55
-42.52
-52.35
-61.01
-67.93
-73.23
-77.69
-82.55
-89.17
-98.67
-111.48
-126.86
-142.71
-155.65
-161.68
-157.31
-140.72
-112.60
-76.13
-36.17
2.09
34.54
58.90
74.84
83.42
86.29
85.17
81.46
76.32
70.81
65.90
62.33
60.45
60.05
60.48
60.97
60.95
60.30
59.28
58.26
57.31
56.08
53.78
49.60
43.07
34.41
24.48
14.43
5.27
-2.57
-9.41
-16.02
-23.26
-31.62
-41.00
-50.73
-59.93
-67.90
-74.48
-80.13
-85.86
-93.02
-102.79
-115.71
-131.15
-146.97
-159.69
-165.27
-160.29
-143.15
-114.79
-78.55
-39.26
-1.82
30.12
54.68
71.69
82.10
87.21
88.30
86.52
83.01
78.97
75.51
73.42
72.96
73.76
75.05
76.07
76.36
75.85
74.67
72.96
70.55
67.04
61.94
54.99
46.33
36.48
26.18
16.07
6.47
-2.74
-11.95
-21.59
-31.85
-42.55
-53.17
-63.06
-71.80
-79.36
-86.29
-93.57
-102.47
-114.00
-128.45
-144.90
-160.92
-172.89
-176.86
-169.74
-150.53
-120.83
-84.48
-46.48
-11.60
16.88
37.56
50.68
57.54
59.71
58.70
55.78
52.17
49.05
47.50
48.30
51.68
57.20
63.88
70.49
75.91
79.44
80.84
80.22
77.80
73.82
68.43
61.83
54.27
46.00
37.18
27.84
17.83
7.06
-4.30
-15.81
-26.80
-36.68
-45.20
-52.66
-59.81
-67.78
-77.79
-90.86
-107.24
-126.03
-144.76
-159.58
-166.13
-160.86
-142.39
-112.23
-74.48
-34.57
2.43
33.10
56.22
72.38
83.05
89.79
93.73
95.63
96.12
95.95
95.88
96.49
97.83
99.43
100.52
100.49
99.19
97.02
94.63
92.49
90.56
88.25
84.64
78.98
71.02
61.19
50.42
39.85
30.36
22.23
15.05
7.90
-0.20
-9.78
-20.68
-32.03
-42.73
-51.98
-59.70
-66.70
-74.43
-84.49
-98.07
-115.25
-134.57
-152.90
-165.99
-169.51
-160.44
-138.26
-105.26
-65.98
-25.80
10.57
40.22
62.26
77.35
86.90
92.30
94.70
94.94
93.79
92.01
90.35
89.36
89.24
89.73
90.31
90.38
89.57
87.86
85.55
83.04
80.56
77.96
74.73
70.19
63.77
55.33
45.29
34.59
24.37
15.54
8.44
2.63
-2.93
-9.40
-17.58
-27.50
-38.39
-49.04
-58.35
-65.81
-71.70
-76.98
-83.04
-91.25
-102.68
-117.59
-135.05
-152.60
-166.49
-172.34
-166.56
-147.57
-116.67
-77.86
-36.65
1.56
32.95
55.93
70.96
79.65
83.89
85.15
84.47
82.56
80.11
77.86
76.43
76.12
76.74
77.79
78.67
79.02
78.84
78.32
77.68
76.90
75.73
73.73
70.57
66.21
61.16
56.47
53.45
53.13
55.82
60.79
66.52
71.29
73.79
73.61
71.04
66.62
60.67
53.17
44.00
33.33
21.79
10.32
-0.42
-10.45
-20.44
-31.34
-43.70
-57.21
-70.69
-82.37
-90.45
-93.62
-91.37
-84.05
-72.77
-59.12
-44.91
-31.72
-20.68
-12.27
-6.38
-2.60
-0.36
0.75
1.05
0.83
0.45
0.31
0.78
1.96
3.69
5.61
7.24
8.23
8.46
8.00
7.03
5.76
4.25
2.47
0.35
-2.17
-5.08
-8.33
-11.92
-15.99
-20.78
-26.48
-32.99
-39.80
-45.97
-50.41
-52.25
-51.13
-47.41
-42.08
-36.52
-32.25
-30.57
-32.41
-38.07
-47.15
-58.41
-69.87
-79.01
-83.31
-80.93
-71.28
-55.34
-35.50
-14.83
3.81
18.51
28.72
34.95
38.32
39.88
40.40
40.34
40.01
39.74
39.84
40.43
41.33
42.15
42.41
41.86
40.48
38.55
36.41
34.29
32.25
30.14
27.75
24.89
21.53
17.83
14.19
11.11
9.05
8.30
8.76
10.01
11.43
12.36
12.35
11.24
9.21
6.66
4.06
1.82
0.21
-0.75
-1.21
-1.53
-2.06
-3.01
-4.28
-5.30
-5.19
-3.05
1.66
8.85
17.80
27.53
37.14
46.20
54.72
62.92
70.86
78.29
84.69
89.59
93.03
95.43
97.57
100.16
103.49
107.38
111.31
114.63
116.49
115.79
111.10
101.11
85.09
63.28
36.97
7.83
-22.78
-54.49
-87.70
-122.94
-159.83
-196.68
-230.77
-259.39
-280.98
-295.69
-305.10
-311.30
-315.82
-319.09
-320.55
-319.35
-315.02
-308.01
-299.52
-291.15
-284.38
-280.33
-279.56
-281.84
-285.89
-289.28
-288.78
-281.08
-263.92
-236.75
-200.84
-158.69
-113.23
-67.19
-23.03
17.10
51.26
78.09
97.20
109.49
116.87
121.63
125.74
130.33
135.66
141.46
147.17
152.36
156.67
159.95
162.15
163.37
163.68
163.07
161.32
158.07
152.89
145.57
136.17
125.14
113.22
101.27
90.00
79.82
70.62
61.90
52.90
43.02
32.05
20.32
8.55
-2.47
-12.24
-20.80
-28.75
-37.20
-47.52
-60.98
-78.25
-98.69
-119.98
-138.11
-148.28
-146.28
-130.04
-100.56
-61.71
-19.02
22.02
57.50
85.61
106.47
121.28
131.50
138.39
142.96
146.07
148.66
151.58
155.49
160.83
167.72
176.08
185.69
196.16
206.82
216.60
224.11
227.90
226.74
219.95
207.49
189.84
167.71
141.83
112.70
80.55
45.37
7.01
-34.59
-79.07
-125.19
-170.75
-212.79
-248.26
-275.05
-292.75
-302.95
-308.76
-313.81
-321.01
-331.58
-344.51
-356.62
-363.36
-359.82
-342.05
-307.87
-257.43
-193.38
-120.71
-46.33
21.55
74.59
105.82
111.42
91.94
52.54
1.87
-50.11
-94.41
-124.80
-138.47
-135.68
-118.86
-91.70
-58.37
-22.91
11.13
41.01
64.85
81.74
91.78
96.04
96.31
94.60
92.44
90.31
87.48
82.69
75.24
65.78
56.43
49.91
48.12
51.10
56.84
62.11
63.60
58.71
45.82
24.38
-4.96
-39.92
-76.46
-109.28
-133.10
-144.23
-141.77
-127.50
-104.67
-76.41
-44.63
-10.05
27.09
66.10
105.43
143.12
177.45
207.43
232.68
252.99
267.94
276.81
278.96
274.38
263.96
249.43
232.89
216.17
200.44
186.00
172.46
159.08
145.22
130.62
115.62
101.00
87.71
76.39
66.96
58.51
49.47
38.35
24.37
7.80
-9.98
-27.12
-41.88
-53.22
-61.08
-66.43
-70.90
-76.24
-83.57
-92.73
-101.95
-108.18
-108.08
-99.22
-81.19
-55.83
-26.62
2.57
28.68
50.06
66.37
77.99
85.47
89.28
90.09
88.99
87.40
86.69
87.59
89.85
92.48
94.32
94.86
94.63
94.95
97.28
102.39
109.86
118.25
125.70
130.65
132.20
130.15
124.73
116.21
104.83
90.76
74.37
56.24
37.17
18.01
-0.51
-17.95
-34.03
-48.65
-61.78
-73.56
-84.43
-95.26
-107.08
-120.64
-135.66
-150.37
-161.63
-165.64
-159.27
-141.30
-113.04
-78.01
-40.81
-5.73
24.28
47.97
65.37
77.15
84.04
86.71
85.93
82.77
78.61
74.91
72.70
72.26
73.00
73.82
73.53
71.34
67.05
61.07
54.03
46.58
39.14
31.94
25.13
18.82
13.07
7.75
2.54
-3.03
-9.34
-16.56
-24.48
-32.59
-40.41
-47.62
-54.29
-60.93
-68.31
-77.43
-89.17
-103.81
-120.64
-137.57
-151.40
-158.53
-156.11
-143.00
-120.21
-90.53
-57.56
-24.62
5.93
32.77
55.25
72.96
85.48
92.59
94.53
92.28
87.43
81.77
76.79
73.31
71.34
70.30
69.46
68.22
66.35
63.92
61.19
58.37
55.53
52.54
49.06
44.67
38.85
31.16
21.37
9.53
-3.94
-18.26
-32.53
-45.93
-57.95
-68.56
-78.32
-88.12
-98.87
-111.01
-123.96
-136.06
-144.77
-147.37
-141.89
-127.83
-106.45
-80.31
-52.60
-26.23
-3.22
15.39
29.32
38.75
44.12
46.09
45.62
43.85
41.90
40.50
39.82
39.48
38.83
37.37
34.98
32.03
29.03
26.30
23.71
20.73
16.66
10.97
3.50
-5.58
-15.94
-27.25
-39.16
-51.24
-63.07
-74.51
-86.27
-100.07
-118.31
-142.88
-173.87
-208.50
-241.43
-266.08
-276.65
-269.89
-245.86
-207.51
-159.56
-107.32
-55.78
-9.09
29.84
59.93
82.48
101.18
121.22
147.51
182.62
225.42
271.01
312.45
343.24
359.68
361.90
353.22
338.35
321.34
304.32
287.47
269.93
250.94
230.29
208.37
185.44
161.40
135.79
108.34
79.42
49.97
21.14
-6.53
-33.48
-61.12
-91.29
-125.63
-165.11
-209.69
-258.16
-307.77
-354.14
-391.53
-414.18
-418.06
-402.53
-370.89
-329.43
-285.32
-244.17
-208.89
-179.68
-155.45
-135.34
-119.48
-108.73
-103.54
-102.90
-103.94
-102.40
-93.76
-74.62
-43.72
-2.46
45.27
94.08
138.37
173.76
198.18
211.97
217.43
217.59
215.02
211.11
206.08
199.50
191.09
181.05
170.13
159.08
148.25
137.44
126.10
113.94
101.20
88.57
76.72
65.73
54.86
42.95
29.00
12.97
-4.25
-21.17
-36.48
-49.38
-59.46
-66.25
-68.78
-65.82
-56.60
-41.62
-22.97
-3.84
12.40
23.24
27.51
25.21
17.16
4.61
-10.85
-27.28
-42.53
-54.69
-62.67
-66.66
-67.94
-68.35
-69.45
-71.84
-75.13
-78.31
-80.39
-80.95
-80.37
-79.58
-79.67
-81.44
-85.05
-90.00
-95.39
-100.23
-103.90
-106.44
-108.66
-111.94
-117.83
-127.47
-140.97
-157.14
-173.56
-187.16
-195.05
-195.31
-187.59
-172.97
-153.46
-131.04
-106.67
-79.67
-47.88
-8.64
39.66
96.08
156.67
215.28
265.34
302.00
323.36
330.39
325.81
312.61
293.04
268.65
240.81
211.33
182.40
156.08
133.46
114.36
97.59
81.74
65.94
50.22
35.44
22.76
13.06
6.35
1.54
-3.29
-10.20
-20.55
-34.43
-50.55
-66.84
-81.29
-92.75
-101.25
-107.88
-114.21
-121.80
-131.67
-144.02
-158.00
-171.64
-182.12
-186.42
-182.24
-168.90
-147.69
-121.46
-93.63
-67.21
-44.12
-25.05
-9.88
1.89
10.77
17.17
21.56
24.51
26.63
28.58
30.76
33.30
36.04
38.66
40.92
42.74
44.24
45.52
46.47
46.67
45.46
42.25
36.88
29.76
21.83
14.22
7.78
2.85
-0.87
-4.10
-7.70
-12.30
-18.20
-25.21
-32.69
-39.76
-45.52
-49.46
-51.75
-53.35
-55.69
-60.02
-66.66
-74.56
-81.47
-84.56
-81.54
-71.48
-55.13
-34.63
-12.66
8.36
26.84
42.05
53.90
62.54
68.15
70.94
71.29
69.82
67.37
64.63
61.95
59.20
55.88
51.53
46.05
39.89
33.84
28.71
24.88
22.10
19.67
16.70
12.59
7.29
1.20
-5.01
-10.78
-15.95
-20.80
-25.90
-31.79
-38.74
-46.58
-54.75
-62.55
-69.40
-75.06
-79.75
-84.14
-89.23
-96.16
-105.78
-118.16
-132.18
-145.34
-154.26
-155.59
-147.08
-128.43
-101.43
-69.34
-35.90
-4.35
23.13
45.52
62.59
74.63
82.22
86.20
87.63
87.66
87.29
87.18
87.54
88.19
88.69
88.61
87.72
86.07
83.95
81.74
79.71
77.77
75.50
72.29
67.59
61.25
53.60
45.32
37.17
29.67
22.83
16.25
9.26
1.33
-7.76
-17.74
-28.05
-38.01
-47.14
-55.32
-62.82
-70.32
-78.69
-88.83
-101.25
-115.66
-130.62
-143.52
-151.04
-150.15
-139.21
-118.63
-90.90
-59.82
-29.30
-2.37
19.31
35.37
46.24
52.71
55.67
56.06
54.96
53.43
52.42
52.48
53.67
55.62
57.76
59.60
60.99
62.04
63.03
64.10
65.10
65.48
64.54
61.71
56.85
50.40
43.13
35.84
28.91
22.12
14.85
6.42
-3.47
-14.49
-25.78
-36.33
-45.37
-52.77
-59.07
-65.37
-72.97
-83.02
-96.03
-111.36
-127.12
-140.23
-147.21
-145.14
-132.67
-110.55
-81.41
-49.00
-16.99
11.86
36.12
55.56
70.60
81.77
89.55
94.33
96.62
97.17
96.91
96.72
97.10
98.06
99.18
99.88
99.77
98.84
97.38
95.78
94.17
92.28
89.46
84.90
78.04
68.82
57.77
45.88
34.28
23.84
14.91
7.20
-0.03
-7.57
-15.97
-25.29
-35.14
-44.89
-53.95
-62.13
-69.72
-77.55
-86.74
-98.32
-112.65
-128.89
-144.82
-157.10
-162.15
-157.34
-141.85
-117.13
-86.36
-53.47
-21.97
5.80
28.76
46.84
60.40
69.92
75.95
79.15
80.41
80.77
81.10
81.93
83.27
84.75
85.82
86.06
85.41
84.12
82.66
81.40
80.37
79.16
77.04
73.27
67.41
59.58
50.45
41.01
32.17
24.39
17.55
11.00
3.96
-4.11
-13.26
-23.00
-32.61
-41.47
-49.33
-56.46
-63.51
-71.37
-80.88
-92.62
-106.51
-121.46
-135.33
-145.10
-147.67
-140.86
-124.22
-99.38
-69.57
-38.60
-9.73
15.03
34.98
50.34
61.70
69.60
74.53
76.99
77.71
77.54
77.32
77.56
78.31
79.18
79.58
78.98
77.26
74.67
71.73
68.95
66.51
64.13
61.19
56.98
51.07
43.54
34.96
26.25
18.23
11.31
5.37
-0.26
-6.39
-13.63
-22.06
-31.27
-40.45
-48.81
-55.91
-61.87
-67.37
-73.50
-81.42
-91.95
-105.15
-119.90
-133.91
-144.07
-147.19
-141.06
-125.17
-100.94
-71.37
-40.08
-10.33
15.60
36.63
52.63
63.99
71.31
75.23
76.44
75.79
74.21
72.64
71.75
71.86
72.79
74.02
74.99
75.29
74.89
74.01
72.95
71.80
70.34
68.07
64.42
59.01
51.87
43.49
34.61
26.11
18.58
12.20
6.62
1.13
-5.06
-12.43
-20.98
-30.23
-39.40
-47.81
-55.08
-61.31
-67.04
-73.11
-80.42
-89.81
-101.61
-115.36
-129.41
-141.08
-147.16
-144.79
-132.56
-111.07
-82.86
-51.64
-21.13
5.90
28.09
45.28
57.99
66.86
72.36
74.88
74.99
73.54
71.62
70.23
69.92
70.70
71.96
72.96
73.13
72.32
70.85
69.18
67.70
66.38
64.83
62.38
58.44
52.71
45.36
36.97
28.39
20.35
13.23
6.90
0.79
-5.80
-13.36
-21.92
-30.99
-39.81
-47.67
-54.27
-59.84
-65.13
-71.09
-78.74
-88.76
-101.24
-115.33
-129.14
-139.90
-144.57
-140.72
-127.37
-105.48
-77.70
-47.64
-18.83
6.12
25.92
40.48
50.38
56.51
59.76
60.98
60.98
60.52
60.21
60.35
60.87
61.39
61.47
60.89
59.72
58.32
57.08
56.18
55.37
54.12
51.75
47.87
42.49
36.10
29.51
23.48
18.44
14.35
10.68
6.56
1.23
-5.54
-12.98
-19.24
-21.73
-17.91
-6.22
13.28
38.68
66.73
93.69
116.28
132.52
141.99
145.68
145.47
143.35
140.77
138.20
135.20
130.69
123.60
113.25
99.47
82.49
62.77
40.98
18.26
-3.69
-22.84
-37.36
-46.37
-50.23
-50.34
-48.37
-45.47
-41.91
-37.40
-31.73
-25.32
-19.30
-15.01
-13.36
-14.37
-17.20
-20.62
-23.53
-25.29
-25.74
-25.11
-23.74
-22.07
-20.56
-19.73
-19.95
-21.32
-23.43
-25.50
-26.68
-26.42
-24.89
-22.93
-21.78
-22.66
-26.23
-32.45
-40.64
-49.77
-58.68
-66.32
-71.75
-74.23
-73.34
-69.08
-62.06
-53.47
-44.79
-37.44
-32.36
-29.68
-28.86
-28.96
-29.13
-28.92
-28.19
-26.89
-24.76
-21.27
-15.86
-8.41
0.43
9.38
16.88
21.65
23.00
20.94
15.91
8.62
-0.02
-8.89
-16.69
-22.14
-24.28
-22.88
-18.56
-12.71
-7.02
-3.06
-1.74
-3.14
-6.56
-10.81
-14.55
-16.72
-16.98
-15.81
-14.50
-14.67
-17.76
-24.33
-33.77
-44.34
-53.66
-59.57
-60.78
-57.22
-49.93
-40.62
-31.14
-23.02
-17.30
-14.43
-14.49
-17.10
-21.56
-26.93
-32.19
-36.49
-39.41
-41.08
-42.01
-42.78
-43.62
-44.20
-43.68
-41.16
-36.12
-28.76
-19.96
-10.96
-2.92
3.44
7.83
10.37
11.32
11.06
10.09
9.05
8.62
9.18
10.55
11.80
11.42
8.03
1.08
-8.65
-19.28
-28.43
-34.30
-36.20
-34.63
-30.77
-25.75
-20.31
-14.81
-9.63
-5.34
-2.60
-1.68
-2.05
-2.36
-0.86
3.81
12.03
23.00
35.10
46.44
55.49
61.25
63.18
61.02
54.75
44.89
32.72
20.35
10.25
4.51
3.96
7.81
13.90
19.56
22.68
22.36
19.05
14.13
9.22
5.75
4.69
6.45
10.68
16.36
21.73
24.73
23.80
18.45
9.73
-0.16
-8.70
-14.10
-15.86
-14.80
-12.40
-10.09
-8.72
-8.59
-9.79
-12.49
-17.10
-24.03
-33.40
-44.73
-56.93
-68.41
-77.34
-82.03
-81.27
-74.65
-62.77
-47.14
-29.82
-12.94
1.78
13.31
21.29
25.79
27.13
25.77
22.47
18.43
15.21
14.35
16.69
21.90
28.47
34.27
37.57
37.89
36.29
34.85
35.61
39.45
45.58
51.87
55.82
55.76
51.46
44.05
35.30
26.66
18.71
11.07
2.93
-6.31
-16.68
-27.66
-38.70
-49.58
-60.69
-72.65
-85.91
-100.29
-115.00
-128.88
-140.75
-149.63
-154.82
-155.78
-152.20
-144.06
-131.80
-116.27
-98.55
-79.68
-60.56
-41.93
-24.57
-9.45
2.48
10.59
14.87
16.03
15.27
13.95
13.16
13.67
15.81
19.51
24.41
29.84
34.99
39.06
41.55
42.45
42.18
41.38
40.55
39.83
38.99
37.56
35.10
31.32
26.14
19.61
11.91
3.42
-5.22
-13.43
-20.75
-27.29
-33.77
-41.29
-50.83
-62.54
-75.45
-87.49
-96.13
-99.11
-95.16
-84.39
-68.20
-48.78
-28.54
-9.33
7.85
22.95
36.50
49.06
60.64
70.60
77.91
81.74
82.10
79.99
77.19
75.54
76.14
79.04
83.15
86.78
88.28
86.68
81.91
74.78
66.58
58.60
51.62
45.69
40.15
34.07
26.72
18.10
9.04
0.92
-4.88
-7.71
-8.02
-7.36
-7.90
-11.67
-19.86
-32.49
-48.54
-66.34
-84.19
-100.65
-114.57
-124.94
-130.74
-130.94
-124.74
-111.88
-92.83
-68.79
-41.54
-13.28
13.53
36.55
54.02
65.30
71.19
73.73
75.29
77.56
80.84
84.03
85.47
83.96
79.51
73.29
67.03
62.31
60.13
60.97
64.76
70.87
77.98
84.04
86.84
84.93
78.44
69.20
59.92
52.84
48.56
45.90
42.64
36.85
27.99
17.05
5.85
-3.93
-11.62
-17.73
-23.53
-30.38
-38.99
-49.15
-59.79
-69.38
-76.45
-79.97
-79.52
-75.24
-67.54
-57.07
-44.55
-30.88
-17.00
-3.78
8.20
18.66
27.61
35.10
41.15
45.77
48.99
50.97
51.88
51.67
50.07
46.64
41.11
33.68
25.03
16.07
7.55
-0.25
-7.53
-14.68
-21.98
-29.26
-35.97
-41.25
-44.33
-44.79
-42.78
-39.15
-35.19
-32.36
-31.85
-34.23
-39.24
-46.14
-53.97
-62.13
-70.61
-80.00
-91.14
-104.83
-121.47
-140.87
-162.13
-183.64
-202.94
-217.05
-222.92
-218.17
-201.91
-175.17
-140.78
-102.68
-64.84
-30.34
-0.91
22.99
41.75
56.00
66.43
73.74
78.73
82.44
85.95
90.04
94.90
100.10
104.75
108.01
109.38
108.88
106.89
103.86
99.99
95.17
89.15
81.74
73.08
63.61
53.91
44.37
35.04
25.57
15.42
4.23
-8.04
-20.96
-33.81
-45.94
-56.99
-67.14
-77.08
-87.92
-100.80
-116.58
-135.13
-154.96
-173.11
-185.57
-188.39
-178.94
-156.86
-124.42
-85.72
-45.53
-7.88
24.68
51.19
71.75
86.94
97.38
103.72
106.85
107.96
108.33
109.05
110.59
112.77
114.92
116.35
116.66
115.93
114.57
112.97
111.23
109.01
105.67
100.64
93.63
84.88
75.00
64.79
54.79
45.21
35.73
25.84
15.03
3.14
-9.50
-22.20
-34.17
-44.85
-54.18
-62.76
-71.72
-82.45
-96.19
-113.34
-132.98
-152.55
-168.15
-175.42
-170.90
-153.22
-123.71
-86.08
-45.30
-6.09
28.16
55.86
76.93
92.17
102.55
108.97
112.24
113.24
112.99
112.57
112.85
114.19
116.37
118.67
120.20
120.35
119.02
116.65
113.97
111.54
109.45
107.17
103.73
98.20
90.11
79.69
67.85
55.84
44.75
35.03
26.38
17.93
8.70
-1.96
-13.99
-26.74
-39.28
-50.76
-60.84
-69.76
-78.27
-87.48
-98.58
-112.55
-129.55
-148.54
-166.91
-180.77
-185.86
-178.93
-158.95
-127.66
-89.20
-48.74
-11.04
20.75
45.44
63.44
75.93
84.23
89.43
92.39
93.97
95.11
96.69
99.31
103.09
107.60
112.09
115.76
118.13
119.14
119.12
118.52
117.62
116.35
114.35
111.16
106.46
100.31
93.12
85.56
78.26
71.63
65.71
60.26
54.83
48.97
42.39
35.10
27.48
20.28
14.32
10.17
7.76
6.27
4.28
0.29
-6.83
-17.37
-30.74
-45.58
-60.07
-72.13
-79.70
-80.98
-74.87
-61.41
-42.01
-19.28
3.62
23.86
39.67
50.58
57.13
60.32
61.08
60.02
57.57
54.17
50.41
46.95
44.26
42.39
41.01
39.51
37.37
34.43
30.91
27.29
24.00
21.21
18.66
15.81
12.06
7.06
0.83
-6.22
-13.41
-20.07
-25.79
-30.58
-34.90
-39.44
-44.88
-51.58
-59.43
-67.87
-76.11
-83.49
-89.76
-95.21
-100.60
-106.95
-115.22
-125.96
-138.97
-153.07
-166.02
-174.75
-176.08
-167.56
-148.41
-119.99
-85.50
-49.16
-15.06
13.88
36.30
52.19
62.37
67.90
69.80
69.08
66.80
64.15
62.20
61.68
62.71
64.83
67.28
69.29
70.40
70.53
69.88
68.66
66.98
64.65
61.33
56.62
50.30
42.56
33.94
25.21
17.08
9.81
3.12
-3.70
-11.42
-20.48
-30.66
-41.22
-51.18
-59.84
-67.09
-73.49
-80.10
-88.13
-98.56
-111.84
-127.53
-144.06
-158.76
-168.30
-169.39
-159.90
-139.60
-110.45
-76.08
-40.75
-8.18
19.21
40.52
55.90
66.05
71.72
73.64
72.63
69.76
66.32
63.54
62.19
62.35
63.51
64.85
65.74
65.96
65.65
65.12
64.42
63.23
60.97
57.13
51.60
44.74
37.26
29.81
22.65
15.51
7.73
-1.30
-11.80
-23.37
-35.16
-46.12
-55.51
-63.15
-69.49
-75.45
-82.16
-90.69
-101.75
-115.17
-129.59
-142.34
-149.87
-148.73
-136.71
-113.75
-82.09
-45.60
-8.56
25.51
54.53
77.84
95.63
108.37
116.35
119.76
118.95
114.64
108.03
100.49
93.32
87.32
82.72
79.27
76.49
73.90
71.16
68.04
64.32
59.74
54.06
47.06
38.76
29.24
18.70
7.34
-4.62
-16.89
-29.07
-40.64
-51.05
-59.88
-67.00
-72.57
-77.15
-81.54
-86.79
-93.97
-103.76
-115.99
-129.17
-140.43
-146.12
-142.90
-128.92
-104.59
-72.59
-37.04
-2.28
28.26
52.69
70.61
82.70
90.08
93.80
94.70
93.44
90.63
87.04
83.42
80.56
78.93
78.64
79.43
80.77
82.03
82.66
82.21
80.38
77.01
72.05
65.62
57.94
49.27
39.89
29.95
19.48
8.51
-2.91
-14.60
-26.22
-37.43
-47.90
-57.56
-66.57
-75.40
-84.76
-95.49
-108.21
-122.89
-138.36
-152.10
-160.66
-160.57
-149.55
-127.52
-96.76
-61.31
-25.71
6.32
32.64
52.72
67.12
76.77
82.53
85.07
85.03
83.19
80.53
77.95
76.13
75.26
75.08
75.07
74.81
74.00
72.57
70.58
68.02
64.80
60.75
55.70
49.62
42.57
34.71
26.20
17.16
7.61
-2.47
-12.95
-23.59
-33.99
-43.71
-52.50
-60.36
-67.71
-75.21
-83.70
-94.01
-106.64
-121.43
-137.11
-151.26
-160.55
-161.61
-152.18
-132.04
-103.28
-69.81
-36.06
-5.75
18.93
37.34
49.90
57.41
60.84
61.42
60.98
62.00
66.98
77.54
93.49
112.58
131.13
145.37
152.74
152.70
146.55
136.50
124.60
111.91
98.54
84.17
68.69
52.66
37.21
23.53
12.41
3.92
-2.37
-7.03
-10.33
-12.20
-12.31
-10.58
-7.38
-3.65
-0.57
0.78
-0.28
-3.96
-10.28
-19.24
-30.94
-45.44
-62.33
-80.41
-97.52
-110.94
-118.05
-117.23
-108.47
-93.49
-75.14
-56.48
-39.80
-26.16
-15.43
-6.79
0.61
7.18
12.86
17.31
20.34
22.22
23.84
26.60
31.98
41.07
54.13
70.17
87.03
101.78
111.53
114.40
110.19
100.37
87.37
73.52
60.10
47.10
33.73
19.33
4.07
-10.96
-24.46
-35.61
-44.43
-51.42
-56.88
-60.52
-61.82
-60.75
-58.28
-56.29
-56.52
-59.77
-65.52
-72.36
-78.96
-84.59
-88.94
-91.34
-90.08
-82.67
-67.01
-42.79
-12.33
19.90
48.91
71.01
84.94
91.77
93.77
92.90
89.95
84.67
76.54
65.73
53.55
42.02
33.06
27.59
25.27
24.73
24.43
23.25
20.91
17.81
14.59
11.59
8.62
4.96
-0.30
-7.81
-17.58
-28.88
-40.46
-51.04
-59.74
-66.41
-71.42
-75.34
-78.40
-80.33
-80.50
-78.43
-74.20
-68.68
-63.29
-59.62
-58.89
-61.73
-68.01
-76.88
-86.77
-95.54
-100.66
-99.69
-90.95
-74.10
-50.46
-22.74
5.71
31.83
53.59
70.23
82.02
89.67
93.78
94.54
91.89
85.74
76.41
64.83
52.33
40.40
30.17
22.19
16.35
12.20
9.22
7.12
5.97
5.96
7.23
9.64
12.77
16.06
19.07
21.62
23.76
25.54
26.82
27.14
25.76
22.05
15.74
7.16
-2.84
-13.28
-23.51
-33.57
-44.26
-56.82
-72.49
-92.09
-115.68
-142.20
-169.38
-193.71
-210.93
-216.95
-209.02
-186.80
-152.61
-110.90
-66.83
-24.88
12.17
43.28
68.60
88.63
103.81
114.45
121.06
124.56
126.23
127.26
128.25
128.98
128.53
125.76
120.02
111.46
101.07
90.13
79.68
69.86
59.98
48.80
35.37
19.56
2.39
-14.31
-28.57
-38.97
-45.18
-47.99
-48.94
-49.75
-51.77
-55.58
-61.02
-67.37
-73.71
-79.30
-83.92
-87.97
-92.38
-98.41
-107.11
-118.89
-132.97
-147.32
-158.84
-164.14
-160.46
-146.58
-123.27
-93.19
-60.06
-27.73
0.82
23.91
41.09
52.84
60.07
63.83
65.18
65.17
64.76
64.71
65.43
66.97
68.98
70.95
72.42
73.12
73.07
72.49
71.66
70.73
69.50
67.50
64.10
58.85
51.75
43.40
34.81
26.98
20.42
14.89
9.54
3.36
-4.21
-12.98
-22.11
-30.57
-37.70
-43.59
-49.06
-55.38
-63.84
-75.26
-89.58
-105.64
-121.10
-132.81
-137.43
-132.47
-117.11
-92.69
-62.34
-30.12
0.21
26.05
46.21
60.69
70.08
75.08
76.43
74.99
71.87
68.35
65.60
64.37
64.74
66.22
68.07
69.60
70.44
70.43
69.59
67.85
65.11
61.28
56.37
50.58
44.18
37.37
30.19
22.50
14.04
4.63
-5.70
-16.62
-27.63
-38.16
-47.80
-56.44
-64.41
-72.45
-81.55
-92.74
-106.49
-122.29
-138.19
-151.06
-157.16
-153.38
-138.37
-113.11
-80.76
-45.64
-11.96
17.23
40.50
57.76
69.67
77.12
80.88
81.72
80.47
78.18
75.90
74.42
74.09
74.77
75.94
77.07
77.79
78.00
77.67
76.71
74.86
71.75
67.08
60.87
53.41
45.22
36.69
28.02
19.16
9.90
0.09
-10.18
-20.65
-30.91
-40.65
-49.70
-58.27
-66.89
-76.39
-87.73
-101.61
-117.94
-135.38
-151.18
-161.69
-163.26
-153.56
-132.46
-102.21
-66.87
-30.93
1.80
29.08
50.30
65.93
76.89
84.05
88.16
89.92
90.18
89.86
89.76
90.30
91.40
92.53
93.14
92.86
91.77
90.19
88.46
86.62
84.28
80.82
75.63
68.48
59.63
49.72
39.60
29.88
20.78
12.06
3.16
-6.38
-16.74
-27.63
-38.43
-48.44
-57.23
-64.87
-71.98
-79.69
-89.25
-101.66
-117.02
-134.09
-150.15
-161.40
-163.98
-155.27
-134.85
-104.81
-69.15
-32.52
1.12
29.32
51.33
67.57
78.98
86.45
90.69
92.35
92.21
91.22
90.32
90.14
90.80
91.86
92.63
92.49
91.21
89.02
86.44
83.96
81.74
79.48
76.46
71.93
65.36
56.79
46.87
36.69
27.33
19.43
12.85
6.74
-0.07
-8.46
-18.53
-29.59
-40.48
-50.10
-57.96
-64.36
-70.22
-76.78
-85.27
-96.57
-110.86
-127.19
-143.23
-155.47
-160.02
-153.82
-135.89
-107.80
-73.31
-37.12
-3.41
25.18
47.74
64.57
76.45
84.07
87.97
88.76
87.35
84.98
82.89
81.88
82.16
83.26
84.36
84.75
84.10
82.60
80.73
78.89
77.11
74.97
71.82
66.99
60.30
52.06
43.09
34.41
26.79
20.48
15.10
9.85
3.91
-3.13
-11.09
-19.22
-26.60
-32.54
-36.96
-40.45
-44.07
-49.10
-56.63
-67.18
-80.38
-94.56
-106.81
-113.37
-110.65
-96.44
-70.89
-36.68
1.76
39.67
73.32
100.81
121.87
137.23
147.69
153.77
155.81
154.44
150.82
146.61
143.40
142.14
142.75
144.18
144.86
143.33
138.74
130.94
120.45
108.08
94.60
80.59
66.34
51.93
37.33
22.60
7.97
-6.14
-19.24
-30.89
-40.93
-49.53
-57.11
-64.20
-71.26
-78.47
-85.73
-92.72
-99.03
-104.32
-108.52
-111.83
-114.77
-118.00
-122.12
-127.42
-133.75
-140.48
-146.51
-150.41
-150.62
-145.75
-135.01
-118.51
-97.49
-74.09
-50.84
-29.94
-12.70
0.66
10.73
18.36
24.21
28.53
31.32
32.63
32.84
32.54
32.36
32.67
33.53
34.78
36.30
38.20
40.82
44.53
49.42
55.02
60.36
64.16
65.20
62.75
56.74
47.78
36.89
25.15
13.35
1.73
-9.98
-22.31
-35.64
-49.91
-64.41
-78.09
-89.93
-99.47
-107.08
-113.72
-120.65
-128.97
-139.28
-151.49
-164.76
-177.37
-186.87
-190.41
-185.49
-170.84
-147.07
-116.73
-83.71
-52.06
-24.98
-4.08
10.59
20.13
26.22
30.70
35.35
41.76
51.02
63.38
77.98
92.99
106.28
116.41
123.42
128.97
135.50
144.93
157.35
170.67
181.32
185.73
181.72
169.23
150.08
126.90
102.13
77.27
52.80
28.60
4.55
-18.95
-40.93
-60.13
-75.54
-86.74
-94.02
-98.02
-99.48
-99.13
-97.94
-97.59
-100.42
-108.81
-123.97
-144.91
-168.12
-188.68
-202.04
-205.76
-200.32
-188.63
-174.69
-162.27
-154.06
-151.54
-155.29
-165.00
-179.28
-195.46
-209.81
-218.57
-219.29
-212.07
-199.53
-185.45
-172.57
-160.83
-147.04
-126.73
-96.72
-57.33
-12.62
31.41
69.35
98.42
118.63
131.43
137.88
137.76
130.03
