1677071266.00
64.000000
-0.00
-0.00
-0.00
-0.00
-0.00
-0.00
-0.00
-0.00
-0.00
-0.00
0.00
0.01
0.01
-0.00
-0.03
-0.05
-0.05
0.00
0.13
0.36
0.66
1.01
1.37
1.72
2.06
2.40
2.79
3.24
3.80
4.42
5.06
5.66
6.20
6.68
7.15
7.68
8.31
9.14
10.09
11.04
11.88
12.56
13.14
13.76
14.65
15.96
17.91
20.32
22.90
25.38
27.58
29.57
31.68
34.32
37.81
42.54
48.15
54.10
59.83
64.97
69.58
74.14
79.34
85.71
93.76
103.00
112.62
121.73
129.77
136.75
143.30
150.75
157.77
166.64
177.95
191.79
206.97
220.57
228.25
225.36
208.53
176.87
132.76
80.05
23.07
-34.94
-92.44
-149.16
-205.23
-260.37
-313.74
-363.87
-409.83
-450.91
-486.50
-515.74
-537.23
-549.22
-549.96
-538.37
-514.21
-478.67
-433.88
-382.45
-327.02
-269.84
-212.63
-156.66
-102.95
-52.37
-5.90
35.58
71.43
101.35
125.50
144.38
158.69
169.15
176.37
180.75
182.57
182.07
179.51
175.23
169.65
163.18
156.15
148.81
141.30
133.69
126.02
118.33
110.69
103.16
95.80
88.68
81.83
75.25
68.95
62.95
57.25
51.86
46.78
42.03
37.59
33.45
29.61
26.07
22.81
19.83
17.11
14.67
12.48
10.54
8.83
7.35
6.07
4.97
4.05
3.27
2.62
2.09
1.65
1.30
1.01
0.79
0.61
0.47
0.37
0.29
0.23
0.19
0.17
0.16
0.16
0.17
0.18
0.21
0.24
0.27
0.31
0.35
0.40
0.44
0.49
0.54
0.59
0.65
0.71
0.77
0.83
0.91
0.99
1.07
1.16
1.26
1.37
1.49
1.63
1.77
1.94
2.13
2.34
2.57
2.83
3.13
3.46
3.82
4.22
4.65
5.12
5.63
6.19
6.80
7.44
8.10
8.78
9.47
10.17
10.92
11.72
12.59
13.55
14.58
15.66
16.76
17.87
18.98
20.09
21.16
22.13
22.91
23.31
23.19
22.35
20.71
18.24
15.00
11.13
6.75
2.02
-2.93
-7.99
-13.06
-17.96
-22.47
-26.36
-29.39
-31.48
-32.71
-33.34
-33.76
-34.25
-34.95
-35.70
-36.11
-35.73
-34.27
-31.71
-28.40
-24.85
-21.62
-19.07
-17.20
-15.77
-14.49
-13.22
-12.15
-11.72
-12.48
-14.82
-18.92
-24.74
-31.93
-39.76
-47.04
-52.16
-53.50
-50.05
-42.04
-31.06
-19.71
-10.52
-5.04
-3.34
-4.36
-6.62
-9.08
-11.62
-14.73
-18.99
-24.34
-30.05
-35.05
-38.48
-40.00
-39.66
-37.73
-34.17
-28.40
-19.47
-6.34
11.88
35.00
61.73
90.03
117.45
141.57
160.36
172.54
177.78
176.66
170.37
160.42
148.30
135.18
121.89
108.99
96.87
85.75
75.63
66.31
57.44
48.74
40.07
31.38
22.72
13.98
4.91
-4.96
-16.10
-28.75
-42.72
-57.43
-72.10
-86.03
-98.87
-110.75
-122.23
-133.94
-146.21
-158.78
-170.71
-180.52
-186.45
-186.82
-180.32
-166.20
-144.45
-115.91
-82.32
-46.06
-9.81
24.00
53.59
77.96
96.83
110.40
119.17
123.81
125.23
124.47
122.60
120.37
118.05
115.43
111.90
106.82
99.82
90.94
80.57
69.34
57.81
46.32
34.96
23.52
11.73
-0.67
-13.77
-27.51
-41.68
-56.03
-70.31
-84.25
-97.71
-110.67
-123.23
-135.51
-147.46
-158.41
-167.06
-171.48
-169.61
-159.95
-142.07
-116.96
-86.69
-53.84
-20.64
11.37
41.39
68.86
92.92
112.23
125.39
131.63
131.47
126.81
120.28
114.09
109.21
105.17
100.68
94.60
86.75
78.02
69.69
62.69
56.81
50.82
43.04
32.20
18.09
1.70
-15.23
-30.99
-44.62
-56.23
-66.83
-77.74
-90.06
-104.19
-119.89
-136.43
-152.92
-168.33
-181.36
-190.40
-193.64
-189.37
-176.54
-155.18
-126.45
-92.35
-55.22
-17.34
19.38
53.45
83.73
109.47
130.23
145.97
156.98
163.66
166.35
165.21
160.32
151.91
140.57
127.35
113.51
100.26
88.30
77.76
68.34
59.56
51.09
42.76
34.38
25.49
15.30
2.86
-12.41
-30.41
-50.12
-69.96
-88.33
-104.32
-118.06
-130.52
-142.85
-155.59
-168.16
-178.81
-185.23
-185.31
-177.82
-162.53
-140.06
-111.47
-78.04
-41.27
-3.02
34.47
68.79
97.88
120.50
136.34
145.95
150.37
150.69
147.89
142.69
135.63
127.17
117.77
107.88
97.92
88.13
78.55
68.94
58.89
48.01
36.14
23.45
10.46
-2.17
-13.91
-24.56
-34.37
-43.96
-54.11
-65.59
-78.95
-94.34
-111.49
-129.56
-147.15
-162.45
-173.31
-177.77
-174.29
-162.21
-141.86
-114.49
-82.06
-46.83
-11.01
23.43
54.88
82.08
104.16
120.69
131.68
137.65
139.44
138.04
134.44
129.42
123.55
117.11
110.08
102.25
93.33
83.21
72.10
60.55
49.15
38.16
27.23
15.58
2.40
-12.50
-28.53
-44.58
-59.71
-73.74
-87.43
-101.97
-118.34
-136.56
-155.58
-173.54
-188.41
-198.50
-202.72
-200.53
-191.77
-176.47
-154.88
-127.56
-95.55
-60.25
-23.35
13.47
48.75
81.30
110.08
134.22
152.87
165.46
171.82
172.49
168.60
161.69
153.35
144.82
136.77
129.18
121.55
113.15
103.36
91.89
78.84
64.65
49.80
34.62
19.21
3.60
-12.05
-27.31
-41.60
-54.48
-66.07
-77.02
-88.43
-101.31
-116.14
-132.57
-149.45
-164.94
-176.84
-183.03
-181.83
-172.29
-154.38
-128.86
-97.18
-61.15
-22.72
16.14
53.49
87.48
116.50
139.39
155.59
165.27
169.12
168.18
163.58
156.51
148.20
139.78
132.13
125.70
120.21
114.88
108.65
100.61
90.29
77.73
63.41
47.88
31.69
15.21
-1.31
-17.78
-34.35
-51.33
-69.13
-88.06
-108.11
-128.96
-150.12
-171.12
-191.58
-210.94
-228.17
-241.56
-248.86
-247.89
-237.35
-217.34
-189.45
-156.20
-120.25
-83.60
-47.42
-12.39
20.50
49.63
72.96
88.90
97.32
99.94
99.86
100.21
102.94
108.20
114.76
120.87
125.23
127.39
127.53
126.25
124.45
123.65
125.95
133.35
146.43
162.85
177.21
182.20
171.43
142.18
96.87
42.30
-12.77
-60.71
-97.31
-122.66
-140.34
-155.36
-171.81
-191.06
-211.49
-229.45
-241.07
-244.20
-239.24
-228.79
-215.85
-202.94
-191.79
-184.42
-183.74
-193.44
-215.81
-249.29
-286.78
-318.01
-334.03
-331.26
-312.27
-283.06
-249.45
-214.28
-177.46
-137.26
-93.12
-47.10
-2.53
38.30
76.89
116.95
162.22
213.88
271.80
333.85
395.79
451.50
493.75
518.12
521.58
502.33
458.42
393.46
313.05
221.73
121.51
13.64
-93.26
-188.38
-261.76
-311.28
-332.83
-326.11
-296.64
-254.10
-207.46
-152.65
-83.44
2.36
93.36
184.11
270.33
347.38
411.76
463.44
517.38
585.76
670.46
754.28
829.48
892.98
941.96
973.37
915.95
734.25
445.92
178.50
-31.04
-174.52
-269.38
-323.20
-342.61
-335.91
-299.29
-231.81
-155.13
-102.07
-83.84
-71.82
-58.94
-47.50
-53.47
-72.48
-95.81
-116.28
-136.54
-152.28
-159.67
-161.44
-161.97
-165.04
-165.21
-157.61
-141.14
-122.45
-104.21
-88.16
-78.18
-75.95
-80.76
-86.06
-86.49
-80.06
-69.81
-57.95
-46.70
-39.69
-38.55
-43.01
-49.75
-56.09
-61.00
-65.49
-70.38
-76.39
-84.59
-94.71
-105.42
-114.50
-120.23
-121.86
-119.50
-114.27
-107.85
-102.29
-98.76
-97.43
-97.41
-97.39
-96.07
-92.44
-85.94
-76.50
-64.37
-50.03
-34.10
-17.25
-0.23
16.25
31.48
44.84
55.83
64.12
69.60
72.39
72.82
71.26
68.05
63.42
57.52
50.49
42.58
34.18
25.82
17.95
10.82
4.40
-1.59
-7.63
-14.03
-20.94
-28.22
-35.52
-42.36
-48.33
-53.14
-56.75
-59.40
-61.57
-63.88
-66.91
-70.92
-75.65
-80.31
-83.70
-84.60
-82.17
-76.16
-66.98
-55.37
-42.15
-27.96
-13.21
1.75
16.53
30.54
43.13
53.66
61.73
67.22
70.25
71.11
70.13
67.65
63.91
59.22
53.81
48.01
42.15
36.57
31.51
27.03
23.03
19.24
15.36
11.08
6.23
0.73
-5.38
-11.94
-18.78
-25.66
-32.41
-39.00
-45.56
-52.36
-59.66
-67.58
-75.86
-83.89
-90.66
-95.01
-95.89
-92.53
-84.71
-72.79
-57.64
-40.42
-22.30
-4.32
12.74
28.21
41.53
52.18
59.85
64.51
66.47
66.26
64.46
61.41
57.30
52.28
46.56
40.60
34.90
29.87
25.63
22.04
18.79
15.55
12.08
8.23
3.93
-0.84
-5.98
-11.26
-16.41
-21.21
-25.70
-30.23
-35.35
-41.65
-49.42
-58.51
-68.23
-77.52
-85.08
-89.65
-90.26
-86.47
-78.35
-66.53
-51.96
-35.69
-18.66
-1.52
15.24
31.20
45.85
58.57
68.73
75.84
79.74
80.65
79.08
75.68
71.09
65.78
60.08
54.16
48.13
42.15
36.40
31.04
26.16
21.67
17.30
12.65
7.33
1.17
-5.70
-12.92
-20.04
-26.76
-33.08
-39.26
-45.72
-52.81
-60.68
-69.22
-78.09
-86.66
-94.03
-99.12
-100.80
-98.23
-91.09
-79.80
-65.31
-48.84
-31.48
-14.04
2.93
18.97
33.60
46.24
56.41
63.87
68.73
71.32
72.14
71.66
70.22
68.08
65.45
62.55
59.57
56.66
53.84
51.06
48.10
44.78
40.93
36.46
31.38
25.78
19.72
13.26
6.49
-0.45
-7.40
-14.18
-20.77
-27.28
-34.01
-41.26
-49.20
-57.71
-66.35
-74.33
-80.64
-84.24
-84.24
-80.09
-71.74
-59.64
-44.68
-27.92
-10.49
6.59
22.39
36.15
47.25
55.43
60.86
64.04
65.69
66.43
66.64
66.35
65.43
63.75
61.35
58.49
55.45
52.46
49.51
46.43
42.88
38.60
33.44
27.35
20.45
12.97
5.14
-2.76
-10.49
-17.85
-24.72
-31.14
-37.30
-43.50
-50.10
-57.25
-64.80
-72.19
-78.49
-82.60
-83.59
-80.90
-74.51
-64.84
-52.71
-39.04
-24.82
-10.98
1.64
12.35
20.70
26.53
29.97
31.43
31.44
30.58
29.34
28.02
26.82
25.75
24.77
23.79
22.69
21.32
19.54
17.22
14.26
10.60
6.25
1.28
-4.15
-9.75
-15.25
-20.47
-25.47
-30.59
-36.33
-43.08
-50.80
-58.98
-66.61
-72.50
-75.53
-74.96
-70.49
-62.26
-50.71
-36.53
-20.56
-3.76
12.89
28.45
42.12
53.30
61.64
67.12
69.96
70.60
69.49
67.07
63.66
59.54
54.96
50.13
45.25
40.41
35.55
30.54
25.22
19.41
13.01
6.02
-1.55
-9.60
-18.00
-26.52
-34.97
-43.13
-50.91
-58.31
-65.49
-72.66
-80.02
-87.61
-95.10
-101.77
-106.54
-108.17
-105.66
-98.53
-87.02
-71.94
-54.48
-35.82
-17.03
1.12
17.91
32.77
45.13
54.59
61.06
64.84
66.52
66.76
66.14
64.91
63.11
60.63
57.41
53.56
49.36
45.10
40.92
36.74
32.28
27.23
21.42
14.89
7.92
0.87
-5.97
-12.51
-18.85
-25.30
-32.23
-39.92
-48.44
-57.48
-66.36
-74.04
-79.40
-81.47
-79.74
-74.21
-65.34
-53.83
-40.32
-25.34
-9.35
7.13
23.35
38.42
51.41
61.65
68.88
73.32
75.49
75.98
75.27
73.65
71.26
68.15
64.42
60.18
55.61
50.87
46.06
41.25
36.45
31.60
26.61
21.35
15.76
9.83
3.63
-2.78
-9.37
-16.20
-23.44
-31.21
-39.64
-48.72
-58.31
-68.07
-77.40
-85.40
-90.93
-92.88
-90.49
-83.58
-72.61
-58.46
-42.15
-24.56
-6.38
11.78
29.17
44.86
57.96
67.85
74.39
78.02
79.51
79.60
78.76
77.16
74.78
71.59
67.79
63.74
59.86
56.40
53.40
50.66
47.80
44.45
40.35
35.40
29.65
23.28
16.56
9.81
3.25
-3.00
-9.02
-15.07
-21.48
-28.52
-36.26
-44.53
-52.91
-60.78
-67.35
-71.71
-72.99
-70.51
-64.06
-53.97
-41.07
-26.40
-11.00
4.30
18.85
32.03
43.19
51.68
57.11
59.56
59.59
58.06
55.82
53.39
50.88
48.13
44.94
41.22
37.07
32.64
28.09
23.46
18.75
13.90
8.91
3.83
-1.24
-6.20
-10.99
-15.61
-20.15
-24.81
-29.82
-35.33
-41.37
-47.79
-54.29
-60.54
-66.17
-70.76
-73.83
-74.75
-72.91
-67.85
-59.48
-48.16
-34.66
-20.03
-5.34
8.40
20.36
29.96
36.89
41.19
43.27
43.81
43.57
43.16
42.88
42.75
42.52
41.90
40.72
38.89
36.43
33.41
29.93
26.07
21.83
17.21
12.17
6.69
0.79
-5.38
-11.67
-17.90
-24.00
-29.99
-35.99
-42.18
-48.68
-55.57
-62.76
-69.98
-76.65
-82.00
-85.12
-85.22
-81.79
-74.78
-64.57
-51.85
-37.44
-22.22
-7.03
7.31
20.03
30.56
38.58
44.12
47.52
49.26
49.87
49.79
49.26
48.42
47.27
45.80
44.01
41.92
39.58
37.03
34.27
31.23
27.77
23.79
19.24
14.16
8.70
3.02
-2.78
-8.61
-14.50
-20.52
-26.78
-33.39
-40.32
-47.41
-54.32
-60.54
-65.43
-68.28
-68.41
-65.29
-58.73
-48.92
-36.51
-22.41
-7.65
6.91
20.59
32.86
43.21
51.17
56.36
58.73
58.68
56.91
54.26
51.39
48.61
45.95
43.24
40.33
37.13
33.68
30.05
26.33
22.56
18.74
14.79
10.63
6.16
1.40
-3.53
-8.44
-13.19
-17.81
-22.54
-27.66
-33.31
-39.36
-45.41
-50.93
-55.45
-58.64
-60.30
-60.19
-57.98
-53.34
-46.07
-36.29
-24.60
-11.89
0.82
12.63
22.88
31.24
37.60
42.00
44.59
45.54
45.07
43.45
41.00
38.05
34.91
31.77
28.69
25.58
22.26
18.54
14.29
9.50
4.23
-1.41
-7.23
-13.07
-18.85
-24.57
-30.34
-36.35
-42.79
-49.81
-57.37
-65.34
-73.37
-80.88
-87.02
-90.80
-91.26
-87.77
-80.25
-69.26
-55.75
-40.85
-25.55
-10.60
3.46
16.20
27.19
36.10
42.70
47.03
49.32
49.96
49.35
47.78
45.44
42.45
38.91
35.05
31.22
27.77
24.94
22.65
20.51
17.90
14.29
9.44
3.53
-2.96
-9.52
-15.88
-22.10
-28.61
-35.88
-44.34
-54.10
-64.87
-75.86
-85.90
-93.58
-97.57
-96.99
-91.61
-81.91
-68.78
-53.29
-36.37
-18.78
-1.18
15.78
31.42
45.15
56.51
65.33
71.67
75.76
77.88
78.29
77.23
74.93
71.61
67.55
63.05
58.43
53.91
49.55
45.17
40.36
34.66
27.82
19.88
11.21
2.32
-6.43
-14.94
-23.45
-32.40
-42.26
-53.30
-65.50
-78.40
-91.10
-102.31
-110.56
-114.50
-113.25
-106.59
-95.00
-79.47
-61.23
-41.43
-21.08
-0.96
18.29
36.08
51.86
65.14
75.57
82.96
87.42
89.28
89.02
87.15
84.09
80.10
75.43
70.34
65.17
60.28
55.85
51.78
47.64
42.85
36.97
29.89
21.89
13.47
5.10
-3.06
-11.21
-19.77
-29.23
-39.96
-51.94
-64.72
-77.35
-88.40
-96.20
-99.20
-96.35
-87.39
-72.99
-54.45
-33.34
-11.11
11.18
32.70
52.75
70.56
85.28
96.21
103.03
105.99
105.75
103.22
99.12
93.81
87.33
79.58
70.69
61.10
51.56
42.83
35.35
29.06
23.44
17.86
11.78
5.10
-1.99
-9.14
-16.17
-23.11
-30.19
-37.71
-45.90
-54.80
-64.27
-74.02
-83.54
-92.03
-98.41
-101.47
-100.14
-93.74
-82.25
-66.30
-46.97
-25.60
-3.53
17.93
37.61
54.48
67.77
77.10
82.57
84.72
84.40
82.61
80.20
77.74
75.42
73.11
70.43
67.02
62.63
57.26
51.18
44.74
38.28
32.00
25.93
19.96
13.99
7.96
1.86
-4.27
-10.48
-16.84
-23.53
-30.75
-38.59
-47.01
-55.77
-64.47
-72.65
-79.82
-85.53
-89.29
-90.60
-88.89
-83.73
-74.85
-62.34
-46.68
-28.79
-9.90
8.64
25.47
39.51
50.05
56.91
60.36
61.03
59.73
57.27
54.32
51.32
48.46
45.65
42.60
39.02
34.71
29.73
24.42
19.21
14.47
10.28
6.40
2.42
-2.03
-7.16
-12.88
-18.97
-25.17
-31.33
-37.40
-43.44
-49.54
-55.74
-62.00
-68.14
-73.79
-78.29
-80.73
-80.08
-75.49
-66.59
-53.65
-37.58
-19.63
-1.26
16.27
31.91
44.89
54.69
61.07
64.13
64.41
62.71
59.93
56.79
53.65
50.51
47.17
43.43
39.23
34.68
29.92
25.11
20.25
15.26
10.03
4.50
-1.31
-7.31
-13.41
-19.53
-25.63
-31.69
-37.71
-43.74
-49.86
-56.21
-62.88
-69.88
-76.94
-83.52
-88.77
-91.65
-91.21
-86.77
-78.11
-65.53
-49.74
-31.77
-12.75
6.17
23.98
39.77
52.88
62.89
69.71
73.58
75.01
74.63
73.11
70.98
68.47
65.58
62.08
57.75
52.54
46.64
40.47
34.42
28.72
23.35
18.03
12.48
6.44
-0.11
-7.07
-14.25
-21.46
-28.50
-35.33
-41.99
-48.61
-55.46
-62.75
-70.54
-78.63
-86.52
-93.48
-98.58
-100.85
-99.42
-93.71
-83.51
-69.19
-51.61
-31.98
-11.64
8.19
26.52
42.60
55.89
65.99
72.82
76.56
77.69
76.91
74.91
72.22
69.14
65.72
61.94
57.79
53.35
48.77
44.20
39.67
35.11
30.32
25.00
18.95
12.06
4.44
-3.65
-11.85
-19.89
-27.66
-35.24
-42.84
-50.74
-59.07
-67.79
-76.59
-84.89
-91.91
-96.73
-98.48
-96.44
-90.20
-79.79
-65.69
-48.68
-29.82
-10.24
8.95
26.75
42.26
54.83
64.10
70.09
73.23
74.18
73.69
72.33
70.44
68.13
65.42
62.40
59.15
55.81
52.43
48.95
45.21
41.06
36.40
31.22
25.56
19.45
12.94
6.11
-0.97
-8.15
-15.30
-22.31
-29.15
-35.91
-42.84
-50.21
-58.18
-66.66
-75.17
-82.84
-88.60
-91.44
-90.62
-85.81
-77.06
-64.73
-49.40
-31.89
-13.19
5.56
23.15
38.56
51.04
60.26
66.28
69.46
70.38
69.68
67.97
65.71
63.14
60.32
57.20
53.77
50.05
46.22
42.39
38.62
34.86
30.97
26.83
22.39
17.72
12.94
8.16
3.41
-1.31
-6.08
-10.96
-16.04
-21.40
-27.13
-33.30
-39.86
-46.55
-52.90
-58.21
-61.71
-62.68
-60.64
-55.39
-47.06
-36.01
-22.78
-8.01
7.51
22.92
37.25
49.55
59.05
65.31
68.29
68.36
66.13
62.35
57.72
52.80
47.93
43.27
38.83
34.53
30.27
25.98
21.61
17.14
12.56
7.87
3.04
-1.85
-6.69
-11.29
-15.54
-19.44
-23.16
-27.01
-31.32
-36.31
-42.00
-48.15
-54.38
-60.26
-65.40
-69.46
-72.14
-73.12
-72.07
-68.73
-62.97
-54.87
-44.74
-33.01
-20.24
-7.03
5.88
17.68
27.55
34.83
39.13
40.56
39.61
37.00
33.47
29.57
25.61
21.70
17.87
14.15
10.55
6.99
3.29
-0.85
-5.62
-11.11
-17.13
-23.33
-29.27
-34.62
-39.29
-43.41
-47.36
-51.60
-56.53
-62.41
-69.24
-76.82
-84.64
-91.95
-97.77
-101.02
-100.67
-96.07
-87.05
-74.01
-57.88
-39.86
-21.21
-3.10
13.57
28.18
40.39
50.14
57.60
63.13
67.13
69.97
71.97
73.30
74.07
74.27
73.84
72.68
70.72
67.82
63.90
58.88
52.74
45.58
37.62
29.18
20.67
12.36
4.33
-3.58
-11.77
-20.64
-30.50
-41.34
-52.75
-63.99
-74.07
-81.97
-86.79
-87.88
-84.90
-77.77
-66.69
-52.07
-34.63
-15.28
4.97
25.07
44.09
61.25
75.85
87.28
95.04
98.95
99.19
96.37
91.38
85.10
78.22
71.12
63.90
56.57
49.10
41.55
33.94
26.32
18.70
11.14
3.74
-3.34
-9.97
-16.08
-21.79
-27.36
-33.13
-39.46
-46.58
-54.46
-62.72
-70.57
-77.02
-80.97
-81.46
-77.88
-70.03
-58.20
-43.00
-25.43
-6.65
12.01
29.22
43.77
54.79
61.88
65.12
65.07
62.53
58.43
53.51
48.31
43.11
38.09
33.39
29.14
25.41
22.02
18.60
14.57
9.44
2.93
-4.87
-13.57
-22.61
-31.44
-39.74
-47.37
-54.41
-61.08
-67.67
-74.47
-81.68
-89.27
-96.96
-104.19
-110.22
-114.21
-115.28
-112.58
-105.45
-93.58
-77.15
-56.89
-34.01
-9.97
13.71
35.66
54.75
70.20
81.55
88.73
92.05
92.10
89.68
85.62
80.61
75.19
69.61
63.96
58.21
52.24
45.94
39.22
32.01
24.29
16.11
7.56
-1.24
-10.15
-19.13
-28.19
-37.50
-47.25
-57.63
-68.67
-80.22
-91.81
-102.72
-111.90
-118.14
-120.29
-117.42
-109.20
-95.85
-78.11
-57.00
-33.61
-8.96
15.99
40.22
62.58
81.89
97.16
107.81
113.89
116.03
115.20
112.44
108.50
103.79
98.35
92.08
84.92
76.97
68.48
59.74
50.91
42.01
32.91
23.48
13.70
3.71
-6.28
-16.04
-25.49
-34.76
-44.14
-54.06
-64.94
-77.01
-90.14
-103.69
-116.51
-127.09
-133.85
-135.47
-131.13
-120.63
-104.37
-83.25
-58.51
-31.65
-4.23
22.36
46.95
68.64
86.80
100.97
110.86
116.52
118.44
117.56
115.12
112.25
109.58
107.19
104.59
101.12
96.28
89.90
82.20
73.59
64.50
55.16
45.64
35.87
25.80
15.54
5.26
-4.77
-14.41
-23.75
-33.07
-42.79
-53.32
-64.83
-77.28
-90.31
-103.36
-115.70
-126.42
-134.45
-138.60
-137.76
-131.12
-118.44
-100.20
-77.53
-52.00
-25.29
1.18
26.36
49.56
70.28
88.06
102.41
112.96
119.65
122.82
123.24
121.75
119.05
115.46
110.94
105.29
98.46
90.64
82.33
74.06
66.17
58.70
51.37
43.85
35.94
27.68
19.26
10.91
2.64
-5.70
-14.39
-23.62
-33.39
-43.48
-53.62
-63.61
-73.47
-83.36
-93.44
-103.68
-113.64
-122.53
-129.19
-132.34
-130.90
-124.25
-112.50
-96.36
-77.00
-55.61
-33.16
-10.30
12.40
34.24
54.22
71.16
84.07
92.48
96.64
97.28
95.36
91.69
86.86
81.25
75.14
68.85
62.70
56.98
51.77
47.00
42.43
37.76
32.65
26.87
20.36
13.22
5.73
-1.81
-9.22
-16.51
-23.86
-31.53
-39.68
-48.38
-57.54
-66.99
-76.50
-85.73
-94.24
-101.44
-106.60
-108.95
-107.75
-102.48
-92.91
-79.22
-61.94
-41.90
-20.14
2.29
24.32
44.93
63.13
78.03
88.95
95.60
98.20
97.43
94.27
89.75
84.72
79.70
74.93
70.43
66.12
61.89
57.56
52.91
47.68
41.64
34.72
27.01
18.76
10.28
1.78
-6.69
-15.17
-23.75
-32.41
-41.02
-49.39
-57.39
-65.12
-72.82
-80.79
-89.17
-97.80
-106.07
-113.05
-117.62
-118.67
-115.32
-107.08
-94.02
-76.70
-56.11
-33.49
-10.07
12.96
34.57
53.81
69.89
82.20
90.44
94.78
95.73
94.15
90.97
87.01
82.81
78.61
74.37
69.85
64.79
58.97
52.36
45.10
37.49
29.79
22.21
14.81
7.61
0.61
-6.19
-12.75
-19.13
-25.39
-31.71
-38.27
-45.22
-52.72
-60.90
-69.83
-79.48
-89.62
-99.71
-108.87
-116.03
-120.04
-119.97
-115.27
-105.89
-92.30
-75.37
-56.12
-35.64
-14.89
5.34
24.35
41.45
56.00
67.45
75.54
80.42
82.65
83.03
82.29
80.86
78.81
75.93
71.98
66.87
60.80
54.12
47.28
40.54
33.94
27.35
20.57
13.44
6.03
-1.51
-8.98
-16.29
-23.53
-30.96
-38.91
-47.66
-57.33
-67.81
-78.86
-89.99
-100.56
-109.72
-116.51
-119.96
-119.32
-114.14
-104.50
-90.96
-74.40
-55.85
-36.17
-15.90
4.66
25.23
45.30
64.05
80.37
93.23
102.06
106.89
108.31
107.19
104.34
100.32
95.45
89.99
84.21
78.39
72.77
67.37
61.95
56.12
49.48
41.85
33.27
24.00
14.43
4.88
-4.40
-13.29
-21.74
-29.71
-37.18
-44.21
-50.94
-57.64
-64.62
-72.12
-80.17
-88.54
-96.72
-103.97
-109.43
-112.19
-111.43
-106.55
-97.25
-83.67
-66.27
-45.87
-23.47
-0.16
22.88
44.45
63.32
78.49
89.28
95.57
97.79
96.89
93.98
90.15
86.15
82.36
78.79
75.23
71.42
67.10
62.11
56.37
49.87
42.74
35.17
27.46
19.94
12.85
6.29
0.20
-5.59
-11.32
-17.21
-23.43
-30.10
-37.29
-45.05
-53.37
-62.19
-71.33
-80.46
-89.09
-96.56
-102.17
-105.19
-105.07
-101.47
-94.32
-83.76
-70.13
-53.92
-35.72
-16.28
3.53
22.73
40.36
55.56
67.76
76.73
82.53
85.49
86.05
84.64
81.70
77.66
72.91
67.79
62.55
57.27
51.87
46.23
40.27
34.03
27.70
21.49
15.51
9.69
3.85
-2.25
-8.71
-15.45
-22.24
-28.88
-35.24
-41.42
-47.60
-54.06
-60.98
-68.42
-76.18
-83.85
-90.81
-96.39
-99.91
-100.80
-98.64
-93.19
-84.35
-72.27
-57.36
-40.29
-21.98
-3.51
14.10
29.96
43.43
54.12
61.84
66.65
68.74
68.50
66.39
63.01
58.90
54.53
50.24
46.20
42.44
38.83
35.20
31.33
27.07
22.32
17.07
11.34
5.20
-1.25
-7.87
-14.49
-21.01
-27.38
-33.78
-40.47
-47.74
-55.75
-64.38
-73.23
-81.63
-88.88
-94.26
-97.17
-97.07
-93.54
-86.29
-75.28
-60.75
-43.29
-23.75
-3.11
17.60
37.34
55.16
70.23
81.90
89.83
94.07
95.04
93.45
90.05
85.57
80.54
75.33
70.19
65.22
60.36
55.45
50.19
44.31
37.69
30.47
23.07
15.98
9.64
4.18
-0.62
-5.28
-10.42
-16.68
-24.38
-33.58
-43.93
-54.75
-65.16
-74.25
-81.25
-85.68
-87.41
-86.63
-83.69
-78.90
-72.36
-63.94
-53.37
-40.44
-25.23
-8.28
9.40
26.45
41.35
52.88
60.27
63.52
63.26
60.59
56.68
52.48
48.54
45.04
41.93
39.05
36.29
33.51
30.57
27.29
23.55
19.35
14.82
10.24
5.86
1.86
-1.81
-5.40
-9.28
-13.86
-19.44
-26.18
-34.01
-42.65
-51.60
-60.21
-67.79
-73.69
-77.37
-78.50
-76.91
-72.51
-65.28
-55.23
-42.36
-26.89
-9.34
9.38
28.00
45.14
59.56
70.49
77.67
81.41
82.32
81.13
78.43
74.68
70.15
65.04
59.54
53.83
48.11
42.52
37.11
31.87
26.74
21.67
16.61
11.56
6.52
1.50
-3.50
-8.56
-13.80
-19.43
-25.71
-32.80
-40.74
-49.32
-58.01
-66.09
-72.77
-77.38
-79.43
-78.74
-75.38
-69.55
-61.54
-51.64
-40.11
-27.26
-13.39
1.04
15.45
29.16
41.40
51.48
58.89
63.38
65.03
64.14
61.18
56.69
51.19
45.20
39.17
33.48
28.37
23.88
19.86
16.01
11.97
7.48
2.37
-3.33
-9.48
-15.84
-22.17
-28.30
-34.17
-39.84
-45.48
-51.27
-57.33
-63.56
-69.69
-75.26
-79.76
-82.77
-83.94
-83.06
-79.91
-74.17
-65.55
-53.82
-39.07
-21.81
-2.97
16.21
34.46
50.58
63.65
73.05
78.56
80.40
79.13
75.62
70.78
65.36
59.79
54.26
48.76
43.30
37.95
32.81
27.89
23.03
17.99
12.47
6.39
-0.16
-6.90
-13.52
-19.91
-26.13
-32.51
-39.42
-47.15
-55.75
-65.04
-74.63
-84.05
-92.81
-100.41
-106.31
-109.84
-110.29
-107.04
-99.73
-88.42
-73.61
-56.25
-37.45
-18.42
-0.31
15.91
29.47
39.82
46.78
50.50
51.47
50.45
48.22
45.49
42.78
40.42
38.58
37.34
36.66
36.38
36.22
35.76
34.52
32.12
28.37
23.34
17.24
10.38
2.97
-5.00
-13.74
-23.66
-35.14
-48.30
-62.77
-77.62
-91.36
-102.32
-108.93
-110.14
-105.60
-95.67
-81.28
-63.59
-43.83
-23.08
-2.20
18.02
36.88
53.73
67.92
79.04
86.93
91.85
94.37
95.15
94.83
93.72
91.94
89.46
86.34
82.81
79.17
75.53
71.72
67.27
61.58
54.20
45.08
34.64
23.48
12.29
1.57
-8.49
-18.01
-27.34
-36.96
-47.39
-59.01
-71.93
-85.74
-99.45
-111.52
-120.20
-123.93
-121.82
-113.84
-100.81
-84.09
-65.07
-44.93
-24.38
-3.83
16.36
35.64
53.20
68.17
79.79
87.84
92.52
94.43
94.33
92.84
90.44
87.42
84.06
80.65
77.48
74.77
72.49
70.30
67.64
63.83
58.33
50.92
41.72
31.26
20.28
9.57
-0.23
-8.78
-16.14
-22.78
-29.43
-36.91
-45.85
-56.52
-68.63
-81.28
-93.10
-102.51
-108.09
-108.88
-104.56
-95.46
-82.33
-66.15
-47.86
-28.28
-8.13
11.90
31.09
48.72
64.09
76.69
86.17
92.46
95.75
96.45
95.08
92.13
88.04
83.12
77.68
72.01
66.48
61.40
56.91
52.89
49.03
44.96
40.38
35.18
29.43
23.32
17.02
10.70
4.42
-1.81
-8.09
-14.63
-21.72
-29.71
-38.84
-49.16
-60.33
-71.60
-81.82
-89.68
-93.94
-93.75
-88.91
-79.82
-67.38
-52.62
-36.47
-19.66
-2.72
13.82
29.34
43.10
54.45
62.93
68.46
71.27
71.85
70.77
68.55
65.58
62.09
58.24
54.08
49.65
45.02
40.24
35.41
30.63
25.91
21.22
16.44
11.42
6.02
0.12
-6.30
-13.23
-20.64
-28.46
-36.63
-45.09
-53.89
-63.11
-72.94
-83.59
-95.07
-107.07
-118.76
-128.97
-136.36
-139.78
-138.62
-132.88
-123.09
-110.02
-94.41
-76.82
-57.64
-37.16
-15.85
5.66
26.64
46.32
64.02
79.24
91.64
101.01
107.29
110.63
111.34
109.90
106.85
102.71
97.93
92.89
87.96
83.45
79.59
76.31
73.30
70.00
65.85
60.49
53.91
46.43
38.53
30.60
22.84
15.20
7.45
-0.69
-9.51
-19.33
-30.40
-42.79
-56.25
-70.02
-82.83
-93.16
-99.57
-101.03
-97.23
-88.51
-75.72
-59.98
-42.43
-24.10
-5.88
11.48
27.32
41.05
52.19
60.35
65.35
67.27
66.48
63.60
59.42
54.68
49.99
45.69
41.88
38.51
35.45
32.68
30.15
27.84
25.65
23.33
20.67
17.50
13.80
9.65
5.18
0.44
-4.63
-10.17
-16.37
-23.32
-31.07
-39.54
-48.60
-58.08
-67.78
-77.42
-86.54
-94.51
-100.49
-103.47
-102.54
-97.13
-87.22
-73.45
-57.00
-39.23
-21.41
-4.40
11.27
25.36
37.59
47.58
54.92
59.31
60.80
59.89
57.39
54.27
51.29
48.86
46.92
45.13
42.94
39.93
35.90
30.99
25.59
20.12
14.87
9.87
4.89
-0.35
-6.02
-12.04
-18.05
-23.69
-28.67
-33.01
-36.97
-40.96
-45.40
-50.53
-56.44
-63.00
-69.81
-76.16
-81.15
-83.71
-82.94
-78.32
-69.85
-58.10
-43.98
-28.49
-12.57
3.10
18.00
31.63
43.50
53.09
59.97
63.96
65.25
64.35
62.03
59.06
56.11
53.49
51.17
48.90
46.31
43.10
39.12
34.43
29.22
23.71
18.08
12.40
6.59
0.52
-5.87
-12.45
-18.96
-25.11
-30.73
-35.89
-40.92
-46.27
-52.30
-59.21
-66.87
-74.87
-82.49
-88.79
-92.72
-93.32
-89.98
-82.66
-71.88
-58.65
-44.07
-29.09
-14.36
-0.22
13.06
25.20
35.77
44.35
50.63
54.52
56.19
56.00
54.37
51.77
48.61
45.24
41.94
38.84
35.98
33.34
30.87
28.51
26.22
23.90
21.35
18.34
14.63
10.02
4.52
-1.76
-8.61
-15.84
-23.34
-31.13
-39.29
-47.97
-57.30
-67.27
-77.74
-88.26
-98.06
-106.06
-110.99
-111.77
-107.74
-98.90
-85.96
-70.11
-52.67
-34.76
-17.13
-0.21
15.71
30.28
43.05
53.56
61.58
67.21
70.88
73.19
74.66
75.57
75.99
75.91
75.40
74.64
73.80
72.89
71.69
69.80
66.93
63.01
58.26
53.09
47.87
42.84
37.98
33.17
28.28
23.19
17.83
12.02
5.59
-1.67
-9.88
-18.99
-28.78
-38.88
-48.75
-57.68
-64.86
-69.42
-70.60
-67.98
-61.58
-51.93
-39.85
-26.25
-12.02
2.06
15.26
26.84
36.11
42.55
46.03
46.84
45.68
43.42
40.76
38.14
35.69
33.38
31.15
28.97
26.81
24.63
22.31
19.65
16.46
12.54
7.83
2.40
-3.54
-9.69
-15.73
-21.49
-26.99
-32.43
-38.16
-44.43
-51.41
-59.07
-67.17
-75.32
-82.89
-89.08
-92.90
-93.43
-90.07
-82.75
-71.89
-58.32
-43.02
-26.88
-10.69
4.84
18.97
30.95
40.10
46.01
48.74
48.74
46.76
43.64
40.10
36.65
33.60
31.13
29.32
28.16
27.47
26.97
26.27
25.06
23.16
20.66
17.74
14.65
11.55
8.50
5.41
2.07
-1.76
-6.34
-11.95
-18.78
-26.85
-35.88
-45.24
-53.93
-60.76
-64.66
-64.93
-61.36
-54.25
-44.21
-31.94
-18.10
-3.40
11.35
25.17
36.96
45.80
51.20
53.27
52.63
50.13
46.65
42.81
38.95
35.17
31.47
27.80
24.07
20.22
16.14
11.76
6.97
1.70
-4.00
-10.00
-16.05
-21.87
-27.28
-32.39
-37.55
-43.34
-50.28
-58.65
-68.29
-78.54
-88.36
-96.44
-101.48
-102.42
-98.67
-90.24
-77.73
-62.16
-44.67
-26.34
-7.97
9.86
26.64
41.91
55.13
65.82
73.61
78.38
80.32
79.84
77.50
73.87
69.44
64.59
59.57
54.47
49.29
43.97
38.42
32.55
26.39
19.99
13.54
7.23
1.29
-4.23
-9.42
-14.62
-20.33
-27.10
-35.33
-45.05
-55.78
-66.45
-75.64
-81.82
-83.79
-80.91
-73.25
-61.42
-46.42
-29.27
-10.90
7.85
26.26
43.57
59.05
72.00
81.91
88.61
92.25
93.36
92.60
90.66
88.06
85.04
81.68
77.97
73.99
69.87
65.77
61.70
57.41
52.49
46.54
39.35
31.09
22.21
13.31
4.82
-3.11
-10.72
-18.55
-27.25
-37.32
-48.91
-61.69
-74.81
-87.04
-96.99
-103.37
-105.20
-102.00
-93.76
-81.00
-64.55
-45.48
-24.98
-4.19
15.74
33.83
49.20
61.30
69.86
74.98
77.03
76.51
73.95
69.81
64.49
58.33
51.74
45.11
38.79
32.99
27.66
22.55
17.26
11.37
4.57
-3.16
-11.58
-20.25
-28.67
-36.48
-43.57
-50.11
-56.52
-63.29
-70.85
-79.34
-88.44
-97.23
-104.31
-108.10
-107.26
-101.07
-89.64
-73.82
-54.91
-34.32
-13.28
7.15
26.12
42.89
56.82
67.49
74.82
79.03
80.64
80.21
78.28
75.23
71.30
66.68
61.54
56.12
50.65
45.34
40.32
35.60
30.98
26.17
20.79
14.56
7.36
-0.63
-9.05
-17.52
-25.78
-33.82
-41.91
-50.47
-59.86
-70.26
-81.46
-92.79
-103.12
-111.05
-115.17
-114.42
-108.42
-97.47
-82.42
-64.41
-44.61
-24.11
-3.86
15.23
32.38
46.96
58.61
67.30
73.28
76.94
78.69
78.89
77.83
75.72
72.71
68.92
64.48
59.55
54.34
49.10
44.07
39.31
34.74
30.20
25.54
20.71
15.76
10.79
5.73
0.33
-5.85
-13.12
-21.52
-30.58
-39.33
-46.54
-50.99
-51.82
-48.66
-41.74
-31.68
-19.45
-6.18
7.03
19.25
29.80
38.20
44.16
47.38
47.66
44.93
39.42
31.71
22.64
13.14
3.99
-4.31
-11.57
-17.79
-23.08
-27.56
-31.40
-34.78
-37.94
-41.19
-44.74
-48.69
-52.91
-57.02
-60.52
-63.02
-64.48
-65.40
-66.66
-69.29
-74.04
-80.88
-88.96
-96.65
-101.98
-103.17
-99.16
-89.80
-75.80
-58.39
-38.91
-18.50
2.09
22.37
41.92
60.22
76.60
90.44
101.34
109.20
114.22
116.72
116.96
115.10
111.26
105.70
98.85
91.36
83.92
76.92
70.45
64.18
57.51
49.83
40.78
30.30
18.79
6.92
-4.54
-15.00
-24.30
-32.78
-41.12
-50.05
-60.02
-70.93
-82.16
-92.67
-101.28
-106.89
-108.63
-105.99
-98.86
-87.53
-72.69
-55.26
-36.25
-16.58
3.04
22.04
39.95
56.19
70.06
80.77
87.76
90.89
90.70
88.23
84.75
81.33
78.51
76.23
74.02
71.34
67.89
63.73
59.16
54.52
49.97
45.33
40.24
34.32
27.36
19.47
10.96
2.27
-6.30
-14.62
-22.80
-31.11
-39.86
-49.37
-59.86
-71.25
-83.08
-94.39
-103.82
-109.88
-111.35
-107.72
-99.24
-86.86
-71.80
-55.14
-37.53
-19.27
-0.58
18.11
35.94
51.72
64.14
72.21
75.63
74.79
70.77
64.95
58.64
52.79
47.82
43.69
40.09
36.62
32.96
28.94
24.48
19.56
14.17
8.34
2.17
-4.16
-10.40
-16.39
-22.05
-27.52
-33.01
-38.89
-45.49
-53.08
-61.79
-71.42
-81.37
-90.59
-97.71
-101.39
-100.61
-95.05
-85.03
-71.35
-54.98
-36.77
-17.35
2.80
23.05
42.65
60.62
75.96
87.91
96.04
100.38
101.36
99.68
96.15
91.57
86.50
81.25
75.86
70.22
64.20
57.84
51.34
44.90
38.64
32.47
26.06
19.10
11.40
3.02
-5.76
-14.59
-23.22
-31.55
-39.69
-47.87
-56.35
-65.45
-75.44
-86.40
-98.06
-109.57
-119.54
-126.32
-128.47
-125.15
-116.40
-103.01
-86.22
-67.27
-47.14
-26.52
-6.01
13.75
31.97
47.79
60.53
69.80
75.66
78.49
78.81
77.16
74.01
69.79
64.87
59.70
54.67
50.09
46.13
42.76
39.80
36.96
33.85
30.08
25.38
19.58
12.75
5.11
-3.00
-11.26
-19.47
-27.57
-35.73
-44.19
-53.22
-62.95
-73.29
-83.71
-93.19
-100.40
-103.94
-102.78
-96.58
-85.81
-71.55
-55.12
-37.71
-20.11
-2.81
13.93
29.84
44.49
57.40
68.03
76.01
81.13
83.46
83.27
81.01
77.33
72.87
68.23
63.84
59.88
56.36
53.14
50.06
47.00
43.87
40.61
37.08
33.11
28.51
23.17
17.05
10.29
3.08
-4.38
-11.91
-19.41
-26.86
-34.36
-42.06
-50.18
-58.83
-67.96
-77.22
-85.92
-93.09
-97.61
-98.51
-95.20
-87.59
-76.18
-61.81
-45.50
-28.18
-10.55
6.98
24.13
40.59
55.89
69.33
80.13
87.69
91.73
92.45
90.49
86.62
81.62
75.97
69.93
63.55
56.92
50.23
43.74
37.68
32.11
26.85
21.57
15.92
9.60
2.55
-5.12
-13.21
-21.43
-29.55
-37.40
-44.87
-51.98
-58.90
-65.98
-73.63
-82.11
-91.32
-100.60
-108.75
-114.32
-115.95
-112.71
-104.43
-91.52
-74.94
-55.81
-35.19
-13.93
7.33
28.10
47.92
66.19
82.24
95.31
104.79
110.32
111.89
109.90
105.01
98.05
89.96
81.58
73.58
66.35
60.01
54.43
49.36
44.57
39.93
35.35
30.73
25.84
20.30
13.79
6.09
-2.64
-11.95
-21.25
-30.04
-38.21
-46.03
-54.09
-63.05
-73.27
-84.61
-96.30
-107.00
-115.13
-119.19
-118.19
-111.87
-100.73
-85.89
-68.67
-50.33
-31.87
-14.01
2.67
17.59
30.11
39.64
45.84
48.73
48.73
46.65
43.36
39.69
36.19
33.14
30.58
28.45
26.70
25.26
24.08
23.04
21.93
20.51
18.49
15.63
11.83
7.08
1.52
-4.66
-11.27
-18.15
-25.28
-32.73
-40.56
-48.80
-57.38
-66.16
-75.03
-83.96
-92.95
-101.81
-110.10
-116.92
-121.16
-121.79
-118.27
-110.73
-99.95
-87.05
-73.03
-58.47
-43.46
-27.83
-11.42
5.58
22.51
38.34
51.93
62.35
69.11
72.21
72.19
69.82
66.05
61.68
57.33
53.43
50.32
48.25
47.44
47.99
49.74
52.17
54.36
55.18
53.49
48.41
39.46
26.58
10.08
-9.50
-31.40
-54.74
-78.51
-101.77
-123.73
-143.91
-162.17
-178.65
-193.60
-207.22
-219.48
-230.08
-238.34
-243.24
-243.44
-237.47
-224.05
-202.50
-173.12
-137.38
-97.77
-57.26
-18.61
16.28
46.67
72.81
95.50
115.48
133.12
148.42
161.15
171.16
178.55
183.58
186.63
188.04
188.07
186.93
184.75
181.68
177.86
173.38
168.24
162.36
155.47
147.24
137.40
125.86
112.86
98.88
84.56
70.49
57.09
44.55
32.85
21.88
11.45
1.33
-8.73
-19.06
-29.89
-41.25
-52.78
-63.72
-72.98
-79.47
-82.31
-81.11
-75.93
-67.25
-55.69
-41.83
-26.17
-9.16
8.65
26.53
43.58
58.82
71.42
80.87
87.08
90.35
91.22
90.30
88.08
84.95
81.16
76.94
72.53
68.21
64.15
60.43
56.89
53.26
49.21
44.47
39.00
32.89
26.41
19.81
13.33
7.05
0.96
-5.03
-11.06
-17.22
-23.60
-30.27
-37.30
-44.65
-52.14
-59.25
-65.17
-68.93
-69.64
-66.79
-60.49
-51.26
-39.93
-27.21
-13.61
0.54
14.87
28.80
41.60
52.54
61.12
67.13
70.71
72.20
71.96
70.33
67.63
64.20
60.38
56.46
52.57
48.74
44.88
40.93
36.84
32.61
28.29
23.88
19.37
14.79
10.16
5.56
1.05
-3.32
-7.58
-11.75
-15.94
-20.25
-24.79
-29.61
-34.66
-39.77
-44.55
-48.47
-50.96
-51.48
-49.75
-45.74
-39.71
-32.08
-23.38
-14.11
-4.74
4.32
12.69
20.04
26.08
30.60
33.58
35.11
35.45
34.90
33.81
32.46
30.96
29.30
27.38
25.06
22.30
19.20
15.90
12.55
9.19
5.71
1.98
-2.06
-6.35
-10.73
-15.04
-19.26
-23.46
-27.77
-32.22
-36.72
-41.12
-45.27
-49.06
-52.42
-55.18
-57.05
-57.61
-56.51
-53.59
-48.97
-42.96
-35.92
-28.12
-19.73
-11.01
-2.45
5.26
11.39
15.39
17.19
17.17
16.03
14.50
13.14
12.18
11.65
11.39
11.18
10.80
10.04
8.73
6.87
4.49
1.74
-1.19
-4.17
-7.06
-9.80
-12.31
-14.61
-16.79
-19.03
-21.51
-24.35
-27.54
-30.92
-34.21
-37.07
-39.22
-40.39
-40.44
-39.28
-36.93
-33.50
-29.16
-24.13
-18.67
-13.01
-7.37
-1.99
2.86
6.96
10.09
12.15
13.18
13.40
13.06
12.40
11.57
10.60
9.51
8.35
7.24
6.27
5.47
4.74
3.89
2.75
1.27
-0.48
-2.37
-4.31
-6.34
-8.55
-11.04
-13.88
-17.04
-20.44
-24.05
-27.82
-31.63
-35.24
-38.22
-40.09
-40.42
-38.97
-35.83
-31.31
-25.84
-19.83
-13.68
-7.73
-2.29
2.26
5.62
7.61
8.27
7.89
6.87
5.64
4.50
3.49
2.55
1.52
0.29
-1.18
-2.83
-4.55
-6.26
-7.85
-9.29
-10.56
-11.65
-12.63
-13.56
-14.50
-15.51
-16.62
-17.84
-19.20
-20.82
-22.81
-25.30
-28.27
-31.47
-34.37
-36.27
-36.49
-34.64
-30.75
-25.29
-18.96
-12.43
-6.14
-0.21
5.35
10.52
15.12
18.82
21.33
22.54
22.55
21.69
20.36
18.86
17.38
15.97
14.59
13.18
11.73
10.26
8.75
7.18
5.48
3.56
1.39
-1.00
-3.49
-5.94
-8.25
-10.43
-12.65
-15.20
-18.36
-22.27
-26.79
-31.43
-35.44
-37.96
-38.28
-36.05
-31.46
-25.08
-17.82
-10.51
-3.78
2.09
7.06
11.25
14.71
17.40
19.27
20.29
20.53
20.18
19.43
18.40
17.10
15.49
13.47
11.03
8.22
5.18
1.99
-1.31
-4.72
-8.29
-12.01
-15.79
-19.52
-23.20
-26.93
-30.94
-35.47
-40.49
-45.68
-50.39
-53.93
-55.74
-55.60
-53.53
-49.71
-44.33
-37.47
-29.28
-20.08
-10.38
-0.78
8.12
15.86
22.20
27.03
30.32
32.09
32.45
31.59
29.88
27.75
25.63
23.78
22.22
20.74
18.95
16.50
13.24
9.25
4.82
0.31
-4.07
-8.31
-12.61
-17.27
-22.58
-28.68
-35.61
-43.15
-50.92
-58.27
-64.40
-68.43
-69.59
-67.47
-62.09
-53.96
-43.86
-32.71
-21.29
-10.06
0.79
11.30
21.54
31.41
40.58
48.54
54.77
58.92
60.93
61.01
59.54
56.95
53.62
49.80
45.74
41.60
37.48
33.33
29.02
24.39
19.31
13.85
8.16
2.48
-3.07
-8.58
-14.35
-20.84
-28.38
-37.04
-46.43
-55.72
-63.77
-69.42
-71.75
-70.32
-65.24
-57.09
-46.66
-34.77
-22.08
-9.00
4.25
17.47
30.43
42.72
53.81
63.12
70.23
74.95
77.38
77.81
76.65
74.35
71.26
67.69
63.92
60.13
56.46
52.89
49.30
45.46
41.09
35.93
29.83
22.79
15.02
6.91
-1.09
-8.62
-15.52
-21.99
-28.43
-35.36
-43.18
-52.00
-61.49
-70.90
-79.15
-85.11
-87.85
-86.83
-82.02
-73.81
-62.94
-50.20
-36.39
-22.14
-7.92
5.97
19.31
31.85
43.29
53.17
61.03
66.52
69.58
70.48
69.77
68.03
65.74
63.07
60.01
56.46
52.41
47.99
43.43
38.93
34.51
30.02
25.26
20.08
14.55
8.96
3.71
-0.91
-4.89
-8.53
-12.29
-16.62
-21.83
-27.99
-34.97
-42.51
-50.18
-57.36
-63.31
-67.21
-68.36
-66.35
-61.13
-53.06
-42.74
-30.85
-18.05
-4.87
8.28
21.02
33.00
43.79
52.99
60.28
65.49
68.70
70.19
70.33
69.49
67.96
65.91
63.46
60.70
57.70
54.48
50.93
46.93
42.38
37.31
31.95
26.66
21.72
17.31
13.30
9.39
5.12
0.03
-6.23
-13.88
-22.96
-33.29
-44.34
-55.27
-64.98
-72.27
-76.12
-75.94
-71.69
-63.89
-53.50
-41.62
-29.25
-17.08
-5.42
5.68
16.22
26.09
34.96
42.38
47.99
51.69
53.66
54.36
54.26
53.73
52.91
51.80
50.35
48.58
46.63
44.72
42.99
41.40
39.75
37.69
34.89
31.19
26.66
21.59
16.37
11.39
6.92
3.00
-0.50
-3.98
-7.94
-12.94
-19.32
-27.02
-35.48
-43.71
-50.52
-54.87
-56.17
-54.37
-49.85
-43.21
-35.01
-25.66
-15.52
-5.04
5.22
14.62
22.53
28.55
32.55
34.65
35.15
34.37
32.71
30.49
28.04
25.60
23.33
21.26
19.42
17.74
16.14
14.46
12.47
9.96
6.81
3.17
-0.58
-3.92
-6.44
-8.05
-8.99
-9.81
-11.10
-13.29
-16.58
-20.92
-26.18
-32.16
-38.61
-45.12
-51.08
-55.69
-58.19
-58.05
-55.17
-49.85
-42.62
-34.08
-24.73
-14.96
-5.16
4.19
12.51
19.21
23.86
26.37
27.02
26.37
25.07
23.65
22.38
21.28
20.30
19.37
18.55
17.94
17.61
17.39
16.97
15.92
13.94
10.99
7.29
3.17
-1.02
-5.13
-9.26
-13.62
-18.53
-24.19
-30.68
-37.86
-45.36
-52.62
-58.89
-63.42
-65.52
-64.81
-61.26
-55.15
-46.99
-37.29
-26.50
-14.95
-3.00
8.89
20.10
29.96
37.93
43.76
47.50
49.47
50.11
49.72
48.53
46.63
44.17
41.40
38.57
35.92
33.43
30.88
27.90
24.20
19.65
14.38
8.67
2.80
-3.00
-8.61
-13.96
-19.05
-23.94
-28.87
-34.17
-40.16
-47.04
-54.65
-62.47
-69.67
-75.25
-78.28
-78.11
-74.49
-67.65
-58.15
-46.73
-34.10
-20.85
-7.44
5.76
18.33
29.80
39.73
47.72
53.58
57.37
59.31
59.74
59.03
57.48
55.29
52.59
49.50
46.20
42.98
40.05
37.49
35.12
32.52
29.17
24.74
19.20
12.93
6.50
0.39
-5.18
-10.41
-15.71
-21.53
-28.16
-35.64
-43.78
-52.23
-60.49
-67.89
-73.65
-76.92
-77.04
-73.71
-67.11
-57.84
-46.70
-34.44
-21.64
-8.72
3.93
15.84
26.51
35.47
42.43
47.34
50.35
51.76
51.86
50.96
49.30
47.15
44.68
42.03
39.21
36.23
33.10
29.89
26.65
23.32
19.73
15.63
10.82
5.34
-0.51
-6.26
-11.55
-16.33
-20.91
-25.88
-31.76
-38.80
-46.82
-55.20
-63.05
-69.38
-73.30
-74.20
-71.77
-66.10
-57.58
-46.78
-34.36
-21.01
-7.35
6.00
18.47
29.49
38.66
45.71
50.61
53.57
54.93
55.09
54.35
52.92
50.90
48.41
45.54
42.49
39.33
36.08
32.62
28.80
24.52
19.77
14.64
9.22
3.60
-2.15
-7.97
-13.77
-19.47
-25.08
-30.65
-36.36
-42.39
-48.82
-55.59
-62.38
-68.60
-73.48
-76.21
-76.11
-72.83
-66.41
-57.25
-45.92
-33.00
-19.02
-4.53
9.82
23.30
35.12
44.68
51.69
56.22
58.63
59.37
58.89
57.52
55.49
52.99
50.21
47.32
44.44
41.60
38.68
35.48
31.75
27.29
22.03
16.06
9.67
3.19
-3.05
-8.84
-14.18
-19.24
-24.34
-29.85
-36.07
-43.16
-51.00
-59.16
-66.95
-73.45
-77.75
-79.12
-77.14
-71.79
-63.41
-52.58
-40.01
-26.42
-12.44
1.35
14.40
26.19
36.21
44.03
49.38
52.31
53.13
52.40
50.73
48.59
46.20
43.59
40.75
37.68
34.45
31.18
27.89
24.53
20.94
17.00
12.59
7.72
2.45
-3.16
-9.01
-15.03
-21.17
-27.45
-33.96
-40.87
-48.31
-56.22
-64.19
-71.46
-77.00
-79.75
-78.93
-74.30
-66.16
-55.31
-42.69
-29.19
-15.42
-1.79
11.38
23.69
34.63
43.67
50.48
55.00
57.44
58.22
57.73
56.26
54.02
51.27
48.28
45.40
42.88
40.73
38.72
36.45
33.51
29.61
24.74
19.06
12.82
6.26
-0.54
-7.61
-15.02
-22.87
-31.21
-40.05
-49.36
-58.96
-68.48
-77.32
-84.55
-89.18
-90.34
-87.59
-81.08
-71.49
-59.74
-46.68
-32.84
-18.45
-3.54
11.68
26.68
40.60
52.42
61.31
66.89
69.38
69.46
68.12
66.27
64.56
63.29
62.43
61.73
60.77
59.12
56.26
51.81
45.62
37.88
29.15
20.24
11.92
4.74
-1.16
-6.01
-10.38
-14.99
-20.54
-27.64
-36.66
-47.54
-59.69
-71.98
-82.87
-90.79
-94.49
-93.33
-87.49
-77.78
-65.33
-51.27
-36.51
-21.59
-6.80
7.65
21.52
34.50
46.16
56.08
63.94
69.60
73.09
74.64
74.56
73.18
70.76
67.53
63.63
59.21
54.38
49.25
43.95
38.59
33.29
28.15
23.18
18.26
13.19
7.71
1.64
-5.10
-12.45
-20.33
-28.68
-37.57
-47.08
-57.22
-67.72
-77.99
-87.11
-94.07
-98.02
-98.43
-95.30
-88.95
-79.93
-68.78
-55.89
-41.52
-25.94
-9.57
7.01
22.96
37.43
49.61
58.97
65.33
68.95
70.38
70.28
69.19
67.44
65.14
62.33
59.08
55.51
51.77
47.96
43.99
39.72
34.96
29.62
23.71
17.35
10.73
3.99
-2.76
-9.47
-16.18
-22.98
-30.06
-37.60
-45.75
-54.47
-63.44
-72.02
-79.28
-84.21
-85.97
-84.08
-78.55
-69.83
-58.60
-45.55
-31.26
-16.22
-0.83
14.42
28.95
42.16
53.39
62.20
68.37
72.04
73.61
73.64
72.61
70.83
68.44
65.46
62.00
58.27
54.55
50.99
47.53
43.88
39.67
34.65
28.73
22.09
14.99
7.71
0.40
-6.87
-14.13
-21.46
-28.95
-36.70
-44.78
-53.28
-62.19
-71.32
-80.22
-88.15
-94.17
-97.33
-96.94
-92.72
-84.86
-73.97
-60.79
-46.08
-30.45
-14.38
1.75
17.48
32.29
45.57
56.78
65.53
71.70
75.47
77.23
77.53
76.80
75.37
73.30
70.58
67.13
62.98
58.29
53.29
48.24
43.35
38.59
33.82
28.76
23.16
16.89
10.03
2.79
-4.54
-11.68
-18.47
-24.90
-31.17
-37.52
-44.31
-51.82
-60.18
-69.23
-78.35
-86.55
-92.59
-95.35
-94.12
-88.81
-79.95
-68.49
-55.50
-41.85
-28.11
-14.50
-1.05
12.21
25.15
37.35
48.19
56.99
63.13
66.24
66.37
63.87
59.42
53.84
48.03
42.88
39.09
37.15
37.12
38.63
40.92
43.00
43.91
42.91
39.72
34.47
27.72
20.16
12.48
5.14
-1.72
-8.23
-14.69
-21.43
-28.75
-36.88
-45.84
-55.45
-65.18
-74.14
-81.23
-85.36
-85.78
-82.30
-75.31
-65.57
-53.97
-41.18
-27.64
-13.57
0.76
14.89
28.17
39.79
49.09
55.73
59.74
61.50
61.57
60.53
58.83
56.81
54.61
52.34
49.95
47.33
44.30
40.64
36.24
31.06
25.22
18.94
12.48
6.09
-0.06
-5.86
-11.29
-16.42
-21.39
-26.44
-31.77
-37.64
-44.15
-51.30
-58.93
-66.77
-74.33
-81.02
-86.06
-88.69
-88.28
-84.53
-77.55
-67.72
-55.68
-42.03
-27.33
-12.01
3.41
18.40
32.28
44.35
54.08
61.18
65.72
68.07
68.71
68.14
66.69
64.47
61.48
57.72
53.32
48.58
43.88
39.51
35.58
31.97
28.36
24.43
19.95
14.81
9.12
3.01
-3.33
-9.80
-16.35
-22.96
-29.61
-36.23
-42.84
-49.51
-56.43
-63.78
-71.50
-79.11
-85.71
-90.13
-91.30
-88.65
-82.17
-72.42
-60.27
-46.60
-32.14
-17.44
-2.93
10.95
23.76
35.06
44.48
51.80
56.98
60.18
61.72
62.00
61.33
59.88
57.66
54.64
50.89
46.63
42.20
37.93
33.93
30.11
26.16
21.72
16.58
10.70
4.29
-2.36
-8.94
-15.18
-21.04
-26.58
-32.01
-37.62
-43.74
-50.60
-58.25
-66.50
-74.84
-82.45
-88.30
-91.36
-90.84
-86.41
-78.32
-67.35
-54.52
-40.76
-26.75
-12.80
0.99
14.50
27.42
39.23
49.30
57.05
62.19
64.77
65.10
63.68
61.05
57.75
54.09
50.29
46.38
42.33
38.09
33.68
29.17
24.56
19.79
14.73
9.29
3.52
-2.34
-7.93
-12.95
-17.39
-21.52
-25.83
-30.84
-36.84
-43.87
-51.70
-59.95
-68.12
-75.55
-81.53
-85.28
-86.14
-83.69
-77.89
-69.03
-57.67
-44.45
-29.96
-14.76
0.67
15.81
30.14
43.15
54.34
63.30
69.78
73.70
75.30
75.03
73.44
71.05
68.12
64.78
61.03
56.93
52.69
48.55
44.69
41.08
37.43
33.40
28.65
23.08
16.84
10.18
3.42
-3.27
-9.76
-16.12
-22.45
-28.96
-35.84
-43.30
-51.44
-60.11
-68.97
-77.35
-84.43
-89.29
-91.15
-89.55
-84.47
-76.24
-65.50
-52.95
-39.21
-24.81
-10.20
4.23
18.02
30.71
41.79
50.84
57.61
62.07
64.40
65.00
64.34
62.87
60.86
58.42
55.61
52.54
49.41
46.47
43.86
41.47
38.94
35.82
31.72
26.55
20.50
13.93
7.22
0.62
-5.80
-12.11
-18.48
-25.07
-32.03
-39.53
-47.62
-56.23
-65.11
-73.72
-81.28
-86.83
-89.45
-88.45
-83.62
-75.26
-64.08
-50.98
-36.78
-22.05
-7.19
7.42
21.31
33.84
44.40
52.57
58.28
61.78
63.54
64.00
63.48
62.10
59.89
56.87
53.18
49.06
44.87
40.92
37.35
34.04
30.67
26.82
22.15
16.59
10.36
3.89
-2.32
-7.96
-12.97
-17.55
-22.06
-26.91
-32.37
-38.56
-45.40
-52.61
-59.68
-65.94
-70.57
-72.73
-71.75
-67.36
-59.77
-49.68
-38.01
-25.73
-13.53
-1.89
8.93
18.65
26.94
33.45
37.98
40.62
41.72
41.81
41.29
40.31
38.78
36.50
33.39
29.64
25.67
21.90
18.58
15.60
12.57
9.04
4.74
-0.28
-5.69
-11.06
-16.10
-20.80
-25.42
-30.39
-36.07
-42.70
-50.23
-58.37
-66.54
-73.97
-79.73
-82.92
-82.86
-79.24
-72.23
-62.40
-50.50
-37.28
-23.31
-8.98
5.39
19.39
32.48
44.00
53.36
60.25
64.67
66.94
67.56
66.93
65.36
63.00
59.94
56.36
52.51
48.70
45.12
41.75
38.30
34.33
29.45
23.51
16.66
9.33
1.98
-5.06
-11.75
-18.28
-24.96
-32.08
-39.82
-48.22
-57.19
-66.44
-75.41
-83.28
-89.02
-91.64
-90.46
-85.33
-76.67
-65.30
-52.19
-38.08
-23.40
-8.34
6.99
22.27
36.94
50.24
61.40
69.92
75.65
78.85
80.03
79.75
78.43
76.32
73.53
70.16
66.32
62.23
58.11
54.01
49.75
44.99
39.26
32.32
24.18
15.22
5.99
-2.94
-11.26
-18.87
-25.96
-32.85
-39.90
-47.45
-55.73
-64.72
-74.08
-83.04
-90.53
-95.38
-96.67
-93.99
-87.42
-77.53
-65.13
-51.09
-36.20
-21.11
-6.30
7.85
21.02
32.89
43.13
51.39
57.37
60.97
62.31
61.73
59.69
56.65
52.96
48.93
44.86
41.10
37.97
35.68
34.13
32.89
31.33
28.79
24.94
19.88
14.13
8.36
3.13
-1.41
-5.53
-9.80
-14.82
-21.03
-28.61
-37.42
-47.04
-56.72
-65.45
-72.11
-75.67
-75.44
-71.31
-63.66
-53.24
-40.92
-27.44
-13.36
0.87
14.93
28.47
41.13
52.51
62.19
69.85
75.25
78.37
79.38
78.65
76.63
73.74
70.33
66.58
62.65
58.58
54.43
50.19
45.78
41.04
35.81
29.96
23.42
16.27
8.72
1.07
-6.36
-13.30
-19.67
-25.59
-31.40
-37.53
-44.38
-52.14
-60.75
-69.76
-78.47
-85.92
-91.15
-93.36
-92.09
-87.29
-79.28
-68.61
-55.93
-41.84
-26.90
-11.62
3.52
18.13
31.84
44.32
55.21
64.18
70.91
75.27
77.39
77.63
76.51
74.50
71.96
69.01
65.73
62.15
58.32
54.35
50.25
45.98
41.40
36.40
30.89
24.85
18.38
11.62
4.74
-2.10
-8.83
-15.44
-22.01
-28.62
-35.37
-42.37
-49.71
-57.43
-65.42
-73.33
-80.55
-86.25
-89.60
-89.94
-87.01
-80.94
-72.16
-61.22
-48.66
-34.97
-20.60
-5.99
8.39
22.07
34.60
45.54
54.53
61.32
65.80
68.12
68.62
67.79
66.16
64.13
61.93
59.62
57.16
54.49
51.59
48.44
45.01
41.28
37.14
32.51
27.31
21.53
15.23
8.54
1.62
-5.36
-12.26
-18.98
-25.48
-31.81
-38.13
-44.68
-51.70
-59.32
-67.36
-75.34
-82.46
-87.74
-90.35
-89.71
-85.68
-78.50
-68.74
-57.11
-44.33
-31.02
-17.63
-4.54
7.96
19.52
29.76
38.33
44.94
49.49
52.11
53.12
52.96
51.98
50.44
48.44
45.96
43.02
39.72
36.23
32.73
29.32
25.85
22.09
17.76
12.72
7.08
1.16
-4.63
-10.04
-15.03
-19.83
-24.78
-30.18
-36.23
-42.96
-50.29
-58.06
-65.98
-73.53
-79.97
-84.37
-85.88
-83.96
-78.54
-70.08
-59.34
-47.14
-34.13
-20.70
-7.10
6.44
19.59
31.92
42.92
52.16
59.36
64.41
67.35
68.37
67.82
66.10
63.69
60.94
58.09
55.15
52.04
48.63
44.87
40.76
36.36
31.67
26.63
21.22
15.51
9.68
3.93
-1.62
-7.02
-12.49
-18.25
-24.51
-31.30
-38.54
-46.10
-53.88
-61.74
-69.42
-76.44
-82.06
-85.46
-85.94
-83.14
-77.13
-68.34
-57.42
-45.03
-31.71
-17.85
-3.85
9.91
22.87
34.41
43.97
51.16
55.87
58.32
58.97
58.38
57.10
55.51
53.79
51.95
49.91
47.59
44.99
42.17
39.19
36.07
32.70
28.94
24.69
19.95
14.85
9.58
4.23
-1.15
-6.63
-12.25
-18.02
-23.88
-29.84
-35.95
-42.40
-49.30
-56.63
-64.04
-70.95
-76.60
-80.23
-81.22
-79.23
-74.17
-66.27
-55.98
-43.86
-30.53
-16.62
-2.69
10.71
23.06
33.91
42.92
49.90
54.84
57.95
59.54
59.99
59.67
58.81
57.47
55.57
52.99
49.69
45.84
41.74
37.76
34.07
30.62
27.12
23.18
18.55
13.25
7.47
1.52
-4.35
-9.99
-15.40
-20.62
-25.82
-31.20
-37.03
-43.57
-50.98
-59.11
-67.45
-75.10
-80.94
-83.96
-83.50
-79.46
-72.26
-62.65
-51.49
-39.48
-27.12
-14.70
-2.43
9.40
20.34
29.86
37.48
42.92
46.22
47.71
47.86
47.13
45.76
43.86
41.45
38.67
35.75
33.04
30.77
28.88
27.06
24.78
21.64
17.43
12.31
6.64
0.88
-4.64
-9.74
-14.52
-19.21
-24.15
-29.67
-36.02
-43.25
-51.17
-59.30
-66.94
-73.26
-77.46
-78.88
-77.18
-72.34
-64.61
-54.59
-42.96
-30.46
-17.65
-4.91
7.52
19.46
30.57
40.40
48.42
54.24
57.73
59.14
58.92
57.64
55.74
53.53
51.16
48.61
45.91
43.05
40.11
37.10
33.99
30.60
26.67
21.97
16.48
10.48
4.43
-1.23
-6.27
-10.87
-15.50
-20.69
-26.81
-34.01
-42.11
-50.79
-59.58
-67.89
-75.07
-80.40
-83.20
-83.04
-79.82
-73.73
-65.20
-54.78
-42.97
-30.22
-16.94
-3.53
9.56
21.86
32.89
42.26
49.65
54.95
58.22
59.63
59.49
58.17
56.10
53.72
51.34
49.14
47.08
44.95
42.49
39.45
35.71
31.23
26.02
20.22
14.02
7.68
1.48
-4.45
-10.14
-15.81
-21.74
-28.20
-35.30
-43.06
-51.32
-59.80
-67.94
-74.94
-79.83
-81.76
-80.21
-75.24
-67.31
-57.10
-45.20
-32.02
-17.89
-3.24
11.31
24.95
36.92
46.65
53.88
58.68
61.32
62.21
61.80
60.56
58.86
56.96
54.96
52.76
50.22
47.23
43.80
40.04
36.10
32.10
28.00
23.70
19.02
13.85
8.22
2.27
-3.81
-9.84
-15.74
-21.55
-27.40
-33.47
-39.96
-46.97
-54.50
-62.30
-69.85
-76.34
-80.79
-82.33
-80.33
-74.71
-65.85
-54.47
-41.46
-27.61
-13.56
0.30
13.69
26.39
38.11
48.50
57.17
63.79
68.23
70.59
71.18
70.41
68.67
66.26
63.36
60.08
56.56
52.91
49.20
45.47
41.60
37.44
32.77
27.43
21.34
14.60
7.47
0.30
-6.53
-12.82
-18.55
-23.97
-29.45
-35.42
-42.18
-49.81
-58.12
-66.61
-74.52
-80.88
-84.74
-85.33
-82.26
-75.65
-66.05
-54.27
-41.23
-27.70
-14.26
-1.23
11.22
22.96
33.84
43.59
51.86
58.33
62.81
65.28
65.97
65.24
63.47
61.04
58.24
55.28
52.31
49.44
46.68
43.94
41.03
37.71
33.76
29.11
23.83
18.12
12.25
6.47
0.87
-4.53
-9.84
-15.20
-20.77
-26.67
-33.10
-40.19
-47.97
-56.27
-64.62
-72.39
-78.81
-83.20
-85.01
-83.94
-79.92
-73.11
-63.92
-52.88
-40.62
-27.69
-14.56
-1.58
10.91
22.47
32.63
40.95
47.17
51.33
53.71
54.75
54.89
54.46
53.66
52.64
51.44
50.12
48.63
46.93
45.01
42.88
40.53
37.94
35.01
31.59
27.55
22.90
17.76
12.35
6.82
1.26
-4.37
-10.18
-16.27
-22.77
-29.76
-37.31
-45.41
-53.83
-62.14
-69.65
-75.51
-78.92
-79.28
-76.33
-70.23
-61.46
-50.76
-38.85
-26.36
-13.69
-1.06
11.40
23.46
34.77
44.79
52.98
58.95
62.64
64.35
64.62
63.99
62.93
61.62
60.08
58.25
56.07
53.56
50.78
47.80
44.61
41.16
37.33
32.96
27.98
22.36
16.23
9.81
3.40
-2.75
-8.51
-13.94
-19.22
-24.51
-29.99
-35.79
-41.96
-48.48
-55.16
-61.58
-67.07
-70.74
-71.71
-69.45
-63.86
-55.42
-44.93
-33.27
-21.14
-8.95
3.05
14.67
25.56
35.26
43.26
49.18
52.90
54.64
54.80
53.90
52.38
50.53
48.48
46.17
43.49
40.32
36.67
32.62
28.33
23.96
19.59
15.18
10.67
5.97
1.10
-3.90
-8.97
-14.04
-19.11
-24.15
-29.16
-34.13
-39.09
-44.13
-49.37
-54.91
-60.69
-66.40
-71.44
-75.07
-76.46
-74.99
-70.38
-62.80
-52.85
-41.36
-29.14
-16.81
-4.78
6.65
17.15
26.25
33.46
38.46
41.29
42.36
42.34
41.84
41.29
40.78
40.19
39.29
37.93
36.08
33.84
31.37
28.78
26.09
23.18
19.87
15.99
11.47
6.43
1.12
-4.19
-9.27
-14.03
-18.54
-22.97
-27.58
-32.57
-38.15
-44.41
-51.32
-58.61
-65.76
-71.98
-76.38
-78.11
-76.63
-71.88
-64.28
-54.57
-43.56
-31.90
-19.96
-7.92
4.11
15.89
26.98
36.86
44.98
51.05
55.00
57.08
57.67
57.24
56.16
54.69
52.97
50.99
48.73
46.17
43.36
40.41
37.39
34.24
30.80
26.88
22.31
17.10
11.39
5.38
-0.69
-6.73
-12.70
-18.67
-24.74
-31.05
-37.72
-44.87
-52.53
-60.53
-68.49
-75.77
-81.59
-85.14
-85.78
-83.16
-77.36
-68.87
-58.47
-46.97
-35.03
-23.03
-11.10
0.64
11.97
22.39
31.28
38.07
42.49
44.64
45.02
44.24
42.85
41.16
39.27
37.11
34.63
31.88
29.07
26.42
24.06
21.92
19.77
17.25
14.16
10.45
6.30
1.93
-2.44
-6.84
-11.40
-16.40
-22.03
-28.41
-35.48
-43.06
-50.84
-58.31
-64.86
-69.78
-72.40
-72.25
-69.16
-63.32
-55.13
-45.15
-33.87
-21.67
-8.84
4.34
17.52
30.14
41.48
50.82
57.62
61.73
63.43
63.36
62.25
60.71
59.05
57.26
55.21
52.79
50.02
47.00
43.88
40.76
37.57
34.19
30.44
26.22
21.49
16.31
10.76
4.95
-1.03
-7.18
-13.49
-20.01
-26.78
-33.89
-41.37
-49.24
-57.44
-65.75
-73.72
-80.62
-85.56
-87.64
-86.30
-81.39
-73.27
-62.65
-50.32
-36.96
-23.02
-8.82
5.33
19.02
31.73
42.91
52.10
59.07
63.74
66.32
67.12
66.58
65.15
63.22
61.05
58.75
56.36
53.90
51.39
48.89
46.31
43.49
40.15
36.04
31.08
25.43
19.39
13.30
7.38
1.63
-4.07
-9.85
-15.78
-21.91
-28.24
-34.88
-41.96
-49.53
-57.40
-65.05
-71.63
-76.21
-78.02
-76.65
-72.16
-65.02
-55.86
-45.33
-33.90
-21.85
-9.36
3.38
16.05
28.08
38.81
47.59
54.02
58.08
60.16
60.83
60.69
60.11
59.22
57.97
56.26
54.06
51.44
48.46
45.14
41.37
37.07
32.21
26.92
21.41
15.90
10.50
5.17
-0.14
-5.51
-10.95
-16.44
-21.93
-27.44
-33.04
-38.76
-44.64
-50.65
-56.70
-62.56
-67.90
-72.24
-74.99
-75.54
-73.44
-68.44
-60.62
-50.33
-38.12
-24.60
-10.42
3.82
17.50
29.98
40.70
49.17
55.24
59.08
61.19
62.22
62.67
62.79
62.58
61.84
60.43
58.29
55.49
52.13
48.31
44.13
39.69
35.12
30.54
26.03
21.57
17.08
12.47
7.76
3.01
-1.58
-5.88
-9.80
-13.42
-16.90
-20.57
-24.78
-29.79
-35.67
-42.19
-48.82
-54.77
-59.18
-61.32
-60.73
-57.33
-51.45
-43.61
-34.45
-24.53
-14.27
-3.93
6.19
15.77
24.39
31.62
37.13
40.74
42.53
42.77
41.87
40.25
38.27
36.16
34.05
31.98
29.97
28.04
26.15
24.21
22.06
19.55
16.53
12.94
8.88
4.52
0.07
-4.24
-8.30
-12.07
-15.61
-19.12
-22.81
-26.89
-31.50
-36.68
-42.29
-48.04
-53.46
-58.00
-61.06
-62.17
-61.05
-57.66
-52.17
-44.83
-35.97
-25.93
-15.15
-4.18
6.30
15.58
23.05
28.38
31.57
32.94
33.02
32.36
31.42
30.47
29.55
28.59
27.48
26.15
24.59
22.75
20.54
17.81
14.43
10.44
6.06
1.59
-2.65
-6.48
-9.93
-13.19
-16.57
-20.38
-24.90
-30.28
-36.50
-43.37
-50.48
-57.27
-63.06
-67.16
-69.03
-68.33
-64.97
-59.21
-51.48
-42.30
-32.11
-21.31
-10.25
0.66
10.81
19.55
26.30
30.79
33.17
33.93
33.77
33.30
32.85
32.45
31.93
31.08
29.77
28.03
25.95
23.57
20.82
17.60
13.79
9.39
4.57
-0.37
-5.17
-9.66
-13.91
-18.21
-22.96
-28.53
-35.09
-42.52
-50.34
-57.80
-64.09
-68.47
-70.43
-69.77
-66.53
-60.94
-53.25
-43.75
-32.76
-20.71
-8.05
4.65
16.83
28.00
37.74
45.72
51.76
55.79
57.98
58.58
57.93
56.38
54.16
51.46
48.43
45.22
41.99
38.83
35.69
32.34
28.52
24.02
18.80
13.01
6.96
0.95
-4.78
-10.16
-15.31
-20.50
-26.14
-32.57
-39.97
-48.15
-56.50
-64.06
-69.76
-72.71
-72.44
-69.02
-62.87
-54.63
-44.85
-33.95
-22.21
-9.89
2.66
14.94
26.37
36.44
44.74
51.10
55.55
58.24
59.40
59.29
58.15
56.21
53.66
50.68
47.46
44.16
40.86
37.50
33.94
29.96
25.43
20.38
14.96
9.44
4.00
-1.30
-6.56
-11.94
-17.59
-23.59
-29.99
-36.85
-44.20
-52.00
-59.98
-67.60
-74.04
-78.38
-79.85
-78.03
-72.96
-65.01
-54.78
-42.89
-29.87
-16.18
-2.23
11.57
24.73
36.72
47.01
55.21
61.12
64.82
66.64
67.04
66.49
65.35
63.76
61.76
59.32
56.47
53.37
50.19
47.06
43.95
40.66
36.96
32.66
27.72
22.24
16.46
10.56
4.70
-1.13
-6.95
-12.83
-18.81
-24.90
-31.19
-37.80
-44.91
-52.55
-60.54
-68.33
-75.06
-79.75
-81.50
-79.77
-74.52
-66.22
-55.65
-43.70
-31.09
-18.25
-5.33
7.59
20.31
32.38
43.14
51.92
58.31
62.29
64.24
64.73
64.32
63.41
62.18
60.69
58.94
56.88
54.44
51.49
47.88
43.51
38.44
32.87
27.10
21.38
15.87
10.54
5.32
0.09
-5.17
-10.38
-15.40
-20.13
-24.56
-28.83
-33.23
-38.05
-43.55
-49.74
-56.31
-62.59
-67.63
-70.45
-70.31
-66.93
-60.53
-51.74
-41.32
-30.00
-18.35
-6.83
4.10
13.93
22.15
28.34
32.39
34.44
34.95
34.46
33.50
32.38
31.20
29.83
28.12
25.99
23.55
21.07
18.87
17.15
15.89
14.85
13.66
12.01
9.81
7.11
4.12
1.05
-2.01
-5.02
-8.04
-11.11
-14.37
-17.98
-22.26
-27.50
-33.89
-41.27
-49.03
-56.22
-61.69
-64.47
-63.98
-60.16
-53.38
-44.26
-33.47
-21.61
-9.15
3.47
15.83
27.49
37.98
46.90
53.93
58.96
62.06
63.52
63.68
62.87
61.28
59.00
56.01
52.41
48.38
44.26
40.34
36.81
33.57
30.33
26.70
22.36
17.21
11.41
5.31
-0.70
-6.32
-11.42
-16.04
-20.37
-24.75
-29.54
-35.12
-41.74
-49.41
-57.80
-66.16
-73.49
-78.71
-80.99
-79.86
-75.38
-67.91
-58.04
-46.34
-33.34
-19.52
-5.33
8.72
22.11
34.36
45.05
53.88
60.69
65.43
68.17
69.08
68.37
66.36
63.34
59.65
55.64
51.63
47.88
44.55
41.61
38.88
36.03
32.73
28.70
23.89
18.40
12.45
6.29
0.10
-6.06
-12.15
-18.12
-23.93
-29.53
-35.04
-40.66
-46.66
-53.16
-59.97
-66.46
-71.78
-75.01
-75.49
-72.93
-67.43
-59.30
-48.93
-36.75
-23.21
-8.87
5.55
19.26
31.40
41.33
48.65
53.38
55.86
56.65
56.40
55.63
54.66
53.53
52.15
50.32
47.96
45.13
41.96
38.63
35.27
31.92
28.50
24.96
21.26
17.40
13.37
9.17
4.83
0.39
-4.02
-8.28
-12.36
-16.40
-20.72
-25.74
-31.79
-38.90
-46.71
-54.49
-61.27
-66.05
-68.03
-66.75
-62.12
-54.43
-44.16
-31.93
-18.42
-4.28
9.80
23.10
34.85
44.41
51.30
55.37
56.81
56.10
53.83
50.52
46.55
42.16
37.44
32.50
27.43
22.37
17.44
12.63
7.86
2.94
-2.31
-7.94
-13.81
-19.59
-24.90
-29.43
-33.08
-35.93
-38.22
-40.24
-42.26
-44.52
-47.29
-50.80
-55.19
-60.34
-65.78
-70.65
-73.88
-74.46
-71.72
-65.50
-56.19
-44.55
-31.36
-17.35
-3.07
11.01
24.30
36.06
45.54
52.13
55.71
56.66
55.73
53.77
51.48
49.20
47.04
44.97
42.98
41.15
39.59
38.38
37.42
36.46
35.15
33.14
30.22
26.38
21.82
16.77
11.48
6.05
0.44
-5.42
-11.59
-18.03
-24.68
-31.51
-38.57
-45.91
-53.39
-60.57
-66.70
-70.89
-72.38
-70.79
-66.20
-59.10
-50.04
-39.52
-27.92
-15.54
-2.84
9.49
20.62
29.79
36.53
40.90
43.34
44.55
45.16
45.52
45.61
45.24
44.17
42.35
39.94
37.28
34.63
32.07
29.39
26.24
22.22
17.15
11.05
4.16
-3.26
-11.07
-19.22
-27.76
-36.68
-45.86
-55.08
-64.12
-72.77
-80.75
-87.70
-93.03
-96.08
-96.22
-93.18
-87.01
-78.14
-67.21
-54.81
-41.48
-27.65
-13.76
-0.32
12.03
22.64
31.02
36.98
40.70
42.72
43.77
44.48
45.21
45.99
46.60
46.77
46.39
45.55
44.44
43.18
41.75
39.97
37.64
34.64
31.04
26.98
22.67
18.22
13.72
9.18
4.62
0.00
-4.86
-10.27
-16.59
-23.98
-32.21
-40.56
-47.95
-53.25
-55.57
-54.51
-50.14
-42.89
-33.31
-22.05
-9.75
2.92
15.16
26.21
35.38
42.23
46.70
49.07
49.83
49.52
48.58
47.23
45.52
43.37
40.73
37.62
34.17
30.58
26.99
23.42
19.76
15.79
11.32
6.26
0.67
-5.24
-11.23
-17.11
-22.81
-28.42
-34.08
-40.03
-46.44
-53.44
-60.99
-68.82
-76.33
-82.65
-86.73
-87.65
-84.85
-78.31
-68.54
-56.39
-42.83
-28.73
-14.89
-1.98
9.35
18.59
25.39
29.74
31.98
32.66
32.41
31.69
30.78
29.82
28.89
28.11
27.60
27.33
27.05
26.33
24.69
21.75
17.44
11.94
5.64
-1.03
-7.72
-14.20
-20.36
-26.30
-32.23
-38.42
-45.12
-52.27
-59.41
-65.66
-69.93
-71.17
-68.76
-62.59
-53.10
-41.01
-27.15
-12.28
2.89
17.71
31.46
43.47
53.12
59.99
63.95
65.17
64.02
61.08
56.95
52.26
47.52
43.11
39.21
35.82
32.80
29.92
26.85
23.29
18.92
13.51
7.03
-0.34
-8.28
-16.45
-24.66
-32.98
-41.68
-51.09
-61.32
-72.06
-82.52
-91.54
-97.83
-100.40
-98.74
-92.94
-83.58
-71.45
-57.29
-41.67
-25.02
-7.79
9.43
25.88
40.74
53.29
63.05
69.82
73.60
74.61
73.23
70.03
65.66
60.71
55.62
50.56
45.45
40.11
34.37
28.16
21.59
14.93
8.50
2.63
-2.52
-7.07
-11.42
-16.26
-22.33
-30.18
-39.94
-51.12
-62.68
-73.12
-80.87
-84.60
-83.54
-77.65
-67.54
-54.26
-38.95
-22.54
-5.69
11.15
27.65
43.35
57.75
70.30
80.54
88.20
93.23
95.75
96.03
94.48
91.54
87.69
83.34
78.76
74.02
69.02
63.53
57.31
50.20
42.22
33.54
24.50
15.49
6.86
-1.27
-9.05
-16.92
-25.56
-35.59
-47.41
-60.85
-75.16
-88.96
-100.54
-108.21
-110.71
-107.52
-98.96
-86.01
-70.05
-52.38
-33.96
-15.32
3.31
21.73
39.45
55.66
69.43
79.95
86.92
90.62
91.72
91.01
89.11
86.37
82.90
78.76
74.05
68.95
63.62
58.12
52.36
46.20
39.53
32.43
25.10
17.81
10.78
4.09
-2.34
-8.73
-15.40
-22.67
-30.85
-40.19
-50.80
-62.58
-75.14
-87.65
-98.84
-107.25
-111.50
-110.69
-104.73
-94.26
-80.44
-64.48
-47.29
-29.36
-10.85
8.06
26.89
44.87
60.98
74.32
84.34
90.97
94.59
95.86
95.46
93.92
91.52
88.34
84.34
79.51
73.97
67.99
61.89
55.95
50.30
44.90
39.53
33.98
28.00
21.46
14.25
6.39
-2.04
-10.84
-19.75
-28.55
-37.12
-45.58
-54.22
-63.39
-73.34
-83.95
-94.62
-104.27
-111.53
-115.08
-114.01
-108.08
-97.73
-83.92
-67.77
-50.24
-32.04
-13.64
4.51
21.87
37.71
51.30
62.00
69.52
73.89
75.51
74.92
72.67
69.18
64.74
59.54
53.81
47.84
42.01
36.69
32.01
27.88
23.90
19.52
14.25
7.84
0.36
-7.85
-16.25
-24.29
-31.55
-37.83
-43.15
-47.74
-51.92
-56.04
-60.28
-64.63
-68.70
-71.81
-73.09
-71.76
-67.35
-59.84
-49.72
-37.73
-24.67
-11.12
2.61
16.32
29.80
42.55
53.89
63.05
69.46
72.92
73.69
72.35
69.62
66.10
62.18
58.08
53.88
49.67
45.62
41.89
38.60
35.69
32.88
29.69
25.60
20.18
13.31
5.24
-3.52
-12.39
-20.90
-28.85
-36.33
-43.59
-50.95
-58.66
-66.92
-75.79
-85.09
-94.29
-102.56
-108.78
-111.83
-110.90
-105.62
-96.17
-83.12
-67.28
-49.42
-30.24
-10.39
9.50
28.76
46.59
62.14
74.66
83.64
88.89
90.65
89.56
86.47
82.27
77.62
72.98
68.52
64.29
60.23
56.28
52.31
48.11
43.39
37.86
31.27
23.58
15.02
5.97
-3.07
-11.65
-19.54
-26.73
-33.45
-40.03
-46.86
-54.26
-62.47
-71.53
-81.18
-90.83
-99.46
-105.78
-108.51
-106.76
-100.21
-89.25
-74.75
-57.79
-39.42
-20.49
-1.66
16.46
33.29
48.20
60.61
70.05
76.31
79.51
80.11
78.84
76.50
73.78
71.07
68.43
65.71
62.71
59.31
55.54
51.51
47.26
42.69
37.58
31.67
24.80
17.09
8.90
0.74
-6.89
-13.69
-19.65
-25.06
-30.35
-35.99
-42.37
-49.80
-58.43
-68.17
-78.62
-88.90
-97.71
-103.60
-105.27
-102.04
-93.98
-81.92
-67.05
-50.64
-33.66
-16.70
-0.14
15.76
30.65
44.06
55.48
64.51
70.91
74.74
76.34
76.19
74.84
72.71
70.09
67.04
63.57
59.62
55.19
50.32
45.07
39.52
33.74
27.81
21.79
15.70
9.51
3.11
-3.55
-10.52
-17.72
-25.02
-32.31
-39.54
-46.78
-54.17
-61.91
-70.12
-78.83
-87.82
-96.61
-104.36
-110.08
-112.71
-111.46
-106.05
-96.75
-84.27
-69.57
-53.53
-36.87
-20.07
-3.61
12.03
26.20
38.29
47.80
54.59
58.88
61.20
62.14
62.23
61.70
60.55
58.64
55.93
52.57
48.88
45.25
41.96
39.06
36.30
33.26
29.49
24.68
18.66
11.53
3.50
-5.16
-14.19
-23.38
-32.64
-41.97
-51.49
-61.36
-71.73
-82.54
-93.36
-103.37
-111.44
-116.36
-117.18
-113.47
-105.42
-93.71
-79.28
-63.07
-45.82
-28.02
-9.96
8.08
25.78
42.60
57.84
70.71
80.56
87.02
90.13
90.35
88.40
85.05
81.00
76.75
72.61
68.73
65.11
61.69
58.30
54.68
50.53
45.54
39.47
32.33
24.29
15.72
7.01
-1.46
-9.54
-17.24
-24.68
-32.08
-39.65
-47.59
-56.09
-65.26
-74.99
-84.89
-94.14
-101.60
-106.08
-106.60
-102.69
-94.47
-82.54
-67.75
-51.01
-33.06
-14.48
4.22
22.55
39.91
55.58
68.84
79.08
85.93
89.46
90.15
88.78
86.23
83.18
80.02
76.81
73.42
69.70
65.57
61.00
56.00
50.49
44.40
37.68
30.40
22.74
14.95
7.28
-0.09
-7.08
-13.72
-20.16
-26.60
-33.25
-40.31
-47.94
-56.28
-65.42
-75.40
-86.03
-96.70
-106.36
-113.57
-116.96
-115.56
-109.20
-98.52
-84.63
-68.73
-51.68
-33.95
-15.76
2.63
20.67
37.58
52.42
64.42
73.18
78.71
81.41
81.87
80.73
78.56
75.78
72.64
69.26
65.67
61.84
57.74
53.38
48.77
43.95
38.90
33.60
28.03
22.15
16.00
9.66
3.22
-3.21
-9.60
-15.98
-22.41
-28.96
-35.76
-43.00
-50.91
-59.67
-69.24
-79.17
-88.63
-96.38
-101.14
-101.91
-98.20
-90.17
-78.51
-64.17
-48.09
-31.05
-13.59
3.87
20.97
37.29
52.32
65.54
76.45
84.68
90.05
92.58
92.56
90.51
87.13
83.24
79.51
76.39
73.89
71.64
69.09
65.69
61.16
55.51
49.04
42.09
34.93
27.63
20.12
12.36
4.37
-3.66
-11.51
-18.99
-26.08
-32.90
-39.69
-46.71
-54.15
-62.14
-70.70
-79.72
-88.78
-97.16
-103.80
-107.45
-107.06
-102.05
-92.49
-79.10
-62.99
-45.29
-26.94
-8.54
9.44
26.56
42.28
55.96
67.05
75.19
80.37
82.88
83.25
82.13
80.10
77.58
74.81
71.79
68.42
64.55
60.16
55.29
50.10
44.71
39.13
33.28
27.02
20.24
13.01
5.50
-2.05
-9.45
-16.61
-23.55
-30.37
-37.23
-44.33
-51.90
-60.14
-69.16
-78.90
-88.91
-98.35
-106.06
-110.75
-111.44
-107.66
-99.61
-88.06
-74.07
-58.65
-42.55
-26.16
-9.79
6.26
21.47
35.15
46.60
55.28
60.97
63.79
64.19
62.79
60.19
56.91
53.22
49.30
45.21
41.05
36.96
33.08
29.47
26.05
22.54
18.63
14.04
8.67
2.65
-3.78
-10.33
-16.77
-23.02
-29.17
-35.44
-42.06
-49.17
-56.73
-64.54
-72.15
-79.01
-84.39
-87.50
-87.60
-84.15
-77.02
-66.55
-53.47
-38.67
-22.98
-6.95
9.10
24.95
40.23
54.37
66.61
76.17
82.51
85.46
85.26
82.59
78.30
73.26
68.13
63.26
58.71
54.38
50.16
45.97
41.79
37.58
33.21
28.52
23.32
17.51
11.11
4.29
-2.76
-9.83
-16.77
-23.54
-30.26
-37.15
-44.53
-52.71
-61.89
-71.96
-82.47
-92.64
-101.38
-107.57
-110.21
-108.64
-102.68
-92.60
-79.04
-62.79
-44.66
-25.39
-5.66
13.86
32.44
49.30
63.65
74.87
82.60
86.86
88.05
86.91
84.27
80.97
77.61
74.51
71.66
68.82
65.64
61.81
57.13
51.59
45.33
38.49
31.29
23.85
16.26
8.65
1.18
-5.94
-12.55
-18.64
-24.45
-30.42
-37.07
-44.82
-53.88
-64.13
-75.03
-85.69
-94.88
-101.29
-103.69
-101.32
-94.08
-82.56
-67.90
-51.31
-33.86
-16.23
1.24
18.30
34.61
49.64
62.75
73.33
81.02
85.77
87.84
87.75
86.06
83.33
79.93
76.04
71.64
66.67
61.08
54.96
48.52
42.03
35.66
29.48
23.40
17.27
11.02
4.66
-1.69
-7.93
-14.08
-20.31
-26.88
-34.04
-41.93
-50.57
-59.82
-69.44
-79.11
-88.32
-96.36
-102.36
-105.38
-104.72
-100.05
-91.54
-79.81
-65.72
-50.16
-33.84
-17.28
-0.92
14.80
29.31
41.97
52.12
59.35
63.59
65.15
64.66
62.79
60.14
57.07
53.71
50.01
45.95
41.57
37.08
32.75
28.76
25.14
21.64
17.83
13.27
7.71
1.24
-5.77
-12.82
-19.49
-25.68
-31.56
-37.51
-43.97
-51.18
-59.17
-67.64
-75.98
-83.40
-88.93
-91.66
-90.91
-86.37
-78.18
-66.80
-52.90
-37.20
-20.33
-2.85
14.65
31.52
46.93
59.99
69.95
76.40
79.44
79.68
78.02
75.29
72.08
68.58
64.73
60.44
55.81
51.07
46.54
42.36
38.43
34.39
29.77
24.20
17.52
9.86
1.56
-6.87
-14.99
-22.44
-29.16
-35.35
-41.45
-48.01
-55.54
-64.31
-74.17
-84.56
-94.44
-102.52
-107.49
-108.33
-104.51
-96.19
-84.05
-69.08
-52.35
-34.72
-16.86
0.79
17.76
33.54
47.45
58.83
67.20
72.38
74.59
74.34
72.30
69.15
65.43
61.53
57.68
53.95
50.33
46.69
42.89
38.81
34.37
29.59
24.52
19.28
14.04
8.94
4.07
-0.59
-5.15
-9.88
-15.05
-20.97
-27.90
-36.01
-45.36
-55.72
-66.49
-76.70
-85.15
-90.65
-92.33
-89.86
-83.48
-73.81
-61.66
-47.77
-32.76
-17.06
-0.98
15.15
30.92
45.78
59.03
69.98
78.08
83.15
85.45
85.57
84.24
82.05
79.29
76.03
72.13
67.53
62.28
56.53
50.52
44.49
38.56
32.74
26.94
20.97
14.70
8.04
1.05
-6.11
-13.27
-20.30
-27.22
-34.13
-41.22
-48.68
-56.69
-65.34
-74.56
-83.95
-92.81
-100.07
-104.53
-105.20
-101.54
-93.58
-81.92
-67.45
-51.13
-33.77
-15.97
1.80
19.18
35.75
51.05
64.51
75.56
83.72
88.74
90.68
90.01
87.45
83.81
79.82
75.90
72.22
68.71
65.20
61.55
57.66
53.44
48.80
43.55
37.50
30.57
22.82
14.56
6.20
-1.92
-9.57
-16.79
-23.79
-30.81
-38.06
-45.67
-53.75
-62.40
-71.67
-81.43
-91.19
-100.01
-106.71
-110.12
-109.41
-104.38
-95.41
-83.31
-68.96
-53.10
-36.22
-18.71
-0.99
16.26
32.17
45.80
56.36
63.45
67.14
67.95
66.73
64.44
61.91
59.60
57.57
55.47
52.85
49.39
45.07
40.19
35.11
30.08
25.08
19.91
14.37
8.45
2.38
-3.52
-9.02
-14.17
-19.25
-24.70
-30.90
-38.03
-46.07
-54.80
-63.89
-72.87
-81.14
-87.87
-92.15
-93.11
-90.13
-83.08
-72.32
-58.63
-42.96
-26.22
-9.06
8.04
24.71
40.50
54.81
66.94
76.25
82.39
85.44
85.88
84.50
82.09
79.18
75.97
72.40
68.26
63.48
58.19
52.67
47.21
41.94
36.77
31.41
25.61
19.19
12.18
4.77
-2.82
-10.43
-17.99
-25.48
-32.92
-40.30
-47.59
-54.85
-62.22
-69.95
-78.16
-86.68
-94.84
-101.54
-105.45
-105.48
-101.06
-92.34
-80.05
-65.20
-48.73
-31.35
-13.47
4.55
22.34
39.33
54.83
68.10
78.52
85.70
89.57
90.42
88.81
85.49
81.21
76.62
72.14
68.02
64.34
61.07
58.08
55.15
51.99
48.24
43.59
37.85
31.01
23.30
15.13
6.95
-0.81
-7.88
-14.26
-20.14
-25.93
-32.12
-39.15
-47.36
-56.84
-67.36
-78.32
-88.76
-97.48
-103.23
-105.07
-102.53
-95.77
-85.47
-72.56
-57.92
-42.18
-25.70
-8.72
8.44
25.17
40.58
53.70
63.70
70.20
73.41
74.02
73.01
71.27
69.38
67.51
65.49
63.03
59.89
56.05
51.63
46.82
41.74
36.42
30.82
24.86
18.54
11.89
5.00
-2.01
-9.00
-15.88
-22.60
-29.23
-35.90
-42.86
-50.34
-58.57
-67.62
-77.29
-87.02
-95.81
-102.47
-105.81
-105.01
-99.84
-90.68
-78.32
-63.68
-47.58
-30.61
-13.26
3.95
20.33
35.05
47.30
56.51
62.54
65.66
66.49
65.75
64.01
61.62
58.65
55.05
50.82
46.12
41.25
36.53
32.20
28.19
24.22
19.89
14.86
9.04
2.57
-4.19
-10.94
-17.50
-23.93
-30.45
-37.33
-44.80
-53.00
-61.90
-71.35
-80.93
-89.93
-97.42
-102.31
-103.68
-100.98
-94.18
-83.79
-70.67
-55.69
-39.55
-22.71
-5.46
11.86
28.63
43.97
56.89
66.56
72.61
75.28
75.34
73.81
71.66
69.55
67.69
65.98
64.18
62.08
59.62
56.83
53.72
50.25
46.27
41.60
36.16
30.03
23.43
16.62
9.78
2.97
-3.91
-11.08
-18.69
-26.87
-35.60
-44.82
-54.46
-64.37
-74.29
-83.64
-91.52
-96.81
-98.45
-95.76
-88.68
-77.77
-63.97
-48.34
-31.67
-14.56
2.60
19.43
35.36
49.72
61.80
71.08
77.29
80.55
81.33
80.25
78.03
75.30
72.53
69.96
67.70
65.70
63.81
61.78
59.29
55.99
51.62
46.12
39.70
32.78
25.83
19.21
13.01
7.09
1.19
-4.93
-11.32
-17.86
-24.34
-30.65
-36.84
-43.24
-50.31
-58.49
-67.99
-78.59
-89.55
-99.65
-107.48
-111.70
-111.41
-106.36
-96.97
-84.14
-68.91
-52.25
-34.85
-17.15
0.56
17.98
34.67
50.08
63.54
74.46
82.37
87.07
88.69
87.64
84.58
80.26
75.38
70.51
66.01
61.94
58.16
54.34
50.10
45.13
39.36
32.89
26.02
19.04
12.14
5.34
-1.47
-8.45
-15.71
-23.24
-30.90
-38.53
-46.01
-53.27
-60.37
-67.49
-74.91
-82.87
-91.46
-100.42
-108.98
-116.00
-120.11
-120.12
-115.42
-106.08
-92.81
-76.69
-58.81
-40.05
-21.00
-2.10
16.22
33.38
48.73
61.62
71.56
78.45
82.49
84.22
84.28
83.27
81.58
79.40
76.72
73.48
69.66
65.33
60.60
55.53
50.15
44.41
38.26
31.63
24.50
16.96
9.11
1.17
-6.62
-14.01
-20.89
-27.27
-33.40
-39.69
-46.60
-54.54
-63.70
-74.00
-84.99
-95.86
-105.49
-112.59
-115.92
-114.64
-108.47
-97.85
-83.71
-67.17
-49.26
-30.67
-11.82
7.03
25.45
42.83
58.36
71.25
80.98
87.46
91.01
92.18
91.59
89.73
86.93
83.45
79.51
75.41
71.36
67.47
63.64
59.61
55.12
50.05
44.45
38.52
32.42
26.18
19.65
12.63
5.01
-3.13
-11.55
-19.89
-27.91
-35.52
-42.86
-50.27
-58.13
-66.79
-76.32
-86.46
-96.47
-105.23
-111.46
-114.00
-112.08
-105.52
-94.68
-80.29
-63.30
-44.68
-25.26
-5.74
13.27
31.20
47.49
61.55
72.87
81.14
86.37
88.93
89.44
88.60
86.99
84.98
82.72
80.24
77.50
74.44
71.00
67.04
62.46
57.18
51.23
44.79
38.07
31.29
24.59
17.94
11.24
4.29
-3.09
-10.98
-19.34
-28.09
-37.08
-46.25
-55.56
-64.99
-74.39
-83.33
-91.06
-96.58
-98.92
-97.35
-91.64
-82.07
-69.31
-54.22
-37.55
-20.00
-2.17
15.32
31.80
46.51
58.79
68.26
74.85
78.83
80.64
80.79
79.71
77.74
75.08
71.89
68.24
64.21
59.86
55.27
50.53
45.65
40.61
35.31
29.65
23.63
17.31
10.86
4.44
-1.85
-8.01
-14.07
-20.05
-25.96
-31.80
-37.66
-43.79
-50.51
-58.06
-66.34
-74.83
-82.55
-88.25
-90.78
-89.38
-83.87
-74.64
-62.43
-48.13
-32.57
-16.45
-0.38
15.00
29.02
41.02
50.54
57.37
61.63
63.69
64.11
63.43
62.13
60.59
59.02
57.52
56.06
54.52
52.78
50.74
48.32
45.49
42.18
38.38
34.03
29.15
23.83
18.16
12.26
6.17
-0.11
-6.63
-13.41
-20.42
-27.56
-34.81
-42.23
-49.95
-58.09
-66.58
-75.03
-82.67
-88.50
-91.51
-91.02
-86.86
-79.41
-69.43
-57.80
-45.32
-32.62
-20.19
-8.48
2.02
10.88
17.81
22.76
25.92
27.63
28.23
27.98
27.00
25.38
23.31
21.09
19.15
17.88
17.47
17.84
18.61
19.22
19.11
17.85
15.28
11.46
6.63
1.15
-4.65
-10.51
-16.28
-21.95
-27.65
-33.63
-40.10
-47.15
-54.55
-61.77
-67.93
-72.06
-73.34
-71.28
-65.89
-57.61
-47.10
-35.11
-22.35
-9.43
3.07
14.48
24.19
31.69
36.79
39.64
40.75
40.79
40.34
39.71
38.87
37.68
35.99
33.86
31.54
29.31
27.26
25.23
22.78
19.50
15.12
9.72
3.66
-2.56
-8.55
-14.12
-19.36
-24.53
-29.96
-35.89
-42.50
-49.82
-57.73
-65.94
-73.94
-80.97
-86.10
-88.42
-87.20
-82.20
-73.68
-62.30
-48.98
-34.54
-19.59
-4.48
10.53
25.16
38.86
50.86
60.34
66.69
69.82
70.22
68.77
66.43
63.87
61.28
58.48
55.15
51.13
46.54
41.74
37.07
32.66
28.38
23.92
18.98
13.45
7.40
0.98
-5.73
-12.76
-20.23
-28.25
-36.78
-45.63
-54.52
-63.11
-71.12
-78.28
-84.24
-88.46
-90.35
-89.28
-84.89
-77.18
-66.48
-53.38
-38.48
-22.42
-5.86
10.36
25.24
37.74
47.07
53.01
55.99
56.93
56.89
56.71
56.75
56.90
56.80
56.07
54.51
52.14
49.13
45.71
42.02
38.08
33.75
28.81
23.16
16.83
10.05
3.12
-3.77
-10.59
-17.53
-24.95
-33.13
-42.25
-52.22
-62.67
-72.99
-82.30
-89.55
-93.68
-93.86
-89.67
-81.27
-69.30
-54.70
-38.44
-21.33
-3.99
13.03
29.13
43.64
55.82
65.09
71.22
74.40
75.17
74.25
72.28
69.60
66.34
62.46
57.97
53.04
48.05
43.37
39.26
35.68
32.25
28.41
23.62
17.60
10.43
2.53
-5.51
-13.18
-20.23
-26.76
-33.08
-39.61
-46.70
-54.53
-63.13
-72.26
-81.41
-89.67
-95.87
-98.74
-97.24
-90.90
-79.93
-65.20
-47.95
-29.43
-10.74
7.29
24.04
38.98
51.62
61.64
68.89
73.52
75.97
76.85
76.72
75.96
74.64
72.65
69.82
66.12
61.77
57.10
52.43
47.87
43.26
38.28
32.56
25.97
18.59
10.73
2.77
-5.00
-12.42
-19.55
-26.55
-33.71
-41.38
-49.91
-59.40
-69.66
-80.01
-89.36
-96.38
-99.80
-98.79
-93.11
-83.20
-69.96
-54.47
-37.72
-20.43
-3.05
14.09
30.62
46.00
59.49
70.38
78.14
82.57
83.96
82.89
80.17
76.60
72.79
69.13
65.69
62.39
59.01
55.33
51.16
46.37
40.86
34.55
27.41
19.54
11.18
2.71
-5.46
-13.04
-19.97
-26.48
-33.02
-40.09
-48.14
-57.36
-67.62
-78.34
-88.56
-97.06
-102.63
-104.29
-101.55
-94.45
-83.53
-69.59
-53.55
-36.21
-18.29
-0.34
17.06
33.26
47.59
59.36
68.13
73.77
76.59
77.20
76.35
74.69
72.65
70.38
67.87
64.99
61.65
57.80
53.48
48.76
43.70
38.31
32.51
26.19
19.23
11.61
3.45
-5.01
-13.50
-21.84
-29.96
-37.96
-46.03
-54.38
-63.17
-72.37
-81.67
-90.44
-97.76
-102.58
-103.98
-101.45
-94.95
-84.93
-72.11
-57.22
-40.94
-23.78
-6.19
11.32
28.19
43.73
57.30
68.35
76.53
81.78
84.35
84.72
83.49
81.29
78.61
75.74
72.78
69.67
66.27
62.49
58.23
53.48
48.27
42.64
36.59
30.14
23.27
15.97
8.32
0.43
-7.52
-15.39
-23.08
-30.61
-38.13
-45.85
-53.97
-62.63
-71.73
-80.85
-89.22
-95.77
-99.34
-99.00
-94.32
-85.51
-73.30
-58.67
-42.67
-26.13
-9.72
6.01
20.54
33.39
44.17
52.66
58.82
62.83
64.97
65.53
64.79
63.00
60.45
57.42
54.23
51.11
48.20
45.47
42.81
40.10
37.22
34.08
30.61
26.71
22.27
17.23
11.65
5.77
-0.08
-5.57
-10.61
-15.33
-20.16
-25.61
-32.16
-40.00
-48.95
-58.40
-67.40
-74.85
-79.72
-81.23
-79.05
-73.29
-64.43
-53.14
-40.17
-26.17
-11.64
3.03
17.49
31.35
44.12
55.26
64.26
70.76
74.61
75.91
74.95
72.18
68.09
63.19
57.94
52.70
47.68
42.97
38.47
34.02
29.38
24.35
18.81
12.76
6.21
-0.74
-7.92
-15.16
-22.26
-29.09
-35.61
-41.91
-48.19
-54.66
-61.50
-68.77
-76.40
-84.10
-91.43
-97.78
-102.43
-104.67
-103.88
-99.69
-92.04
-81.22
-67.74
-52.22
-35.26
-17.42
0.77
18.68
35.54
50.45
62.61
71.45
76.84
79.04
78.67
76.50
73.29
69.70
66.20
63.04
60.26
57.65
54.91
51.69
47.82
43.23
38.02
32.36
26.38
20.17
13.76
7.15
0.38
-6.52
-13.54
-20.65
-27.87
-35.26
-42.94
-51.05
-59.70
-68.91
-78.37
-87.37
-94.86
-99.62
-100.63
-97.31
-89.76
-78.65
-64.95
-49.63
-33.48
-16.96
-0.40
15.94
31.69
46.41
59.61
70.86
79.84
86.32
90.26
91.78
91.25
89.20
86.22
82.83
79.31
75.70
71.89
67.72
63.12
58.15
52.90
47.44
41.76
35.76
29.35
22.52
15.39
8.08
0.72
-6.64
-14.06
-21.61
-29.31
-37.11
-44.98
-52.91
-60.94
-69.14
-77.36
-85.16
-91.74
-96.12
-97.36
-94.89
-88.66
-79.07
-66.81
-52.61
-37.12
-20.82
-4.20
12.18
27.61
41.29
52.49
60.64
65.45
66.97
65.64
62.13
57.30
51.99
46.81
42.04
37.63
33.36
28.98
24.41
19.73
15.10
10.59
6.20
1.84
-2.58
-7.04
-11.42
-15.51
-19.17
-22.32
-25.01
-27.46
-29.98
-32.96
-36.82
-41.83
-48.12
-55.52
-63.54
-71.32
-77.82
-81.86
-82.48
-79.13
-71.84
-61.17
-48.03
-33.44
-18.27
-3.16
11.43
25.14
37.58
48.36
57.11
63.62
67.87
70.06
70.60
69.94
68.48
66.46
63.97
60.97
57.40
53.31
48.82
44.11
39.32
34.50
29.59
24.46
18.98
13.03
6.63
-0.17
-7.20
-14.23
-21.09
-27.64
-33.86
-39.87
-45.88
-52.11
-58.78
-66.05
-73.85
-81.85
-89.37
-95.42
-98.91
-98.93
-95.03
-87.39
-76.66
-63.75
-49.49
-34.45
-18.89
-2.94
13.13
28.79
43.23
55.53
64.97
71.21
74.42
75.18
74.25
72.36
70.10
67.79
65.57
63.37
61.05
58.38
55.14
51.18
46.43
40.93
34.81
28.25
21.44
14.59
7.89
1.48
-4.59
-10.38
-16.06
-21.83
-27.86
-34.19
-40.84
-47.80
-55.06
-62.55
-70.02
-76.93
-82.41
-85.45
-85.21
-81.26
-73.70
-63.15
-50.46
-36.49
-21.90
-7.15
7.41
21.36
34.16
45.23
54.02
60.26
64.02
65.71
65.93
65.28
64.13
62.61
60.57
57.80
54.16
49.75
44.91
40.10
35.70
31.84
28.38
24.91
21.02
16.41
11.00
4.95
-1.49
-8.09
-14.72
-21.33
-27.89
-34.38
-40.81
-47.27
-53.97
-61.13
-68.79
-76.57
-83.63
-88.77
-90.81
-88.94
-83.03
-73.60
-61.55
-47.84
-33.22
-18.14
-2.90
12.16
26.54
39.54
50.46
58.76
64.24
67.08
67.77
66.94
65.21
63.08
60.86
58.69
56.56
54.35
51.91
49.10
45.82
41.94
37.33
31.86
25.52
18.41
10.81
3.11
-4.30
-11.17
-17.48
-23.42
-29.29
-35.42
-42.05
-49.32
-57.19
-65.51
-73.87
-81.59
-87.82
-91.64
-92.32
-89.49
-83.20
-73.93
-62.36
-49.21
-35.10
-20.57
-6.11
7.74
20.41
31.38
40.27
46.90
51.36
53.95
55.12
55.28
54.78
53.77
52.29
50.25
47.58
44.30
40.54
36.48
32.23
27.80
23.07
17.88
12.15
5.94
-0.56
-7.08
-13.44
-19.63
-25.83
-32.35
-39.47
-47.30
-55.71
-64.29
-72.46
-79.49
-84.63
-87.17
-86.64
-82.85
-76.00
-66.58
-55.24
-42.57
-29.05
-15.04
-0.86
13.06
26.16
37.79
47.39
54.59
59.27
61.57
61.79
60.33
57.51
53.66
49.00
43.80
38.35
33.03
28.21
24.17
20.93
18.25
15.66
12.65
8.86
4.20
-1.09
-6.65
-12.09
-17.23
-22.11
-26.97
-32.15
-38.00
-44.69
-52.14
-59.95
-67.41
-73.62
-77.69
-78.90
-76.91
-71.69
-63.58
-53.02
-40.52
-26.57
-11.68
3.60
18.68
32.91
45.68
56.47
64.89
70.77
74.21
75.56
75.28
73.88
71.76
69.12
66.03
62.57
58.84
55.06
51.40
47.93
44.47
40.71
36.31
31.03
24.88
18.04
10.83
3.55
-3.62
-10.65
-17.64
-24.82
-32.46
-40.86
-50.13
-60.17
-70.44
-79.98
-87.59
-92.12
-92.76
-89.27
-82.00
-71.67
-59.12
-45.06
-30.03
-14.42
1.34
16.70
31.03
43.73
54.33
62.60
68.54
72.30
74.12
74.29
73.13
70.94
68.03
64.64
60.98
57.22
53.43
49.63
45.69
41.39
36.48
30.81
24.39
17.42
10.20
3.04
-3.90
-10.61
-17.24
-23.99
-31.05
-38.58
-46.69
-55.40
-64.48
-73.38
-81.11
-86.52
-88.53
-86.60
-80.87
-72.09
-61.30
-49.37
-36.81
-23.73
-10.13
3.78
17.46
30.11
40.91
49.31
55.16
58.67
60.25
60.33
59.19
57.03
53.95
50.14
45.90
41.59
37.55
33.90
30.51
27.00
22.88
17.84
11.86
5.29
-1.34
-7.54
-13.14
-18.33
-23.59
-29.52
-36.55
-44.79
-53.95
-63.39
-72.23
-79.48
-84.19
-85.67
-83.52
-77.83
-69.09
-58.05
-45.56
-32.26
-18.55
-4.57
9.58
23.62
36.98
48.85
58.41
65.07
68.73
69.72
68.71
66.41
63.44
60.21
56.99
53.88
50.91
47.97
44.88
41.40
37.30
32.42
26.70
20.22
13.16
5.78
-1.59
-8.66
-15.31
-21.63
-27.92
-34.61
-42.10
-50.60
-60.05
-70.00
-79.66
-88.06
-94.10
-96.91
-95.98
-91.31
-83.30
-72.58
-59.76
-45.36
-29.79
-13.45
3.18
19.49
34.86
48.68
60.42
69.68
76.26
80.16
81.68
81.33
79.74
77.46
74.87
72.11
69.12
65.76
61.92
57.47
52.37
46.62
40.26
33.37
26.00
18.24
10.17
1.89
-6.41
-14.57
-22.49
-30.22
-38.06
-46.37
-55.46
-65.28
-75.32
-84.63
-91.98
-96.24
-96.68
-93.15
-85.97
-75.80
-63.29
-48.95
-33.16
-16.25
1.30
18.80
35.40
50.25
62.67
72.28
79.02
83.11
84.99
85.15
84.12
82.33
80.06
77.41
74.32
70.68
66.40
61.51
56.17
50.62
45.04
39.47
33.79
27.80
21.35
14.41
7.17
-0.17
-7.44
-14.63
-21.92
-29.57
-37.86
-46.92
-56.73
-67.04
-77.37
-86.99
-94.96
-100.26
-102.04
-99.79
-93.53
-83.78
-71.32
-57.02
-41.60
-25.57
-9.30
6.88
22.49
36.91
49.45
59.49
66.64
70.84
72.34
71.53
68.89
64.81
59.61
53.54
46.91
40.19
33.96
28.78
24.93
22.33
20.42
18.45
15.70
11.82
6.90
1.38
-4.20
-9.54
-14.61
-19.63
-24.91
-30.73
-37.31
-44.77
-53.14
-62.17
-71.31
-79.61
-85.98
-89.33
-89.00
-84.79
-77.03
-66.37
-53.49
-39.00
-23.37
-6.91
10.00
26.93
43.21
58.07
70.64
80.24
86.52
89.59
90.00
88.59
86.22
83.54
80.91
78.35
75.74
72.88
69.60
65.68
60.95
55.26
48.60
41.15
33.26
25.36
17.70
10.33
3.06
-4.43
-12.33
-20.67
-29.25
-37.85
-46.30
-54.67
-63.21
-72.19
-81.73
-91.57
-101.00
-108.96
-114.26
-115.85
-113.20
-106.39
-96.06
-83.16
-68.66
-53.28
-37.49
-21.60
-5.89
9.20
23.15
35.42
45.54
53.27
58.60
61.74
63.03
62.89
61.69
59.75
57.32
54.63
51.87
49.17
46.53
43.88
41.00
37.71
33.98
29.96
25.90
22.03
18.40
14.84
11.02
6.58
1.33
-4.82
-11.82
-19.65
-28.33
-37.96
-48.50
-59.70
-70.95
-81.22
-89.28
-93.91
-94.26
-90.02
-81.58
-69.85
-55.95
-40.97
-25.72
-10.73
3.63
17.02
28.96
38.97
46.63
51.74
54.42
55.01
53.99
51.77
48.69
45.03
41.03
36.96
33.15
29.89
27.36
25.56
24.25
23.06
21.51
19.26
16.14
12.29
8.05
3.82
-0.08
-3.59
-6.93
-10.57
-14.98
-20.53
-27.39
-35.43
-44.24
-53.12
-61.09
-67.08
-70.14
-69.67
-65.70
-58.84
-49.98
-40.06
-29.61
-18.74
-7.34
4.68
17.06
29.11
39.88
48.48
54.30
57.26
57.71
56.31
53.85
50.94
48.00
45.17
42.44
39.78
37.16
34.56
31.90
29.01
25.62
21.45
16.44
10.72
4.66
-1.33
-7.00
-12.33
-17.52
-22.85
-28.59
-34.88
-41.82
-49.47
-57.83
-66.70
-75.59
-83.61
-89.69
-92.81
-92.33
-88.18
-80.79
-70.93
-59.30
-46.41
-32.52
-17.81
-2.52
12.84
27.56
40.84
52.01
60.66
66.67
70.26
71.79
71.68
70.31
67.98
64.93
61.32
57.35
53.16
48.93
44.73
40.57
36.32
31.79
26.77
21.17
15.01
8.45
1.71
-4.96
-11.38
-17.47
-23.30
-29.01
-34.87
-41.14
-47.97
-55.27
-62.63
-69.38
-74.65
-77.63
-77.69
-74.56
-68.30
-59.34
-48.28
-35.90
-22.97
-10.18
1.93
13.02
22.88
31.38
38.37
43.67
47.14
48.75
48.74
47.50
45.51
43.22
40.88
38.58
36.22
33.73
31.05
28.19
25.14
21.85
18.21
14.12
9.58
4.71
-0.32
-5.34
-10.27
-15.18
-20.18
-25.46
-31.18
-37.46
-44.37
-51.85
-59.66
-67.25
-73.79
-78.35
-80.14
-78.73
-74.16
-66.88
-57.51
-46.67
-34.84
-22.33
-9.39
3.79
16.87
29.44
40.92
50.74
58.35
63.43
65.97
66.23
64.77
62.15
58.94
55.46
51.90
48.30
44.68
41.05
37.39
33.65
29.65
25.21
20.12
14.27
7.73
0.68
-6.53
-13.61
-20.31
-26.62
-32.69
-38.81
-45.30
-52.38
-60.11
-68.29
-76.41
-83.70
-89.25
-92.14
-91.70
-87.66
-80.22
-70.04
-57.93
-44.67
-30.76
-16.47
-1.93
12.64
26.77
39.76
50.84
59.43
65.34
68.81
70.36
70.57
69.88
68.50
66.44
63.64
60.05
55.75
50.94
45.84
40.65
35.42
30.06
24.39
18.30
11.80
5.16
-1.27
-7.14
-12.31
-16.96
-21.46
-26.33
-31.99
-38.68
-46.39
-54.83
-63.44
-71.44
-77.84
-81.63
-82.03
-78.65
-71.62
-61.53
-49.26
-35.70
-21.53
-7.23
6.90
20.56
33.40
44.99
54.90
62.78
68.50
72.07
73.67
73.53
71.94
69.16
65.42
60.98
56.09
51.06
46.12
41.46
37.03
32.62
27.92
22.61
16.55
9.88
2.96
-3.72
-9.81
-15.17
-20.02
-24.83
-30.16
-36.49
-44.09
-52.82
-62.23
-71.47
-79.46
-85.07
-87.35
-85.84
-80.58
-72.12
-61.30
-48.95
-35.71
-21.92
-7.82
6.37
20.20
33.11
44.51
53.94
61.18
66.22
69.20
70.30
69.76
67.82
64.81
61.09
57.03
52.94
48.98
45.15
41.29
37.15
32.52
27.25
21.37
15.01
8.47
2.04
-4.03
-9.58
-14.65
-19.41
-24.21
-29.46
-35.58
-42.81
-51.03
-59.72
-67.95
-74.55
-78.41
-78.83
-75.64
-69.23
-60.30
-49.62
-37.78
-25.16
-12.03
1.30
14.31
26.39
36.89
45.33
51.47
55.36
57.24
57.45
56.37
54.34
51.70
48.70
45.58
42.47
39.45
36.50
33.53
30.37
26.84
22.77
18.08
12.82
7.18
1.42
-4.18
-9.51
-14.63
-19.74
-25.16
-31.17
-37.98
-45.59
-53.69
-61.66
-68.59
-73.44
-75.29
-73.62
-68.43
-60.22
-49.71
-37.67
-24.64
-10.99
2.92
16.57
29.22
39.97
48.06
53.13
55.29
55.15
53.50
51.15
48.61
46.07
43.53
40.87
38.03
35.05
32.02
28.98
25.92
22.66
18.99
14.75
9.90
4.62
-0.79
-5.95
-10.64
-14.92
-19.14
-23.92
-29.88
-37.45
-46.60
-56.81
-67.11
-76.31
-83.26
-87.04
-87.20
-83.67
-76.81
-67.15
-55.31
-41.93
-27.57
-12.75
2.05
16.35
29.64
41.42
51.20
58.64
63.61
66.21
66.80
65.90
64.02
61.56
58.73
55.60
52.16
48.47
44.64
40.72
36.66
32.22
27.03
20.79
13.46
5.25
-3.40
-12.04
-20.36
-28.32
-36.01
-43.63
-51.38
-59.37
-67.61
-75.93
-83.86
-90.62
-95.19
-96.53
-93.95
-87.32
-77.14
-64.29
-49.74
-34.26
-18.33
-2.23
13.74
29.08
43.12
55.16
64.72
71.62
76.05
78.37
78.95
78.07
75.85
72.43
68.00
62.96
57.80
53.00
48.87
45.40
42.27
38.97
34.94
29.83
23.55
16.28
8.46
0.56
-7.02
-14.07
-20.62
-26.94
-33.43
-40.53
-48.50
-57.36
-66.62
-75.36
-82.39
-86.47
-86.72
-82.86
-75.24
-64.72
-52.31
-38.94
-25.20
-11.36
2.46
16.14
29.33
41.51
52.03
60.40
66.38
70.06
71.80
72.00
70.98
68.96
66.10
62.63
58.92
55.33
52.13
49.30
46.54
43.38
39.42
34.46
28.63
22.23
15.68
9.23
3.00
-3.11
-9.26
-15.62
-22.30
-29.38
-36.87
-44.75
-52.92
-61.08
-68.69
-74.94
-78.85
-79.57
-76.62
-70.05
-60.48
-48.80
-35.97
-22.69
-9.37
3.81
16.64
28.77
39.63
48.61
55.24
59.36
61.19
61.22
59.96
57.87
55.19
52.08
48.61
44.95
41.30
37.79
34.48
31.24
27.91
24.27
20.21
15.68
10.70
5.32
-0.33
-6.05
-11.66
-16.98
-22.05
-27.03
-32.33
-38.36
-45.46
-53.67
-62.67
-71.77
-79.99
-86.29
-89.73
-89.70
-86.08
-79.24
-69.92
-59.03
-47.39
-35.65
-24.20
-13.36
-3.48
4.97
11.48
15.66
17.41
16.95
14.82
11.63
7.98
4.28
0.82
-2.22
-4.68
-6.35
-7.03
-6.53
-4.78
-1.88
1.90
6.10
10.21
13.72
16.34
17.98
18.73
18.68
17.79
15.81
12.34
7.03
-0.28
-9.36
-19.55
-29.82
-38.95
-45.76
-49.36
-49.26
-45.50
-38.54
-29.08
-17.91
-5.70
6.96
19.52
31.40
42.04
50.90
57.69
62.39
65.18
66.39
66.28
65.05
62.81
59.70
55.95
51.86
47.78
43.97
40.47
37.21
33.87
30.14
25.73
20.48
14.47
7.95
1.28
-5.23
-11.37
-17.19
-22.90
-28.82
-35.30
-42.61
-50.89
-59.97
-69.31
-77.96
-84.71
-88.34
-88.09
-83.80
-76.02
-65.64
-53.58
-40.48
-26.63
-12.17
2.65
17.33
31.14
43.31
53.27
60.76
65.86
68.83
69.97
69.57
67.86
65.05
61.44
57.35
53.10
48.96
45.05
41.31
37.56
33.55
29.09
24.05
18.47
12.51
6.41
0.39
-5.42
-11.06
-16.73
-22.71
-29.30
-36.66
-44.84
-53.61
-62.51
-70.84
-77.68
-82.10
-83.38
-81.15
-75.48
-66.84
-55.90
-43.33
-29.72
-15.45
-0.82
13.83
28.04
41.17
52.52
61.42
67.48
70.72
71.54
70.61
68.66
66.26
63.71
61.06
58.23
55.12
51.67
47.93
43.95
39.74
35.28
30.42
25.05
19.13
12.79
6.26
-0.15
-6.26
-12.05
-17.70
-23.51
-29.76
-36.60
-44.12
-52.28
-60.99
-69.94
-78.58
-86.03
-91.29
-93.48
-92.07
-87.09
-79.00
-68.51
-56.34
-43.14
-29.45
-15.76
-2.61
9.43
19.81
28.15
34.25
38.23
40.40
41.21
41.07
40.27
38.95
37.13
34.87
32.30
29.65
27.19
25.03
23.06
20.94
18.20
14.46
9.59
3.73
-2.67
-9.08
-15.01
-20.22
-24.78
-29.03
-33.44
-38.49
-44.45
-51.34
-58.78
-66.02
-72.14
-76.14
-77.22
-74.93
-69.29
-60.74
-49.93
-37.60
-24.31
-10.48
3.53
17.38
30.57
42.53
52.64
60.45
65.76
68.74
69.79
69.43
68.16
66.28
63.96
61.25
58.24
55.07
51.92
48.91
45.96
42.77
38.95
34.18
28.36
21.73
14.73
7.87
1.50
-4.28
-9.64
-14.88
-20.37
-26.39
-33.21
-41.03
-49.87
-59.51
-69.35
-78.38
-85.37
-89.20
-89.18
-85.31
-78.16
-68.66
-57.66
-45.75
-33.13
-19.76
-5.65
8.97
23.56
37.25
49.14
58.48
64.90
68.54
69.91
69.78
68.84
67.59
66.23
64.74
62.99
60.86
58.25
55.05
51.17
46.53
41.17
35.27
29.15
23.11
17.34
11.81
6.37
0.86
-4.78
-10.45
-15.99
-21.26
-26.32
-31.41
-36.93
-43.19
-50.33
-58.07
-65.77
-72.49
-77.16
-78.87
-77.09
-71.82
-63.56
-53.11
-41.28
-28.74
-15.85
-2.82
10.19
22.90
34.81
45.28
53.69
59.65
63.12
64.43
64.16
62.94
61.18
59.09
56.66
53.89
50.85
47.72
44.72
41.93
39.25
36.41
33.16
29.31
24.88
19.97
14.71
9.24
3.60
-2.13
-7.86
-13.51
-19.00
-24.40
-29.90
-35.79
-42.27
-49.34
-56.68
-63.58
-69.17
-72.59
-73.20
-70.75
-65.38
-57.49
-47.63
-36.32
-24.06
-11.27
1.69
14.41
26.47
37.38
46.60
53.66
58.31
60.60
60.92
59.91
58.23
56.39
54.68
53.14
51.70
50.21
48.56
46.62
44.29
41.50
38.23
34.52
30.48
26.21
21.79
17.27
12.69
8.10
3.49
-1.16
-5.95
-11.03
-16.57
-22.75
-29.69
-37.36
-45.55
-53.78
-61.28
-67.10
-70.39
-70.52
-67.34
-61.13
-52.50
-42.13
-30.63
-18.47
-5.99
6.37
18.04
28.34
36.66
42.61
46.12
47.50
47.21
45.74
43.42
40.43
36.85
32.82
28.62
24.61
21.21
18.68
17.03
15.98
14.97
13.37
10.67
6.72
1.73
-3.77
-9.22
-14.20
-18.59
-22.55
-26.37
-30.34
-34.69
-39.59
-45.12
-51.23
-57.69
-63.92
-69.09
-72.24
-72.58
-69.69
-63.67
-55.04
-44.59
-33.17
-21.55
-10.42
-0.32
8.26
14.99
19.73
22.61
24.00
24.40
24.26
23.85
23.23
22.29
20.93
19.17
17.19
15.26
13.54
12.04
10.56
8.78
6.40
3.28
-0.54
-4.83
-9.30
-13.65
-17.71
-21.46
-25.08
-28.89
-33.27
-38.51
-44.67
-51.45
-58.16
-63.89
-67.62
-68.53
-66.18
-60.61
-52.22
-41.74
-29.93
-17.49
-4.95
7.26
18.78
29.22
38.17
45.30
50.36
53.32
54.36
53.82
52.11
49.65
46.74
43.57
40.20
36.64
32.88
28.90
24.64
20.02
14.86
8.95
2.15
-5.50
-13.76
-22.26
-30.65
-38.72
-46.52
-54.37
-62.77
-72.19
-83.08
-95.75
-110.12
-125.56
-140.86
-154.44
-164.99
-171.95
-175.58
-176.84
-177.11
-177.73
-179.51
-182.47
-185.57
-187.04
-184.72
-176.37
-160.65
-137.74
-109.34
-78.06
-46.66
-17.05
9.65
32.96
53.85
73.37
91.90
108.96
123.69
135.15
143.50
149.08
152.28
155.47
160.77
168.70
177.85
186.05
190.80
191.85
189.27
183.01
176.14
171.55
170.08
170.20
169.81
166.82
162.92
160.12
160.02
167.72
187.59
220.13
261.76
307.24
350.72
390.91
426.59
431.15
387.05
296.95
183.51
73.71
-5.16
-58.07
-92.15
-114.15
-129.63
-140.34
-144.96
-144.57
-142.79
-143.86
-151.65
-164.84
-181.64
-200.24
-215.96
-223.71
-222.60
-215.35
-206.61
-201.30
-195.03
-184.50
-169.69
-158.11
-150.26
-146.34
-143.77
-141.72
-139.68
-135.54
-127.84
-116.45
-101.89
-84.40
-65.72
-46.65
-27.39
-7.49
14.22
39.12
67.52
98.44
130.30
159.75
184.08
200.50
206.63
194.39
160.84
111.46
57.53
10.84
-28.49
-62.22
-91.89
-116.36
-134.68
-144.89
-146.01
-139.40
-128.66
-119.14
-115.01
-118.95
-128.71
-140.92
-149.31
-148.61
-138.07
-121.82
-106.36
-97.58
-95.07
-96.12
-97.62
-96.04
-89.31
-77.30
-61.31
-43.09
-23.32
-1.77
21.44
45.37
68.80
89.79
105.97
115.54
118.06
114.90
108.60
101.27
93.97
86.97
79.69
71.29
61.24
49.71
37.67
26.46
16.97
9.55
4.02
-0.16
-3.78
-7.58
-12.00
-17.02
-22.17
-26.82
-30.42
-32.75
-34.06
-34.98
-36.28
-38.45
-41.48
-44.73
-47.19
-47.74
-45.43
-39.70
-30.42
-17.82
-2.32
15.62
35.57
57.23
80.36
104.68
129.80
155.09
179.67
202.48
222.38
238.27
249.29
254.84
254.72
249.13
238.64
224.13
206.59
186.88
165.55
142.72
118.31
92.16
64.43
35.64
6.64
-21.60
-48.29
-72.88
-95.13
-114.99
-132.48
-147.64
-160.56
-171.40
-180.28
-187.15
-191.60
-192.85
-189.96
-182.18
-169.32
-151.98
-131.35
-108.89
-85.88
-63.07
-40.68
-18.63
3.12
24.24
44.02
61.56
76.12
87.38
95.50
101.04
104.69
107.00
108.26
108.43
107.29
104.57
100.17
94.18
86.88
78.69
70.04
61.23
52.46
43.89
35.75
28.38
22.10
17.13
13.63
11.68
11.26
12.25
14.48
17.69
21.52
25.41
28.86
31.64
33.89
35.87
37.90
40.29
43.41
47.65
52.97
58.99
64.99
70.09
73.04
72.62
67.93
58.54
44.61
26.43
4.67
-19.42
-43.84
-66.79
-86.93
-103.65
-117.54
-127.58
-133.09
-134.86
-134.78
-134.43
-135.04
-137.10
-140.35
-144.02
-146.87
-148.08
-147.18
-145.83
-143.43
-139.67
-134.47
-127.80
-119.78
-110.68
-101.36
-93.01
-86.73
-82.79
-81.05
-80.60
-79.19
-74.61
-64.83
-48.65
-25.81
2.99
36.44
72.28
107.87
140.71
168.77
190.98
207.04
217.21
221.93
221.67
216.62
207.00
193.40
176.87
158.87
140.92
124.11
108.94
95.31
82.64
70.22
57.53
44.33
30.71
16.94
3.29
-9.99
-22.73
-34.80
-46.01
-56.23
-65.50
-74.16
-82.83
-92.37
-103.47
-116.39
-130.63
-144.96
-157.55
-166.52
-170.34
-168.30
-160.64
-148.42
-133.12
-116.17
-98.62
-81.03
-63.56
-46.29
-29.38
-13.27
1.52
14.40
24.96
33.02
38.60
41.96
43.48
43.62
42.86
41.63
40.23
38.82
37.49
36.24
35.03
33.75
32.23
30.20
27.39
23.65
19.01
13.69
8.05
2.48
-2.74
-7.49
-11.84
-16.03
-20.43
-25.47
-31.52
-38.69
-46.71
-54.84
-62.05
-67.24
-69.54
-68.58
-64.47
-57.70
-48.92
-38.72
-27.59
-15.81
-3.64
8.66
20.74
32.17
42.44
51.11
57.89
62.71
65.69
67.14
67.40
66.73
65.31
63.25
60.68
57.76
54.69
51.60
48.52
45.31
41.73
37.55
32.65
27.02
20.80
14.20
7.44
0.71
-5.79
-11.94
-17.71
-23.18
-28.60
-34.30
-40.57
-47.52
-54.93
-62.23
-68.59
-73.07
-74.92
-73.73
-69.54
-62.73
-53.90
-43.65
-32.41
-20.44
-7.92
4.91
17.65
29.70
40.47
49.44
56.34
61.15
64.06
65.39
65.49
64.69
63.29
61.51
59.48
57.23
54.72
51.86
48.59
44.86
40.64
35.91
30.62
24.76
18.43
11.81
5.16
-1.26
-7.31
-13.03
-18.64
-24.44
-30.73
-37.75
-45.53
-53.86
-62.22
-69.83
-75.81
-79.32
-79.82
-77.16
-71.59
-63.63
-53.86
-42.80
-30.81
-18.21
-5.34
7.35
19.26
29.80
38.44
44.94
49.34
51.93
53.13
53.38
52.91
51.83
50.09
47.66
44.60
41.14
37.52
33.93
30.35
26.61
22.42
17.61
12.18
6.37
0.53
-5.02
-10.10
-14.73
-19.15
-23.67
-28.65
-34.37
-40.99
-48.46
-56.48
-64.51
-71.78
-77.48
-80.82
-81.28
-78.62
-73.02
-64.89
-54.86
-43.52
-31.36
-18.76
-5.97
6.71
18.90
30.13
39.89
47.76
53.55
57.38
59.59
60.69
61.13
61.17
60.87
60.14
58.87
57.04
54.74
52.10
49.16
45.76
41.66
36.67
30.76
24.16
17.28
10.54
4.17
-1.83
-7.70
-13.76
-20.24
-27.27
-34.85
-42.85
-51.15
-59.44
-67.25
-73.90
-78.61
-80.67
-79.72
-75.76
-69.14
-60.35
-49.88
-38.15
-25.50
-12.35
0.82
13.42
24.94
34.98
43.36
50.07
55.13
58.65
60.71
61.44
61.06
59.81
57.95
55.70
53.22
50.60
47.85
44.95
41.83
38.36
34.37
29.71
24.29
18.14
11.48
4.57
-2.27
-8.83
-15.02
-20.95
-26.82
-32.94
-39.60
-46.92
-54.76
-62.66
-69.85
-75.46
-78.65
-78.89
-76.02
-70.27
-62.15
-52.25
-41.12
-29.23
-16.93
-4.51
7.72
19.39
30.04
39.23
46.59
51.99
55.54
57.56
58.49
58.67
58.33
57.50
56.16
54.28
51.87
49.06
45.96
42.67
39.21
35.51
31.45
26.93
21.90
16.42
10.61
4.71
-1.14
-6.85
-12.52
-18.37
-24.69
-31.70
-39.48
-47.88
-56.49
-64.72
-71.82
-77.06
-79.84
-79.78
-76.83
-71.21
-63.30
-53.57
-42.51
-30.53
-18.05
-5.45
6.83
18.34
28.63
37.30
44.13
49.06
52.30
54.17
55.05
55.24
54.90
54.09
52.85
51.23
49.31
47.17
44.81
42.18
39.19
35.74
31.80
27.38
22.53
17.34
11.92
6.39
0.81
-4.83
-10.63
-16.78
-23.47
-30.81
-38.78
-47.11
-55.31
-62.76
-68.73
-72.61
-74.01
-72.83
-69.21
-63.43
-55.81
-46.66
-36.35
-25.31
-14.12
-3.39
6.30
14.54
21.16
26.17
29.75
32.16
33.65
34.47
34.78
34.68
34.21
33.41
32.36
31.18
29.98
28.81
27.57
26.06
24.03
21.26
17.70
13.46
8.72
3.72
-1.43
-6.69
-12.12
-17.88
-24.12
-30.92
-38.27
-45.93
-53.43
-60.09
-65.13
-67.83
-67.72
-64.73
-59.15
-51.54
-42.58
-32.81
-22.63
-12.25
-1.82
8.45
18.20
26.92
34.14
39.47
42.89
44.64
45.23
45.16
44.81
44.31
43.63
42.67
41.41
39.92
38.31
36.62
34.76
32.48
29.50
25.65
20.94
15.60
9.98
4.43
-0.89
-5.98
-11.02
-16.24
-21.88
-28.06
-34.84
-42.19
-49.89
-57.48
-64.26
-69.38
-72.03
-71.71
-68.39
-62.45
-54.53
-45.31
-35.31
-24.84
-14.04
-3.03
8.00
18.67
28.49
36.92
43.48
47.97
50.44
51.23
50.81
49.64
48.03
46.14
43.98
41.53
38.79
35.81
32.65
29.28
25.58
21.37
16.51
11.02
5.09
-0.91
-6.63
-11.84
-16.57
-21.10
-25.80
-31.08
-37.16
-44.05
-51.42
-58.69
-65.03
-69.62
-71.78
-71.26
-68.20
-63.07
-56.39
-48.49
-39.54
-29.51
-18.48
-6.71
5.26
16.74
27.05
35.68
42.39
47.20
50.29
52.00
52.68
52.67
52.19
51.40
50.34
49.01
47.40
45.50
43.27
40.65
37.57
33.90
29.59
24.65
19.17
13.37
7.46
1.63
-4.01
-9.47
-14.82
-20.25
-25.98
-32.30
-39.42
-47.38
-55.88
-64.21
-71.36
-76.27
-78.14
-76.72
-72.24
-65.31
-56.59
-46.59
-35.63
-23.92
-11.71
0.67
12.81
24.28
34.73
43.86
51.45
57.33
61.49
64.04
65.24
65.40
64.82
63.72
62.24
60.48
58.51
56.38
54.07
51.49
48.47
44.81
40.43
35.33
29.68
23.68
17.54
11.40
5.29
-0.80
-6.90
-12.98
-19.00
-24.94
-30.86
-36.96
-43.51
-50.75
-58.65
-66.84
-74.61
-81.04
-85.28
-86.80
-85.48
-81.56
-75.45
-67.54
-58.14
-47.44
-35.64
-22.99
-9.86
3.29
15.93
27.54
37.60
45.77
51.83
55.84
58.04
58.82
58.62
57.85
56.85
55.76
54.60
53.26
51.55
49.32
46.49
43.14
39.38
35.36
31.11
26.55
21.55
16.01
9.95
3.53
-3.02
-9.46
-15.72
-21.83
-27.99
-34.40
-41.17
-48.36
-55.90
-63.72
-71.66
-79.46
-86.70
-92.73
-96.88
-98.55
-97.48
-93.76
-87.81
-80.16
-71.24
-61.27
-50.29
-38.27
-25.27
-11.54
2.46
16.13
28.88
40.28
50.11
58.45
65.47
71.35
76.15
79.82
82.24
83.34
83.15
81.80
79.46
76.23
72.16
67.33
61.85
55.90
49.71
43.42
37.05
30.54
23.80
16.83
9.79
2.88
-3.70
-9.90
-15.81
-21.70
-27.86
-34.48
-41.51
-48.57
-55.02
-60.04
-62.84
-62.94
-60.23
-55.01
-47.83
-39.28
-29.89
-19.99
-9.86
0.28
10.08
19.15
27.10
33.63
38.64
42.21
44.56
45.99
46.74
46.98
46.77
46.11
45.03
43.56
41.84
39.96
37.96
35.79
33.33
30.38
26.83
22.70
18.16
13.46
8.85
4.46
0.23
-3.99
-8.40
-13.10
-18.11
-23.36
-28.81
-34.52
-40.52
-46.76
-52.92
-58.44
-62.57
-64.61
-64.15
-61.17
-55.99
-49.10
-40.99
-32.00
-22.37
-12.31
-2.09
7.85
17.00
24.87
31.09
35.55
38.40
39.97
40.69
40.97
41.02
40.92
40.56
39.84
38.65
37.02
35.05
32.84
30.43
27.80
24.85
21.57
17.95
14.09
10.09
6.01
1.86
-2.43
-6.91
-11.61
-16.49
-21.47
-26.54
-31.73
-37.15
-42.79
-48.44
-53.57
-57.46
-59.37
-58.84
-55.75
-50.39
-43.24
-34.83
-25.55
-15.72
-5.65
4.23
13.36
21.16
27.17
31.23
33.53
34.58
34.98
35.23
35.52
35.76
35.68
35.01
33.70
31.86
29.76
27.61
25.44
23.08
20.30
16.94
13.00
8.68
4.27
0.00
-4.01
-7.80
-11.52
-15.36
-19.47
-23.98
-28.95
-34.37
-40.10
-45.84
-51.11
-55.31
-57.84
-58.19
-56.14
-51.75
-45.36
-37.49
-28.75
-19.70
-10.79
-2.37
5.29
11.98
17.56
21.94
25.15
27.28
28.54
29.12
29.18
28.84
28.16
27.16
25.91
24.50
23.04
21.58
20.11
18.47
16.45
13.85
10.54
6.58
2.18
-2.36
-6.76
-10.88
-14.78
-18.68
-22.88
-27.67
-33.18
-39.27
-45.58
-51.52
-56.35
-59.37
-60.07
-58.21
-53.91
-47.51
-39.54
-30.54
-20.98
-11.29
-1.85
7.00
14.98
21.84
27.43
31.66
34.53
36.08
36.45
35.87
34.63
33.06
31.43
29.88
28.41
26.90
25.14
22.92
20.05
16.39
11.93
6.80
1.28
-4.28
-9.61
-14.60
-19.31
-23.97
-28.83
-34.14
-40.07
-46.67
-53.75
-60.86
-67.22
-71.91
-74.11
-73.30
-69.54
-63.28
-55.24
-46.05
-36.18
-25.92
-15.50
-5.26
4.35
12.87
19.96
25.50
29.60
32.52
34.52
35.81
36.50
36.67
36.41
35.86
35.20
34.58
34.02
33.41
32.49
30.94
28.47
24.98
20.54
15.44
10.06
4.72
-0.41
-5.41
-10.59
-16.42
-23.36
-31.67
-41.35
-51.94
-62.65
-72.46
-80.28
-85.27
-86.93
-85.17
-80.28
-72.76
-63.17
-52.07
-39.87
-26.90
-13.45
0.18
13.64
26.54
38.47
49.06
58.05
65.36
71.04
75.30
78.31
80.27
81.33
81.60
81.21
80.18
78.44
75.82
72.08
67.03
60.66
53.22
45.15
36.99
29.18
21.87
14.92
7.90
0.29
-8.33
-18.10
-28.75
-39.56
-49.52
-57.49
-62.47
-63.88
-61.69
-56.35
-48.62
-39.31
-29.06
-18.23
-7.02
4.41
15.80
26.71
36.58
44.88
51.21
55.43
57.64
58.12
57.30
55.63
53.55
51.40
49.41
47.68
46.20
44.79
43.10
40.74
37.33
32.69
26.95
20.52
13.97
7.79
2.22
-2.81
-7.67
-12.83
-18.70
-25.50
-33.18
-41.36
-49.37
-56.32
-61.27
-63.43
-62.33
-57.90
-50.41
-40.36
-28.36
-14.99
-0.82
13.56
27.54
40.45
51.58
60.22
65.78
67.96
66.91
63.30
58.22
52.84
48.08
44.37
41.60
39.33
37.05
34.46
31.45
28.08
24.38
20.25
15.55
10.15
4.05
-2.51
-9.19
-15.65
-21.70
-27.38
-32.95
-38.76
-45.05
-51.92
-59.30
-66.99
-74.79
-82.47
-89.67
-95.82
-100.13
-101.69
-99.76
-94.01
-84.69
-72.53
-58.53
-43.63
-28.54
-13.59
1.07
15.31
28.80
41.01
51.33
59.31
64.84
68.18
69.82
70.26
69.80
68.49
66.33
63.34
59.79
56.07
52.58
49.54
46.85
44.18
41.08
37.12
32.07
25.93
18.98
11.67
4.49
-2.21
-8.33
-14.00
-19.56
-25.38
-31.73
-38.83
-46.71
-55.28
-64.19
-72.83
-80.30
-85.57
-87.81
-86.59
-81.99
-74.56
-65.04
-54.10
-42.16
-29.43
-15.96
-1.91
12.44
26.58
39.86
51.59
61.17
68.22
72.62
74.54
74.44
72.92
70.65
68.20
65.96
64.03
62.21
60.17
57.53
54.01
49.57
44.38
38.75
33.06
27.61
22.56
17.89
13.41
8.82
3.80
-1.87
-8.19
-15.02
-22.07
-29.01
-35.58
-41.69
-47.48
-53.28
-59.50
-66.49
-74.24
-82.32
-89.81
-95.48
-98.24
-97.37
-92.77
-84.89
-74.50
-62.38
-49.15
-35.25
-20.94
-6.47
7.88
21.73
34.64
46.17
55.84
63.34
68.48
71.32
72.13
71.38
69.60
67.31
64.96
62.82
60.97
59.28
57.48
55.22
52.27
48.54
44.13
39.30
34.31
29.32
24.39
19.46
14.47
9.36
4.12
-1.25
-6.76
-12.43
-18.27
-24.23
-30.22
-36.14
-42.01
-47.98
-54.34
-61.35
-68.98
-76.82
-83.99
-89.39
-92.00
-91.19
-86.92
-79.64
-70.07
-58.98
-46.95
-34.39
-21.59
-8.85
3.45
14.87
24.99
33.51
40.27
45.23
48.48
50.12
50.29
49.20
47.11
44.41
41.53
38.85
36.59
34.79
33.22
31.55
29.44
26.73
23.46
19.83
16.09
12.43
8.85
5.23
1.40
-2.74
-7.19
-11.86
-16.66
-21.59
-26.75
-32.32
-38.45
-45.14
-52.21
-59.24
-65.65
-70.73
-73.76
-74.18
-71.68
-66.29
-58.42
-48.63
-37.54
-25.65
-13.29
-0.72
11.72
23.51
34.01
42.61
48.96
53.03
55.11
55.65
55.03
53.60
51.55
49.08
46.38
43.63
40.98
38.47
36.03
33.54
30.88
27.93
24.65
21.03
17.12
12.96
8.62
4.09
-0.62
-5.61
-10.86
-16.35
-21.92
-27.38
-32.59
-37.52
-42.28
-47.16
-52.48
-58.53
-65.38
-72.80
-80.23
-86.82
-91.62
-93.75
-92.69
-88.35
-81.09
-71.54
-60.33
-47.96
-34.75
-20.90
-6.71
7.43
20.95
33.30
43.97
52.64
59.23
63.80
66.60
67.94
68.12
67.46
66.17
64.48
62.56
60.57
58.61
56.70
54.70
52.39
49.58
46.18
42.27
38.04
33.76
29.59
25.56
21.51
17.20
12.41
7.08
1.41
-4.25
-9.49
-14.10
-18.13
-22.03
-26.35
-31.62
-38.02
-45.29
-52.73
-59.39
-64.32
-66.74
-66.18
-62.57
-56.15
-47.40
-36.97
-25.49
-13.55
-1.65
9.80
20.44
29.88
37.71
43.52
47.06
48.30
47.51
45.26
42.24
39.10
36.30
34.03
32.29
30.95
29.92
29.06
28.25
27.25
25.77
23.51
20.28
16.08
11.06
5.55
-0.16
-5.81
-11.29
-16.56
-21.68
-26.70
-31.72
-36.82
-42.10
-47.68
-53.68
-60.19
-67.15
-74.25
-80.92
-86.35
-89.72
-90.37
-88.09
-83.07
-75.86
-67.17
-57.65
-47.76
-37.82
-28.13
-19.00
-10.80
-3.83
1.84
6.44
10.48
14.57
19.24
24.72
30.90
37.40
43.74
49.48
54.32
58.16
60.91
62.53
62.96
62.16
60.13
56.94
52.73
47.70
42.08
36.11
30.00
23.91
17.91
11.99
6.07
0.02
-6.30
-13.05
-20.41
-28.44
-36.88
-45.15
-52.26
-57.08
-58.67
-56.54
-50.76
-41.89
-30.73
-18.04
-4.52
9.30
22.88
35.65
47.01
56.39
63.33
67.59
69.18
68.43
65.91
62.36
58.46
54.70
51.25
47.98
44.54
40.57
35.82
30.26
24.06
17.51
11.00
4.92
-0.42
-4.84
-8.38
-11.37
-14.36
-17.91
-22.39
-27.83
-33.87
-39.95
-45.61
-50.72
-55.59
-60.74
-66.66
-73.43
-80.58
-87.21
-92.25
-94.82
-94.50
-91.34
-85.75
-78.27
-69.41
-59.53
-48.96
-38.01
-27.10
-16.72
-7.42
0.34
6.20
10.02
11.85
11.87
10.40
7.78
4.35
0.39
-3.84
-8.09
-12.12
-15.73
-18.87
-21.60
-24.16
-26.91
-30.19
-34.25
-39.15
-44.73
-50.63
-56.36
-61.50
-65.76
-69.10
-71.67
-73.76
-75.64
-77.49
-79.33
-81.00
-82.18
-82.43
-81.21
-77.95
-72.19
-63.67
-52.42
-38.78
-23.28
-6.53
10.87
28.37
45.49
61.73
76.53
89.33
99.58
106.91
111.21
112.76
112.16
110.22
107.68
105.06
102.53
99.96
97.06
93.61
89.53
84.95
80.15
75.40
70.89
66.74
62.97
59.56
56.47
53.67
51.15
48.79
46.43
43.76
40.40
35.94
30.01
22.41
13.20
2.70
-8.38
-19.09
-28.32
-35.03
-38.49
-38.40
-35.01
-28.92
-20.95
-11.79
-1.96
8.20
18.43
28.34
37.41
45.13
51.10
55.22
57.70
58.91
59.16
58.58
57.14
54.76
51.51
47.68
43.73
40.11
37.04
34.43
31.97
29.27
26.09
22.42
18.43
14.37
10.41
6.58
2.72
-1.42
-6.08
-11.47
-17.67
-24.63
-32.22
-40.12
-47.85
-54.77
-60.18
-63.43
-64.14
-62.19
-57.78
-51.25
-43.05
-33.56
-23.11
-12.02
-0.67
10.47
20.79
29.68
36.60
41.24
43.65
44.13
43.16
41.20
38.57
35.49
32.07
28.44
24.78
21.23
17.83
14.48
11.00
7.25
3.25
-0.84
-4.78
-8.38
-11.56
-14.46
-17.36
-20.60
-24.52
-29.30
-34.94
-41.18
-47.53
-53.37
-58.03
-60.97
-61.84
-60.53
-57.11
-51.82
-44.83
-36.33
-26.50
-15.60
-4.04
7.60
18.70
28.68
37.16
43.97
49.14
52.75
54.90
55.63
54.97
53.05
50.09
46.48
42.65
38.95
35.51
32.18
28.60
24.34
19.10
12.89
5.97
-1.16
-8.07
-14.45
-20.21
-25.47
-30.44
-35.34
-40.32
-45.46
-50.72
-55.91
-60.63
-64.34
-66.38
-66.21
-63.52
-58.31
-50.92
-41.87
-31.74
-21.10
-10.49
-0.41
8.63
16.23
22.09
26.17
28.58
29.65
29.71
29.09
27.99
26.50
24.65
22.47
20.02
17.42
14.76
12.11
9.43
6.59
3.41
-0.27
-4.54
-9.37
-14.64
-20.22
-26.05
-32.11
-38.43
-44.98
-51.57
-57.79
-63.00
-66.44
-67.36
-65.26
-60.03
-51.96
-41.66
-29.90
-17.42
-4.85
7.25
18.37
27.97
35.61
41.02
44.15
45.29
44.87
43.42
41.36
38.94
36.28
33.39
30.26
26.92
23.45
19.87
16.17
12.27
8.02
3.31
-1.92
-7.64
-13.73
-20.08
-26.70
-33.67
-41.20
-49.44
-58.31
-67.40
-75.93
-82.88
-87.30
-88.49
-86.21
-80.62
-72.09
-61.00
-47.65
-32.36
-15.60
1.83
18.88
34.43
47.57
57.80
65.05
69.58
71.81
72.14
70.90
68.40
64.96
60.95
56.69
52.44
48.26
44.01
39.42
34.14
27.92
20.71
12.68
4.22
-4.24
-12.36
-20.05
-27.49
-35.10
-43.24
-52.06
-61.32
-70.33
-78.04
-83.37
-85.41
-83.63
-78.02
-68.97
-57.15
-43.27
-27.98
-11.85
4.57
20.68
35.80
49.21
60.28
68.61
74.09
76.93
77.55
76.49
74.32
71.51
68.44
65.31
62.20
59.03
55.63
51.74
47.14
41.68
35.40
28.48
21.14
13.59
5.83
-2.28
-11.02
-20.69
-31.47
-43.30
-55.80
-68.23
-79.53
-88.48
-93.94
-95.17
-91.96
-84.68
-74.06
-60.99
-46.19
-30.20
-13.43
3.69
20.60
36.59
50.95
63.10
72.67
79.56
83.83
85.66
85.32
83.12
79.45
74.74
69.51
64.22
59.21
54.60
50.22
45.69
40.54
34.38
27.06
18.73
9.75
0.60
-8.33
-16.87
-25.11
-33.37
-42.10
-51.63
-62.07
-73.09
-83.92
-93.43
-100.40
-103.77
-102.86
-97.46
-87.79
-74.42
-58.08
-39.60
-19.82
0.38
20.17
38.77
55.50
69.84
81.45
90.19
96.10
99.40
100.39
99.49
97.10
93.66
89.58
85.20
80.74
76.28
71.74
66.94
61.68
55.83
49.33
42.19
34.47
26.25
17.69
8.96
0.28
-8.27
-16.79
-25.56
-34.97
-45.30
-56.56
-68.37
-79.99
-90.47
-98.81
-104.25
-106.31
-104.84
-99.99
-92.08
-81.47
-68.56
-53.72
-37.38
-20.07
-2.47
14.59
30.23
43.61
54.15
61.61
66.16
68.29
68.64
67.81
66.22
64.13
61.65
58.87
55.88
52.74
49.46
45.95
42.05
37.61
32.55
26.90
20.79
14.38
7.80
1.12
-5.69
-12.68
-19.97
-27.66
-35.85
-44.61
-53.92
-63.58
-73.13
-81.87
-88.93
-93.47
-94.90
-92.94
-87.66
-79.36
-68.47
-55.48
-40.90
-25.30
-9.30
6.44
21.28
34.63
46.06
55.27
62.17
66.87
69.58
70.58
70.09
68.27
65.28
61.33
56.78
52.01
47.32
42.87
38.61
34.40
30.08
25.54
20.68
15.43
9.71
3.51
-3.07
-9.84
-16.63
-23.33
-29.99
-36.81
-44.03
-51.83
-60.24
-69.08
-78.00
-86.44
-93.69
-98.98
-101.59
-101.06
-97.19
-90.15
-80.36
-68.35
-54.66
-39.73
-23.86
-7.28
9.72
26.69
42.94
57.62
69.91
79.27
85.58
89.23
90.82
91.01
90.26
88.80
86.68
83.92
80.58
76.75
72.51
67.86
62.75
57.12
50.98
44.41
37.55
30.54
23.47
16.42
9.46
2.62
-4.07
-10.62
-17.14
-23.78
-30.70
-38.06
-45.90
-54.05
-62.19
-69.78
-76.22
-80.93
-83.51
-83.78
-81.80
-77.79
-72.08
-64.96
-56.64
-47.21
-36.73
-25.26
-13.00
-0.31
12.22
23.90
34.07
42.25
48.23
52.07
54.08
54.68
54.33
53.41
52.16
50.66
48.87
46.69
44.06
41.01
37.64
34.05
30.30
26.40
22.28
17.88
13.20
8.28
3.15
-2.19
-7.75
-13.58
-19.68
-25.98
-32.41
-38.89
-45.40
-51.93
-58.42
-64.69
-70.37
-74.97
-77.99
-79.08
-78.12
-75.22
-70.58
-64.40
-56.74
-47.60
-37.04
-25.28
-12.86
-0.45
11.21
21.51
30.04
36.61
41.24
44.06
45.35
45.44
44.70
43.48
41.97
40.29
38.47
36.48
34.28
31.84
29.11
26.02
22.51
18.58
14.22
9.50
4.51
-0.67
-5.91
-11.11
-16.16
-21.04
-25.83
-30.66
-35.65
-40.86
-46.24
-51.66
-56.92
-61.77
-65.91
-68.99
-70.68
-70.70
-68.95
-65.47
-60.43
-54.07
-46.60
-38.17
-28.95
-19.10
-8.87
1.35
11.06
19.77
27.04
32.63
36.52
38.98
40.36
41.08
41.42
41.56
41.56
41.34
40.84
39.93
38.49
36.44
33.66
30.13
25.87
21.04
15.85
10.56
5.36
0.30
-4.69
-9.82
-15.30
-21.25
-27.69
-34.56
-41.72
-49.08
-56.47
-63.66
-70.27
-75.82
-79.82
-81.90
-81.95
-80.05
-76.44
-71.28
-64.66
-56.50
-46.69
-35.25
-22.46
-8.84
4.82
17.66
28.92
38.11
45.12
50.16
53.69
56.18
57.97
59.16
59.70
59.44
58.37
56.58
54.32
51.82
49.24
46.56
43.64
40.27
36.27
31.54
26.12
20.10
13.64
6.87
-0.06
-7.00
-13.80
-20.36
-26.68
-32.94
-39.45
-46.46
-54.00
-61.72
-68.88
-74.57
-78.01
-78.73
-76.70
-72.15
-65.54
-57.28
-47.71
-37.09
-25.66
-13.61
-1.22
11.19
23.21
34.33
43.99
51.74
57.34
60.85
62.61
63.12
62.86
62.18
61.24
60.05
58.52
56.55
54.09
51.10
47.62
43.70
39.41
34.79
29.89
24.72
19.33
13.76
8.09
2.34
-3.46
-9.38
-15.48
-21.83
-28.48
-35.48
-42.82
-50.42
-57.99
-65.08
-71.06
-75.27
-77.25
-76.85
-74.29
-69.96
-64.33
-57.66
-50.06
-41.53
-32.12
-22.05
-11.74
-1.76
7.30
14.98
20.95
25.11
27.56
28.51
28.26
27.12
25.30
22.98
20.22
17.06
13.61
10.04
6.56
3.36
0.53
-1.97
-4.24
-6.39
-8.46
-10.48
-12.42
-14.28
-16.04
-17.66
-19.10
-20.35
-21.52
-22.93
-25.07
-28.38
-33.05
-38.88
-45.19
-51.05
-55.52
-57.88
-57.77
-55.15
-50.24
-43.27
-34.51
-24.19
-12.56
0.04
13.10
26.05
38.30
49.39
59.01
67.03
73.46
78.41
82.00
84.38
85.73
86.26
86.20
85.84
85.36
84.84
84.17
83.09
81.30
78.57
74.83
70.25
65.17
59.93
54.74
49.60
44.31
38.70
32.66
26.18
19.26
11.85
3.75
-5.22
-15.01
-25.22
-35.01
-43.36
-49.37
-52.57
-52.98
-51.05
-47.33
-42.22
-35.89
-28.34
-19.59
-9.86
0.31
10.20
19.06
26.25
31.42
34.50
35.70
35.40
34.03
32.07
29.85
27.61
25.42
23.22
20.91
18.44
15.77
12.93
9.93
6.76
3.35
-0.38
-4.50
-9.10
-14.21
-19.84
-25.95
-32.38
-38.90
-45.28
-51.37
-57.19
-63.01
-69.17
-75.95
-83.29
-90.70
-97.37
-102.36
-104.89
-104.55
-101.34
-95.54
-87.54
-77.74
-66.50
-54.17
-41.10
-27.69
-14.32
-1.36
10.84
21.93
31.60
39.55
45.59
49.67
51.89
52.48
51.75
50.13
48.07
46.00
44.27
43.03
42.21
41.59
40.83
39.64
37.84
35.38
32.30
28.74
24.84
20.78
16.74
12.91
9.41
6.27
3.30
0.13
-3.73
-8.75
-15.18
-22.83
-31.10
-39.03
-45.61
-50.01
-51.76
-50.78
-47.29
-41.64
-34.11
-24.90
-14.15
-2.04
11.05
24.59
37.90
50.27
61.10
69.90
76.41
80.61
82.63
82.74
81.26
78.44
74.55
69.80
64.45
58.75
53.00
47.39
42.03
36.87
31.75
26.49
20.95
15.10
9.07
3.10
-2.47
-7.38
-11.51
-14.96
-18.10
-21.37
-25.20
-29.88
-35.42
-41.57
-47.86
-53.59
-57.98
-60.26
-59.89
-56.66
-50.81
-42.93
-33.80
-24.13
-14.41
-4.91
4.26
12.94
20.87
27.70
33.12
37.00
39.47
40.79
41.31
41.29
40.89
40.18
39.21
38.03
36.76
35.47
34.14
32.68
30.92
28.66
25.79
22.35
18.53
14.62
10.86
7.36
4.07
0.77
-2.78
-6.85
-11.63
-17.25
-23.68
-30.74
-37.97
-44.71
-50.22
-53.83
-55.15
-54.14
-51.07
-46.38
-40.49
-33.75
-26.36
-18.49
-10.29
-2.03
5.89
13.00
18.85
23.14
25.85
27.18
27.47
27.08
26.27
25.20
23.90
22.41
20.73
18.82
16.60
13.88
10.50
6.32
1.35
-4.23
-10.13
-16.03
-21.67
-26.88
-31.63
-36.03
-40.24
-44.52
-49.06
-54.01
-59.33
-64.82
-70.01
-74.36
-77.29
-78.32
-77.19
-73.85
-68.47
-61.34
-52.76
-43.04
-32.43
-21.11
-9.31
2.69
14.48
25.55
35.39
43.60
50.02
54.76
58.12
60.50
62.21
63.49
64.38
64.87
64.86
64.27
63.06
61.15
58.48
54.98
50.56
45.13
38.67
31.23
22.96
14.06
4.71
-4.95
-14.85
-24.84
-34.66
-43.79
-51.61
-57.51
-61.06
-62.16
-61.03
-58.03
-53.58
-47.96
-41.30
-33.66
-25.15
-16.08
-7.03
1.34
8.39
13.71
17.21
19.06
19.60
19.17
18.00
16.30
14.26
12.14
10.17
8.47
7.00
5.48
3.60
1.05
-2.26
-6.27
-10.76
-15.47
-20.16
-24.70
-29.00
-33.03
-36.79
-40.26
-43.40
-46.13
-48.31
-49.77
-50.28
-49.69
-47.92
-45.00
-40.97
-35.88
-29.69
-22.29
-13.55
-3.45
7.83
19.92
32.24
44.21
55.24
64.88
72.77
78.67
82.41
83.93
83.29
80.69
76.47
71.02
64.78
58.17
51.52
45.09
39.00
33.33
28.02
23.04
18.34
13.93
9.82
6.03
2.56
-0.67
-3.83
-7.17
-11.00
-15.66
-21.36
-28.13
-35.71
-43.52
-50.82
-56.74
-60.62
-62.00
-60.73
-56.90
-50.74
-42.54
-32.60
-21.32
-9.16
3.24
15.18
25.98
35.13
42.37
47.76
51.56
54.05
55.54
56.15
55.93
54.90
53.09
50.68
47.87
44.86
41.71
38.32
34.43
29.77
24.21
17.81
10.82
3.52
-3.95
-11.56
-19.44
-27.65
-36.16
-44.77
-53.11
-60.76
-67.21
-71.90
-74.21
-73.64
-69.81
-62.72
-52.71
-40.50
-26.99
-13.04
0.58
13.31
24.69
34.36
41.97
47.24
50.07
50.58
49.14
46.27
42.54
38.42
34.29
30.42
27.07
24.47
22.81
22.12
22.24
22.77
23.22
23.10
22.03
19.88
16.70
12.66
7.91
2.45
-3.83
-11.10
-19.42
-28.68
-38.52
-48.34
-57.47
-65.23
-71.02
-74.34
-74.86
-72.42
-67.06
-59.03
-48.78
-36.93
-24.14
-11.07
1.75
13.85
24.90
34.59
42.75
49.29
54.24
57.70
59.78
60.55
60.03
58.22
55.12
50.84
45.56
39.49
32.89
25.97
18.96
12.05
5.39
-0.86
-6.61
-11.74
-16.12
-19.65
-22.30
-24.28
-26.03
-28.23
-31.50
-36.20
-42.18
-48.79
-55.07
-60.01
-62.84
-63.17
-61.00
-56.57
-50.24
-42.33
-33.14
-22.94
-12.02
-0.76
10.42
20.98
30.42
38.34
44.53
49.00
51.88
53.36
53.61
52.72
50.79
48.02
44.65
41.01
37.37
33.84
30.34
26.66
22.60
18.00
12.95
7.67
2.49
-2.36
-6.79
-10.94
-15.15
-19.81
-25.24
-31.56
-38.60
-46.02
-53.22
-59.51
-64.11
-66.36
-65.80
-62.36
-56.37
-48.43
-39.29
-29.56
-19.63
-9.70
0.11
9.63
18.50
26.28
32.56
37.06
39.77
40.92
40.88
40.10
38.97
37.84
36.96
36.42
36.19
36.10
35.85
35.09
33.48
30.83
27.13
22.51
17.23
11.51
5.54
-0.59
-6.88
-13.38
-20.15
-27.25
-34.70
-42.42
-50.18
-57.60
-64.13
-69.17
-72.19
-72.83
-70.97
-66.73
-60.41
-52.38
-42.98
-32.53
-21.32
-9.72
1.77
12.52
21.86
29.24
34.44
37.61
39.22
39.84
39.92
39.72
39.29
38.60
37.62
36.40
34.96
33.25
31.15
28.53
25.34
21.62
17.52
13.18
8.68
4.02
-0.88
-6.10
-11.73
-17.84
-24.49
-31.63
-39.13
-46.65
-53.74
-59.87
-64.54
-67.40
-68.20
-66.85
-63.31
-57.66
-50.04
-40.79
-30.34
-19.25
-8.09
2.62
12.45
21.05
28.22
33.89
38.20
41.43
43.91
45.90
47.50
48.62
49.08
48.80
47.79
46.17
44.04
41.38
38.03
33.85
28.78
23.02
16.91
10.85
5.07
-0.43
-5.86
-11.53
-17.67
-24.42
-31.77
-39.59
-47.68
-55.78
-63.55
-70.54
-76.22
-80.08
-81.66
-80.65
-76.93
-70.60
-61.94
-51.38
-39.46
-26.79
-14.02
-1.73
9.55
19.44
27.73
34.37
39.43
43.11
45.67
47.37
48.44
49.06
49.34
49.34
49.05
48.44
47.43
45.91
43.71
40.70
36.78
31.93
26.27
20.00
13.35
6.50
-0.49
-7.65
-15.07
-22.87
-31.12
-39.80
-48.74
-57.53
-65.53
-71.92
-75.90
-76.90
-74.76
-69.67
-62.14
-52.72
-41.94
-30.24
-18.09
-6.01
5.39
15.52
23.96
30.58
35.49
38.91
41.10
42.21
42.35
41.61
40.18
38.23
35.99
33.60
31.06
28.24
24.95
20.98
16.23
10.79
4.89
-1.16
-7.06
-12.63
-17.86
-22.92
-28.11
-33.75
-40.16
-47.51
-55.77
-64.62
-73.42
-81.29
-87.26
-90.53
-90.67
-87.68
-81.88
-73.79
-63.84
-52.35
-39.50
-25.56
-10.92
3.80
17.88
30.56
41.24
49.59
55.55
59.37
61.47
62.35
62.46
62.14
61.53
60.65
59.43
57.73
55.48
52.61
49.11
44.99
40.27
35.01
29.30
23.32
17.30
11.40
5.69
0.08
-5.66
-11.82
-18.62
-26.16
-34.30
-42.68
-50.70
-57.69
-62.89
-65.72
-65.78
-62.95
-57.34
-49.16
-38.71
-26.30
-12.39
2.42
17.31
31.44
44.03
54.59
62.91
69.05
73.22
75.73
76.88
76.97
76.23
74.83
72.87
70.41
67.53
64.32
60.95
57.51
53.99
50.24
46.00
41.02
35.20
28.59
21.43
14.04
6.67
-0.51
-7.48
-14.39
-21.54
-29.24
-37.74
-47.00
-56.63
-65.85
-73.67
-79.11
-81.46
-80.43
-76.12
-68.96
-59.49
-48.28
-35.87
-22.75
-9.47
3.44
15.45
26.12
35.14
42.36
47.78
51.48
53.67
54.56
54.43
53.51
52.04
50.18
48.09
45.87
43.55
41.10
38.40
35.27
31.54
27.07
21.86
16.00
9.68
3.12
-3.48
-9.97
-16.33
-22.64
-29.12
-36.06
-43.70
-52.08
-60.89
-69.42
-76.76
-81.94
-84.23
-83.26
-79.09
-72.08
-62.72
-51.48
-38.74
-24.86
-10.22
4.67
19.16
32.51
44.05
53.32
60.17
64.77
67.50
68.79
69.01
68.42
67.17
65.39
63.20
60.75
58.14
55.37
52.36
48.91
44.80
39.85
34.02
27.44
20.39
13.20
6.17
-0.59
-7.11
-13.62
-20.37
-27.59
-35.40
-43.76
-52.46
-61.11
-69.15
-75.95
-80.85
-83.36
-83.16
-80.17
-74.48
-66.33
-56.00
-43.91
-30.55
-16.55
-2.57
10.70
22.65
32.81
40.89
46.85
50.86
53.30
54.60
55.15
55.16
54.66
53.54
51.73
49.26
46.29
42.97
39.39
35.49
31.10
26.04
20.28
13.94
7.25
0.49
-6.13
-12.50
-18.70
-24.93
-31.52
-38.79
-46.92
-55.73
-64.66
-72.81
-79.15
-82.81
-83.31
-80.57
-74.85
-66.57
-56.16
-44.05
-30.70
-16.66
-2.57
10.89
23.09
33.56
42.03
48.42
52.86
55.59
56.96
57.30
56.93
56.08
54.89
53.45
51.83
50.04
48.04
45.76
43.02
39.67
35.59
30.70
25.09
18.92
12.48
6.06
-0.07
-5.79
-11.21
-16.64
-22.53
-29.29
-37.11
-45.79
-54.76
-63.15
-69.98
-74.39
-75.78
-73.98
-69.17
-61.86
-52.63
-42.05
-30.52
-18.33
-5.69
7.13
19.73
31.56
42.00
50.50
56.71
60.57
62.34
62.47
61.50
59.86
57.85
55.58
53.11
50.49
47.76
44.91
41.85
38.37
34.22
29.28
23.61
17.44
11.11
4.87
-1.17
-7.08
-13.03
-19.24
-25.84
-32.93
-40.53
-48.52
-56.63
-64.33
-70.91
-75.60
-77.75
-77.00
-73.30
-66.93
-58.35
-48.02
-36.38
-23.81
-10.68
2.59
15.44
27.26
37.42
45.46
51.19
54.77
56.60
57.16
56.79
55.63
53.71
51.09
47.99
44.75
41.73
39.08
36.68
34.15
31.08
27.26
22.72
17.77
12.72
7.78
2.98
-1.84
-6.87
-12.28
-18.15
-24.49
-31.27
-38.41
-45.82
-53.27
-60.29
-66.25
-70.36
-71.90
-70.44
-65.93
-58.78
-49.64
-39.26
-28.27
-17.12
-6.08
4.60
14.59
23.47
30.83
36.37
40.05
42.08
42.90
42.94
42.53
41.80
40.70
39.16
37.26
35.25
33.50
32.26
31.44
30.65
29.24
26.65
22.64
17.44
11.57
5.61
-0.10
-5.55
-11.05
-16.98
-23.64
-31.13
-39.32
-47.89
-56.37
-64.16
-70.51
-74.67
-76.06
-74.42
-69.91
-63.05
-54.52
-44.91
-34.58
-23.73
-12.55
-1.39
9.20
18.57
26.20
31.77
35.31
37.04
37.32
36.56
35.21
33.66
32.22
31.00
29.90
28.65
26.92
24.51
21.35
17.53
13.20
8.54
3.72
-1.06
-5.58
-9.74
-13.54
-17.21
-21.10
-25.57
-30.82
-36.80
-43.10
-49.15
-54.26
-57.79
-59.23
-58.32
-55.05
-49.62
-42.40
-33.83
-24.36
-14.38
-4.21
5.85
15.46
24.19
31.58
37.23
40.97
42.94
43.52
43.23
42.48
41.46
40.12
38.30
35.93
33.04
29.79
26.34
22.73
18.85
14.60
9.94
4.99
-0.02
-4.84
-9.36
-13.66
-17.98
-22.62
-27.84
-33.73
-40.22
-47.02
-53.62
-59.42
-63.76
-66.08
-66.05
-63.58
-58.83
-52.10
-43.73
-34.05
-23.37
-12.04
-0.53
10.61
20.82
29.66
36.92
42.60
46.87
49.98
52.12
53.40
53.88
53.59
52.62
51.07
49.08
46.69
43.90
40.63
36.81
32.36
27.29
21.64
15.57
9.33
3.25
-2.39
-7.48
-12.16
-16.81
-21.94
-27.91
-34.77
-42.12
-49.29
-55.46
-59.94
-62.21
-62.02
-59.25
-53.95
-46.31
-36.65
-25.47
-13.38
-1.05
10.89
21.85
31.41
39.24
45.25
49.54
52.45
54.41
55.87
57.12
58.23
59.06
59.37
58.95
57.71
55.61
52.69
48.97
44.43
39.08
32.94
26.12
18.78
11.14
3.38
-4.40
-12.21
-20.13
-28.32
-36.91
-45.88
-55.02
-63.81
-71.60
-77.63
-81.30
-82.21
-80.27
-75.58
-68.41
-59.12
-48.12
-35.92
-23.14
-10.46
1.45
11.98
20.73
27.53
32.46
35.73
37.69
38.63
38.82
38.40
37.48
36.14
34.50
32.70
30.87
29.02
27.04
24.70
21.79
18.16
13.86
9.06
4.04
-1.00
-5.99
-11.03
-16.42
-22.50
-29.52
-37.47
-45.99
-54.37
-61.66
-66.92
-69.42
-68.81
-65.13
-58.72
-50.11
-39.90
-28.67
-16.97
-5.28
5.94
16.35
25.65
33.61
40.02
44.72
47.64
48.84
48.53
47.06
44.83
42.21
39.46
36.71
33.96
31.12
28.02
24.47
20.29
15.39
9.80
3.69
-2.64
-8.83
-14.68
-20.16
-25.53
-31.23
-37.65
-44.95
-52.76
-60.27
-66.38
-70.06
-70.61
-67.89
-62.19
-54.11
-44.37
-33.58
-22.24
-10.76
0.52
11.23
21.05
29.63
36.69
42.07
45.79
48.03
49.11
49.39
49.16
48.61
47.80
46.73
45.42
43.86
41.99
39.67
36.67
32.79
27.89
22.05
15.52
8.67
1.86
-4.70
-11.01
-17.27
-23.85
-31.06
-39.09
-47.86
-56.93
-65.62
-73.08
-78.48
-81.17
-80.81
-77.39
-71.17
-62.60
-52.20
-40.48
-27.92
-14.96
-2.01
10.49
22.06
32.26
40.72
47.21
51.76
54.58
56.02
56.50
56.38
55.88
55.12
54.09
52.82
51.29
49.53
47.46
44.98
41.89
38.04
33.37
28.02
22.27
16.42
10.66
4.97
-0.84
-7.03
-13.78
-21.17
-29.13
-37.55
-46.19
-54.73
-62.68
-69.47
-74.49
-77.24
-77.43
-74.95
-69.89
-62.41
-52.74
-41.23
-28.40
-14.87
-1.41
11.27
22.57
32.08
39.63
45.23
49.08
51.50
52.91
53.72
54.22
54.56
54.68
54.39
53.48
51.83
49.46
46.54
43.27
39.79
36.08
32.04
27.54
22.56
17.19
11.66
6.14
0.73
-4.60
-9.97
-15.49
-21.25
-27.35
-33.94
-41.18
-49.19
-57.85
-66.66
-74.84
-81.44
-85.68
-87.14
-85.82
-82.05
-76.26
-68.82
-59.97
-49.84
-38.58
-26.48
-14.00
-1.78
9.53
19.33
27.31
33.45
38.05
41.60
44.58
47.32
49.96
52.46
54.76
56.81
58.60
60.16
61.44
62.34
62.73
62.55
61.81
60.67
59.35
58.03
56.82
55.73
54.71
53.78
52.94
52.20
51.42
50.29
48.35
45.20
40.68
34.94
28.41
21.63
14.96
8.51
2.22
-4.03
-10.15
-15.86
-20.74
-24.46
-26.96
-28.46
-29.43
-30.35
-31.62
-33.38
-35.54
-37.79
-39.69
-40.72
-40.46
-38.62
-35.19
-30.38
-24.59
-18.36
-12.16
-6.43
-1.47
2.51
5.41
7.22
7.96
7.70
6.44
4.23
1.10
-2.89
-7.60
-12.95
-18.84
-25.28
-32.37
-40.32
-49.33
-59.46
-70.47
-81.73
-92.25
-100.88
-106.56
-108.65
-107.08
-102.25
-94.83
-85.42
-74.41
-61.90
-47.93
-32.65
-16.53
-0.32
15.09
28.86
40.42
49.63
56.70
62.13
66.50
70.28
73.76
77.01
79.96
82.42
84.17
84.93
84.49
82.71
79.67
75.61
70.92
65.94
60.84
55.57
49.95
43.76
36.94
29.63
22.10
14.67
7.58
0.88
-5.55
-11.96
-18.63
-25.78
-33.42
-41.27
-48.80
-55.29
-60.02
-62.42
-62.23
-59.46
-54.44
-47.60
-39.48
-30.59
-21.41
-12.33
-3.69
4.21
11.12
16.85
21.27
24.34
26.11
26.76
26.52
25.69
24.51
23.19
21.86
20.61
19.53
18.62
17.87
17.16
16.31
15.11
13.36
10.95
7.83
4.11
-0.03
-4.35
-8.62
-12.67
-16.49
-20.20
-24.01
-28.12
-32.67
-37.66
-43.00
-48.49
-53.87
-58.79
-62.86
-65.62
-66.63
-65.53
-62.18
-56.63
-49.18
-40.26
-30.29
-19.64
-8.61
2.51
13.38
23.54
32.56
40.03
45.78
49.83
52.43
53.91
54.60
54.70
54.33
53.48
52.12
50.24
47.89
45.18
42.29
39.37
36.54
33.82
31.11
28.24
25.05
21.47
17.50
13.28
8.94
4.63
0.34
-3.96
-8.45
-13.31
-18.72
-24.80
-31.56
-38.83
-46.18
-52.99
-58.49
-61.96
-62.96
-61.41
-57.61
-52.09
-45.38
-37.92
-29.97
-21.66
-13.17
-4.74
3.21
10.27
16.09
20.47
23.46
25.25
26.13
26.40
26.33
26.16
26.09
26.26
26.75
27.55
28.56
29.69
30.85
32.03
33.25
34.58
36.03
37.57
39.15
40.72
42.17
43.36
44.05
43.88
42.50
39.62
35.10
28.98
21.52
13.13
4.37
-4.17
-11.94
-18.48
-23.52
-27.00
-29.01
-29.76
-29.47
-28.33
-26.51
-24.17
-21.54
-18.88
-16.53
-14.71
-13.52
-12.85
-12.41
-11.87
-10.92
-9.43
-7.44
-5.18
-2.95
-1.04
0.41
1.37
1.91
2.16
2.15
1.82
1.00
-0.48
-2.71
-5.69
-9.24
-13.16
-17.21
-21.25
-25.20
-29.13
-33.22
-37.73
-42.92
-48.88
-55.44
-62.09
-68.06
-72.51
-74.78
-74.50
-71.67
-66.56
-59.55
-51.06
-41.52
-31.33
-20.91
-10.66
-0.88
8.16
16.30
23.38
29.27
33.88
37.15
39.09
39.82
39.51
38.40
36.78
34.95
33.18
31.57
30.07
28.47
26.51
23.98
20.79
16.96
12.60
7.86
2.91
-2.10
-7.03
-11.83
-16.57
-21.49
-26.91
-33.13
-40.24
-47.99
-55.77
-62.76
-68.13
-71.29
-71.95
-70.18
-66.22
-60.36
-52.87
-43.98
-33.90
-22.96
-11.53
-0.05
11.02
21.25
30.24
37.69
43.41
47.44
50.05
51.70
52.88
53.97
55.15
56.36
57.45
58.20
58.41
57.87
56.34
53.56
49.26
43.36
35.97
27.41
18.09
8.36
-1.60
-11.73
-22.03
-32.49
-43.07
-53.73
-64.44
-75.05
-85.24
-94.41
-101.75
-106.45
-107.97
-106.23
-101.52
-94.40
-85.34
-74.63
-62.41
-48.75
-33.83
-18.12
-2.24
13.05
27.09
39.38
49.73
58.16
64.92
70.29
74.51
77.73
80.02
81.38
81.85
81.54
80.61
79.15
77.19
74.56
71.03
66.34
60.37
53.23
45.21
36.71
28.12
19.64
11.32
3.08
-5.21
-13.67
-22.34
-31.30
-40.59
-50.17
-59.84
-69.13
-77.31
-83.51
-87.02
-87.42
-84.77
-79.51
-72.27
-63.54
-53.55
-42.25
-29.48
-15.26
0.05
15.69
30.68
44.10
55.24
63.80
69.78
73.45
75.15
75.31
74.35
72.72
70.84
68.98
67.21
65.32
63.02
59.98
56.07
51.40
46.28
41.05
35.96
31.03
26.10
20.91
15.25
9.02
2.31
-4.71
-11.83
-18.86
-25.78
-32.66
-39.74
-47.30
-55.46
-64.19
-73.06
-81.36
-88.19
-92.71
-94.30
-92.76
-88.28
-81.30
-72.40
-62.09
-50.75
-38.61
-25.79
-12.45
1.17
14.61
27.30
38.58
47.91
54.97
59.71
62.39
63.43
63.36
62.68
61.78
60.94
60.27
59.74
59.20
58.43
57.22
55.42
52.97
49.85
46.07
41.63
36.57
30.95
24.93
18.68
12.32
5.87
-0.74
-7.64
-14.93
-22.61
-30.68
-39.14
-47.97
-57.10
-66.20
-74.61
-81.43
-85.74
-86.94
-84.91
-80.04
-72.94
-64.22
-54.26
-43.25
-31.25
-18.49
-5.32
7.68
19.91
30.86
40.17
47.66
53.33
57.36
59.99
61.55
62.37
62.66
62.53
61.98
61.00
59.53
57.62
55.35
52.84
50.11
47.07
43.59
39.50
34.75
29.35
23.47
17.29
10.98
4.66
-1.67
-8.06
-14.64
-21.57
-29.05
-37.16
-45.86
-54.84
-63.50
-71.06
-76.70
-79.77
-79.93
-77.21
-71.92
-64.52
-55.50
-45.25
-34.03
-22.03
-9.39
3.68
16.89
29.74
41.66
52.03
60.38
66.52
70.56
72.87
73.89
73.96
73.25
71.83
69.75
67.11
64.03
60.55
56.64
52.17
47.10
41.53
35.79
30.27
25.26
20.79
16.60
12.32
7.58
2.21
-3.76
-10.10
-16.53
-22.80
-28.72
-34.31
-39.76
-45.46
-51.84
-59.18
-67.38
-75.81
-83.43
-89.02
-91.60
-90.73
-86.54
-79.68
-70.95
-61.06
-50.46
-39.32
-27.68
-15.57
-3.11
9.40
21.50
32.63
42.21
49.77
55.09
58.25
59.64
59.85
59.46
58.87
58.23
57.51
56.53
55.17
53.38
51.12
48.36
45.03
41.05
36.48
31.53
26.50
21.69
17.21
12.93
8.55
3.77
-1.53
-7.22
-13.00
-18.57
-23.74
-28.59
-33.29
-38.11
-43.27
-48.88
-54.91
-61.14
-67.11
-72.19
-75.63
-76.74
-75.14
-70.83
-64.23
-55.92
-46.52
-36.44
-25.89
-15.02
-4.01
6.80
16.99
26.07
33.65
39.48
43.53
45.96
47.05
47.18
46.70
45.95
45.15
44.36
43.49
42.38
40.84
38.82
36.38
33.65
30.82
28.00
25.13
22.04
18.53
14.50
9.99
5.19
0.34
-4.37
-8.87
-13.19
-17.43
-21.70
-26.11
-30.80
-35.92
-41.55
-47.60
-53.69
-59.18
-63.24
-65.11
-64.35
-60.97
-55.40
-48.22
-40.02
-31.20
-21.97
-12.46
-2.83
6.64
15.58
23.56
30.20
35.22
38.54
40.28
40.78
40.48
39.84
39.19
38.65
38.14
37.44
36.32
34.58
32.15
29.08
25.49
21.53
17.40
13.21
9.08
5.05
1.16
-2.56
-6.08
-9.37
-12.43
-15.31
-18.12
-21.00
-24.14
-27.73
-31.91
-36.76
-42.16
-47.76
-52.97
-57.06
-59.31
-59.18
-56.53
-51.59
-44.91
-37.14
-28.83
-20.36
-11.96
-3.84
3.69
10.24
15.44
19.08
21.26
22.32
22.70
22.78
22.75
22.59
22.23
21.62
20.82
19.95
19.14
18.41
17.67
16.76
15.50
13.78
11.56
8.90
5.89
2.69
-0.57
-3.77
-6.87
-9.85
-12.78
-15.78
-18.98
-22.50
-26.44
-30.91
-35.90
-41.31
-46.82
-51.91
-55.90
-58.15
-58.23
-56.00
-51.67
-45.64
-38.37
-30.23
-21.48
-12.35
-3.08
5.99
14.41
21.68
27.39
31.30
33.44
34.13
33.88
33.28
32.86
32.86
33.32
34.02
34.69
35.03
34.87
34.10
32.72
30.77
28.30
25.41
22.20
18.79
15.27
11.68
8.05
4.39
0.68
-3.04
-6.75
-10.46
-14.24
-18.27
-22.81
-28.11
-34.25
-41.00
-47.73
-53.45
-57.07
-57.66
-54.82
-48.78
-40.32
-30.49
-20.19
-10.02
-0.22
9.18
18.06
26.11
32.86
37.87
40.93
42.21
42.15
41.30
40.12
38.82
37.39
35.72
33.67
31.23
28.38
25.17
21.53
17.36
12.58
7.17
1.27
-4.88
-11.01
-16.89
-22.37
-27.38
-31.94
-36.19
-40.34
-44.71
-49.60
-55.16
-61.39
-67.97
-74.39
-80.00
-84.16
-86.38
-86.40
-84.16
-79.80
-73.55
-65.66
-56.39
-45.99
-34.74
-22.99
-11.18
0.19
10.62
19.69
27.08
32.73
36.80
39.64
41.65
43.15
44.26
44.94
45.06
44.56
43.54
42.21
40.76
39.26
37.60
35.51
32.71
29.02
24.48
19.25
13.66
7.98
2.38
-3.14
-8.75
-14.72
-21.27
-28.51
-36.28
-44.17
-51.58
-57.83
-62.26
-64.37
-63.88
-60.77
-55.24
-47.65
-38.45
-28.09
-17.05
-5.78
5.20
15.38
24.29
31.58
37.20
41.34
44.39
46.78
48.82
50.56
51.85
52.41
52.03
50.66
48.43
45.54
42.18
38.45
34.35
29.84
24.96
19.81
14.60
9.49
4.59
-0.17
-5.00
-10.17
-15.99
-22.66
-30.27
-38.71
-47.63
-56.43
-64.30
-70.41
-74.01
-74.64
-72.24
-67.12
-59.77
-50.80
-40.63
-29.51
-17.59
-5.01
7.92
20.64
32.45
42.66
50.78
56.64
60.38
62.34
62.91
62.43
61.12
59.19
56.82
54.22
51.63
49.22
47.01
44.91
42.68
40.06
36.79
32.71
27.78
22.07
15.77
9.08
2.24
-4.71
-11.78
-19.16
-27.01
-35.47
-44.40
-53.42
-61.87
-68.93
-73.79
-75.85
-74.84
-70.82
-64.14
-55.30
-44.81
-33.10
-20.48
-7.25
6.21
19.43
31.79
42.68
51.61
58.39
63.13
66.17
68.00
69.01
69.46
69.42
68.86
67.73
66.01
63.74
60.99
57.82
54.28
50.36
46.07
41.38
36.29
30.77
24.82
18.49
11.88
5.06
-1.89
-8.98
-16.33
-24.08
-32.34
-41.02
-49.79
-58.05
-65.05
-69.99
-72.28
-71.64
-68.17
-62.21
-54.26
-44.76
-34.09
-22.54
-10.43
1.86
13.82
24.92
34.61
42.52
48.49
52.57
55.01
56.12
56.24
55.67
54.65
53.33
51.79
50.06
48.12
45.98
43.62
41.05
38.18
34.89
30.98
26.35
21.07
15.39
9.70
4.32
-0.61
-5.26
-9.95
-15.08
-20.96
-27.70
-35.22
-43.18
-51.07
-58.18
-63.75
-67.09
-67.74
-65.64
-61.06
-54.49
-46.46
-37.39
-27.54
-17.13
-6.39
4.28
14.32
23.19
30.43
35.88
39.64
42.04
43.42
44.09
44.20
43.80
42.91
41.59
39.95
38.08
36.06
33.82
31.26
28.25
24.70
20.58
15.98
11.05
5.97
0.88
-4.18
-9.26
-14.44
-19.85
-25.56
-31.61
-37.98
-44.56
-51.10
-57.16
-62.19
-65.59
-66.93
-66.02
-63.00
-58.10
-51.56
-43.48
-33.92
-23.03
-11.25
0.68
11.85
21.37
28.70
33.73
36.82
38.58
39.62
40.39
41.01
41.37
41.22
40.38
38.87
36.88
34.69
32.53
30.45
28.27
25.73
22.61
18.80
14.38
9.61
4.81
0.26
-3.87
-7.67
-11.44
-15.66
-20.79
-27.04
-34.25
-41.85
-48.99
-54.83
-58.70
-60.27
-59.51
-56.59
-51.74
-45.20
-37.20
-27.97
-17.82
-7.18
3.43
13.44
22.38
29.93
36.03
40.85
44.65
47.67
50.01
51.61
52.36
52.19
51.15
49.42
47.20
44.67
41.92
38.95
35.66
31.91
27.56
22.56
16.94
10.84
4.51
-1.81
-7.92
-13.75
-19.37
-24.99
-30.92
-37.47
-44.83
-52.94
-61.40
-69.50
-76.35
-81.16
-83.38
-82.82
-79.57
-73.94
-66.27
-56.86
-46.05
-34.13
-21.45
-8.35
4.75
17.34
28.84
38.62
46.13
51.10
53.62
54.13
53.30
51.80
50.14
48.60
47.25
46.06
44.94
43.79
42.48
40.81
38.52
35.43
31.45
26.67
21.34
15.78
10.27
4.96
-0.20
-5.42
-11.01
-17.28
-24.46
-32.58
-41.46
-50.64
-59.43
-67.03
-72.71
-75.94
-76.51
-74.49
-70.13
-63.75
-55.63
-46.00
-35.10
-23.19
-10.63
2.17
14.68
26.38
36.71
45.26
51.78
56.28
58.99
60.28
60.55
60.15
59.32
58.20
56.85
55.27
53.38
51.08
48.30
45.09
41.54
37.79
33.88
29.78
25.36
20.52
15.28
9.78
4.23
-1.22
-6.55
-11.87
-17.38
-23.30
-29.81
-37.01
-44.84
-53.00
-60.95
-67.84
-72.80
-75.10
-74.39
-70.80
-64.86
-57.22
-48.46
-38.91
-28.74
-18.05
-7.09
