1683551030.00
64.000000
-0.00
-0.00
-0.00
-0.00
-0.00
-0.00
-0.00
-0.00
-0.00
-0.00
0.00
0.01
0.01
-0.00
-0.03
-0.05
-0.05
0.00
0.13
0.36
0.66
1.01
1.37
1.72
2.06
2.40
2.79
3.24
3.80
4.42
5.06
5.66
6.20
6.68
7.15
7.68
8.31
9.14
10.09
11.04
11.88
12.56
13.14
13.76
14.65
15.96
17.91
20.32
22.90
25.38
27.58
29.57
31.68
34.32
37.81
42.54
48.15
54.10
59.83
64.97
69.58
74.14
79.34
85.71
93.76
103.00
112.62
121.73
129.77
136.75
143.30
150.75
157.77
166.64
177.95
191.79
206.97
220.57
228.25
225.36
208.53
176.87
132.76
80.05
23.07
-34.94
-92.44
-149.16
-205.23
-260.37
-313.74
-363.87
-409.83
-450.91
-486.50
-515.74
-537.23
-549.22
-549.96
-538.37
-514.21
-478.67
-433.88
-382.45
-327.02
-269.84
-212.63
-156.66
-102.95
-52.37
-5.90
35.58
71.43
101.35
125.50
144.38
158.69
169.15
176.37
180.75
182.57
182.07
179.51
175.23
169.65
163.18
156.15
148.81
141.30
133.69
126.02
118.33
110.69
103.16
95.80
88.68
81.83
75.25
68.95
62.95
57.25
51.86
46.78
42.02
37.58
33.45
29.62
26.09
22.84
19.85
17.11
14.62
12.36
10.34
8.57
7.04
5.73
4.61
3.67
2.87
2.18
1.60
1.11
0.72
0.43
0.21
0.06
-0.06
-0.19
-0.35
-0.53
-0.73
-0.89
-1.00
-1.04
-1.04
-1.07
-1.19
-1.43
-1.79
-2.18
-2.54
-2.78
-2.89
-2.96
-3.10
-3.44
-4.00
-4.75
-5.53
-6.17
-6.54
-6.63
-6.57
-6.58
-6.87
-7.53
-8.51
-9.62
-10.63
-11.39
-11.81
-11.97
-11.99
-12.02
-12.27
-13.07
-14.71
-17.22
-20.00
-21.80
-21.09
-16.70
-8.44
2.76
15.15
26.91
36.73
44.08
48.88
51.15
50.84
48.06
43.36
37.82
32.63
28.42
24.88
20.95
15.50
8.21
0.02
-7.21
-11.48
-11.55
-7.81
-2.05
3.03
4.86
1.92
-5.58
-15.61
-24.94
-30.21
-28.94
-20.23
-4.96
14.32
33.66
48.49
54.59
49.49
33.53
10.09
-15.29
-36.97
-51.12
-57.07
-57.08
-54.99
-54.09
-55.45
-57.47
-56.70
-49.84
-35.56
-15.62
5.53
22.53
31.57
31.95
26.06
17.80
10.43
5.31
2.18
0.39
-0.10
1.40
5.45
11.25
16.51
18.38
15.21
7.51
-2.35
-11.66
-18.85
-23.83
-27.71
-31.74
-36.36
-41.07
-44.83
-46.87
-47.38
-47.47
-48.01
-49.50
-51.84
-54.47
-56.76
-58.72
-60.59
-63.10
-66.69
-69.37
-67.70
-58.17
-39.25
-12.52
17.17
42.90
57.84
57.80
45.11
25.30
4.10
-15.73
-34.51
-54.28
-77.12
-103.73
-132.50
-156.04
-167.34
-162.75
-144.19
-116.56
-84.36
-49.84
-13.03
27.47
77.78
141.63
218.67
303.26
388.45
469.60
545.22
616.06
651.66
631.18
556.77
455.25
355.41
272.65
209.47
161.86
124.06
90.90
67.83
52.36
42.37
34.14
23.93
9.59
-9.51
-33.40
-62.20
-94.80
-130.33
-166.46
-202.12
-236.95
-270.62
-303.31
-336.23
-357.25
-357.81
-338.68
-307.29
-272.16
-238.43
-207.87
-180.87
-157.72
-138.73
-124.94
-116.80
-113.33
-112.89
-113.15
-111.19
-104.07
-90.26
-70.71
-50.30
-34.76
-27.87
-30.09
-38.67
-49.56
-59.13
-65.89
-70.37
-76.79
-86.40
-98.72
-112.16
-124.63
-134.08
-138.08
-133.82
-118.86
-93.37
-60.30
-24.76
7.37
31.84
47.55
56.45
61.56
64.83
65.82
62.55
53.95
41.05
27.38
18.04
17.75
29.29
52.78
86.15
119.43
142.87
146.88
124.85
76.38
8.92
-63.64
-125.52
-164.97
-178.23
-169.63
-148.35
-123.25
-99.01
-75.53
-50.47
-22.48
6.89
34.37
56.44
72.52
85.18
99.07
118.76
146.94
183.87
227.42
274.85
320.66
359.86
387.54
399.82
395.00
374.31
341.79
303.22
265.95
232.75
206.21
186.88
173.98
166.40
163.48
165.29
172.02
184.97
199.13
209.92
211.85
200.68
175.67
140.40
101.56
53.44
18.02
-7.93
-28.59
-49.68
-76.22
-111.13
-155.18
-207.04
-263.12
-315.43
-358.72
-385.48
-391.40
-377.48
-350.33
-319.45
-292.93
-273.57
-256.05
-233.73
-197.27
-141.05
-66.08
19.70
103.71
172.64
216.45
232.49
223.01
196.96
165.45
137.78
118.86
108.88
104.77
102.43
99.09
92.40
81.86
67.60
50.18
30.76
11.15
-6.25
-19.04
-24.95
-23.04
-13.19
3.88
27.12
55.62
88.67
125.34
163.68
200.21
230.11
248.38
251.50
238.69
212.38
177.24
138.51
100.39
65.27
33.82
5.72
-19.58
-42.49
-63.34
-82.49
-100.41
-117.63
-134.50
-151.19
-167.91
-185.23
-204.25
-226.27
-252.04
-280.89
-310.19
-335.76
-353.13
-359.12
-353.05
-336.94
-314.53
-289.72
-265.27
-242.29
-220.66
-199.87
-179.68
-160.17
-141.36
-122.81
-103.67
-83.10
-61.01
-38.46
-17.57
-0.94
9.33
12.29
8.51
-0.13
-10.96
-21.20
-28.62
-31.96
-31.05
-26.72
-20.29
-13.05
-5.93
0.67
6.65
11.91
16.22
19.32
21.15
22.11
22.98
24.48
26.96
30.07
33.00
34.90
35.32
34.46
32.88
31.13
29.39
27.52
25.35
23.03
21.12
20.37
21.18
23.32
25.94
28.02
28.87
28.38
26.94
24.93
22.50
19.39
15.19
9.69
3.03
-4.26
-11.52
-18.10
-23.33
-26.48
-26.83
-23.83
-17.39
-8.13
2.81
14.05
24.48
33.46
40.81
46.49
50.47
52.57
52.62
50.70
47.20
42.69
37.75
32.82
28.15
23.90
20.19
17.16
14.86
13.19
11.83
10.33
8.22
5.17
1.16
-3.58
-8.46
-12.77
-15.85
-17.36
-17.42
-16.68
-16.06
-16.43
-18.27
-21.45
-25.33
-28.99
-31.46
-32.06
-30.50
-26.90
-21.68
-15.44
-8.86
-2.60
2.80
7.00
9.86
11.51
12.25
12.49
12.56
12.71
13.02
13.48
14.03
14.61
15.13
15.49
15.60
15.39
14.90
14.31
13.87
13.83
14.25
14.99
15.71
15.97
15.46
14.01
11.70
8.74
5.39
1.86
-1.73
-5.30
-8.70
-11.71
-13.96
-15.08
-14.81
-13.05
-9.94
-5.73
-0.75
4.72
10.40
15.96
21.00
25.07
27.77
28.91
28.61
27.30
25.55
23.94
22.78
22.11
21.73
21.36
20.83
20.18
19.62
19.36
19.45
19.73
19.90
19.63
18.77
17.31
15.37
13.14
10.71
8.10
5.24
2.02
-1.64
-5.78
-10.27
-14.82
-18.92
-21.94
-23.30
-22.63
-19.93
-15.55
-10.09
-4.17
1.66
7.08
11.86
15.91
19.14
21.47
22.94
23.68
23.90
23.89
23.83
23.77
23.64
23.32
22.74
21.96
21.13
20.44
19.97
19.69
19.42
18.94
18.07
16.68
14.80
12.56
10.14
7.72
5.37
3.01
0.42
-2.69
-6.52
-11.02
-15.86
-20.45
-24.15
-26.46
-27.18
-26.35
-24.20
-20.97
-16.91
-12.21
-7.12
-1.93
3.08
7.62
11.50
14.65
17.07
18.82
19.95
20.55
20.74
20.61
20.23
19.66
18.87
17.82
16.47
14.82
12.99
11.14
9.48
8.14
7.09
6.14
4.96
3.33
1.19
-1.25
-3.64
-5.68
-7.27
-8.61
-10.05
-11.98
-14.53
-17.57
-20.64
-23.14
-24.42
-24.04
-21.79
-17.79
-12.40
-6.17
0.32
6.52
12.02
16.56
19.99
22.29
23.52
23.84
23.44
22.56
21.39
20.06
18.58
16.93
15.07
13.04
10.99
9.13
7.71
6.90
6.66
6.80
7.01
7.01
6.62
5.87
4.86
3.74
2.52
1.10
-0.74
-3.16
-6.24
-9.86
-13.78
-17.71
-21.34
-24.32
-26.27
-26.85
-25.83
-23.20
-19.19
-14.21
-8.74
-3.19
2.11
6.96
11.18
14.64
17.21
18.85
19.64
19.77
19.44
18.84
17.99
16.88
15.43
13.68
11.78
9.98
8.52
7.54
7.02
6.74
6.44
5.83
4.70
2.96
0.66
-1.99
-4.74
-7.31
-9.60
-11.67
-13.80
-16.31
-19.40
-23.09
-27.11
-30.96
-34.08
-35.95
-36.21
-34.70
-31.52
-26.90
-21.25
-15.00
-8.56
-2.29
3.53
8.69
13.08
16.64
19.36
21.25
22.34
22.70
22.42
21.64
20.56
19.33
18.08
16.87
15.72
14.62
13.59
12.61
11.64
10.65
9.58
8.36
6.97
5.38
3.57
1.56
-0.69
-3.15
-5.84
-8.76
-11.94
-15.36
-18.95
-22.59
-26.11
-29.30
-31.97
-33.87
-34.76
-34.31
-32.22
-28.32
-22.72
-15.82
-8.31
-0.95
5.59
10.91
14.90
17.67
19.40
20.28
20.44
20.00
19.10
17.89
16.55
15.22
14.00
12.96
12.13
11.52
11.09
10.78
10.52
10.20
9.73
9.05
8.06
6.66
4.75
2.27
-0.75
-4.19
-7.85
-11.53
-14.99
-18.05
-20.56
-22.44
-23.69
-24.36
-24.52
-24.18
-23.26
-21.52
-18.65
-14.42
-8.79
-2.02
5.33
12.49
18.66
23.22
25.93
26.86
26.47
25.30
23.87
22.49
21.24
20.03
18.67
16.98
14.83
12.13
8.90
5.22
1.37
-2.30
-5.42
-7.77
-9.42
-10.79
-12.48
-15.06
-18.84
-23.72
-29.30
-35.07
-40.66
-46.05
-51.48
-57.33
-63.87
-71.10
-78.69
-86.04
-92.51
-97.46
-100.44
-101.25
-99.99
-97.07
-93.11
-88.72
-84.30
-79.95
-75.44
-70.40
-64.56
-57.95
-51.00
-44.51
-39.51
-37.18
-38.62
-44.69
-55.87
-72.13
-93.06
-118.00
-146.36
-177.53
-210.54
-243.51
-273.29
-295.93
-307.68
-306.40
-292.48
-268.65
-238.83
-206.40
-173.09
-138.79
-102.30
-62.60
-19.48
26.79
76.34
130.08
189.03
252.74
317.95
378.55
427.18
457.73
467.30
456.78
429.62
389.79
340.76
284.69
223.06
157.54
90.33
23.20
-43.38
-110.60
-180.00
-250.85
-318.79
-376.18
-414.61
-428.17
-416.34
-384.20
-340.51
-294.15
-250.25
-210.11
-172.42
-135.46
-98.54
-62.44
-28.13
3.87
34.00
65.27
99.67
136.89
174.42
209.13
238.87
264.75
289.64
316.65
351.85
397.76
451.87
508.17
560.88
605.89
643.79
676.01
703.48
732.62
767.01
805.05
840.39
865.38
872.26
859.12
826.12
775.56
719.98
670.17
630.47
598.34
569.00
537.30
505.00
474.62
398.12
255.96
63.91
-135.54
-303.81
-410.61
-473.86
-509.94
-530.21
-542.62
-545.05
-535.41
-516.36
-494.48
-475.23
-461.83
-449.45
-433.03
-409.97
-374.57
-326.10
-269.96
-215.00
-168.19
-133.09
-105.62
-80.92
-56.13
-27.28
5.88
39.57
67.78
85.58
89.99
82.74
66.54
44.06
19.70
-2.99
-22.21
-37.85
-50.51
-61.29
-70.19
-77.59
-84.45
-91.27
-98.63
-107.13
-117.29
-129.24
-142.95
-157.95
-174.03
-191.36
-210.25
-231.08
-254.25
-280.15
-308.80
-339.50
-370.52
-399.20
-422.51
-437.78
-443.37
-438.80
-424.61
-401.94
-372.31
-337.55
-299.81
-261.37
-224.35
-190.37
-160.36
-134.64
-113.20
-95.86
-82.37
-72.26
-64.76
-58.93
-53.86
-48.80
-43.22
-36.70
-28.95
-19.89
-9.75
0.96
11.58
21.51
30.31
37.77
43.83
48.49
51.83
54.03
55.36
56.02
55.97
54.83
51.88
46.43
38.12
27.19
14.56
1.54
-10.43
-20.21
-27.06
-30.78
-31.54
-29.85
-26.29
-21.45
-15.90
-10.17
-4.72
0.08
3.98
6.89
8.90
10.25
11.26
12.28
13.65
15.59
18.15
21.19
24.48
27.79
31.11
34.61
38.59
43.27
48.52
53.86
58.53
61.77
63.11
62.53
60.40
57.31
53.97
51.04
48.93
47.66
46.76
45.33
42.36
37.30
30.40
22.83
16.40
12.94
13.82
19.59
29.76
42.62
55.06
62.79
61.25
47.11
19.68
-18.50
-62.40
-106.07
-144.24
-173.18
-190.48
-194.45
-183.93
-158.89
-121.42
-76.10
-29.24
13.00
46.60
70.55
86.40
96.65
103.14
106.41
106.08
101.70
93.66
83.30
72.37
62.24
53.41
45.53
38.02
30.64
23.82
18.52
15.74
15.97
18.93
23.67
29.07
34.19
38.57
42.18
45.15
47.53
49.18
49.82
49.32
47.80
45.67
43.46
41.66
40.45
39.79
39.41
39.04
38.55
37.96
37.48
37.37
37.81
38.78
39.93
40.69
40.47
38.93
36.24
33.03
30.17
28.43
28.11
28.91
30.04
30.42
29.00
25.07
18.48
9.80
0.16
-9.07
-16.78
-22.50
-26.56
-29.77
-32.99
-36.58
-40.31
-43.52
-45.48
-45.77
-44.36
-41.55
-37.77
-33.39
-28.63
-23.65
-18.53
-13.35
-8.22
-3.32
1.14
4.99
8.15
10.67
12.65
14.27
15.68
16.92
17.88
18.29
17.79
15.99
12.67
7.85
1.93
-4.39
-10.29
-15.14
-18.78
-21.63
-24.55
-28.42
-33.74
-40.31
-47.18
-52.95
-56.32
-56.45
-53.18
-46.98
-38.51
-28.44
-17.26
-5.46
6.33
17.19
26.27
33.24
38.76
44.50
52.56
64.45
80.20
98.11
115.38
129.27
138.13
141.87
141.55
138.50
133.66
127.35
119.63
110.86
101.77
93.24
85.80
79.20
72.44
64.11
53.01
38.58
21.21
2.30
-16.01
-31.32
-41.79
-46.79
-47.33
-45.68
-44.46
-45.42
-48.66
-52.75
-55.63
-55.87
-53.47
-49.83
-46.81
-45.65
-46.33
-47.69
-48.20
-46.79
-43.25
-38.02
-31.75
-24.83
-17.33
-9.22
-0.65
7.93
15.95
22.96
28.92
34.24
39.58
45.50
52.11
58.85
64.49
67.50
66.63
61.44
52.77
42.70
34.11
29.82
31.64
39.56
51.51
63.65
71.38
70.70
59.46
38.17
9.86
-20.87
-49.27
-71.72
-86.51
-93.78
-95.00
-92.17
-87.39
-82.48
-78.92
-77.78
-79.49
-83.74
-89.36
-94.60
-97.57
-96.76
-91.38
-81.44
-67.71
-51.47
-34.35
-18.13
-4.64
4.50
8.24
6.43
0.09
-8.69
-17.26
-23.10
-24.47
-20.79
-12.61
-1.28
11.37
23.46
33.26
39.43
41.28
38.97
33.59
26.91
20.93
17.26
16.74
19.33
24.30
30.53
36.85
42.12
45.44
46.25
44.39
40.24
34.56
28.32
22.31
16.97
12.30
8.01
3.86
-0.13
-3.66
-6.25
-7.60
-7.69
-6.94
-5.98
-5.40
-5.58
-6.47
-7.75
-8.91
-9.52
-9.34
-8.40
-6.97
-5.42
-4.05
-3.00
-2.26
-1.77
-1.43
-1.16
-0.83
-0.27
0.70
2.17
3.99
5.79
7.14
7.69
7.40
6.47
5.22
3.89
2.60
1.44
0.57
0.31
0.93
2.53
4.80
7.13
8.70
8.87
7.38
4.49
0.90
-2.45
-4.70
-5.41
-4.75
-3.50
-2.74
-3.44
-5.98
-10.00
-14.52
-18.38
-20.61
-20.76
-18.85
-15.24
-10.43
-5.01
0.48
5.49
9.62
12.74
14.98
16.68
18.20
19.62
20.69
20.88
19.65
16.79
12.55
7.61
2.81
-1.19
-4.11
-5.97
-6.97
-7.36
-7.27
-6.89
-6.49
-6.47
-7.18
-8.76
-10.99
-13.39
-15.48
-17.06
-18.21
-19.23
-20.26
-21.18
-21.60
-21.11
-19.59
-17.27
-14.71
-12.44
-10.73
-9.45
-8.19
-6.50
-4.20
-1.43
1.31
3.45
4.54
4.43
3.32
1.61
-0.24
-1.91
-3.24
-4.26
-5.04
-5.58
-5.79
-5.50
-4.63
-3.25
-1.63
-0.21
0.60
0.60
-0.13
-1.25
-2.35
-3.08
-3.34
-3.17
-2.80
-2.47
-2.37
-2.62
-3.24
-4.16
-5.19
-6.05
-6.39
-5.96
-4.66
-2.60
-0.04
2.75
5.56
8.27
10.83
13.14
15.03
16.25
16.63
16.20
15.27
14.39
14.14
14.80
16.29
18.12
19.73
20.76
21.30
21.71
22.40
23.41
24.32
24.40
23.07
20.28
16.51
12.56
9.09
6.24
3.73
1.11
-1.75
-4.56
-6.82
-8.13
-8.60
-8.79
-9.36
-10.70
-12.65
-14.58
-15.81
-15.95
-15.11
-13.89
-13.04
-13.14
-14.44
-16.78
-19.65
-22.36
-24.19
-24.61
-23.37
-20.56
-16.47
-11.51
-5.99
-0.14
5.82
11.57
16.58
20.33
22.48
23.21
23.22
23.46
24.64
26.83
29.27
30.70
29.92
26.35
20.29
12.73
4.86
-2.53
-9.20
-15.33
-21.17
-26.66
-31.36
-34.61
-35.96
-35.33
-33.06
-29.70
-25.75
-21.44
-16.87
-12.13
-7.40
-3.02
0.75
3.84
6.40
8.74
11.08
13.44
15.64
17.46
18.73
19.45
19.71
19.52
18.79
17.29
14.80
11.23
6.70
1.56
-3.74
-8.84
-13.55
-17.88
-21.97
-25.96
-29.89
-33.59
-36.78
-39.07
-40.09
-39.56
-37.36
-33.55
-28.32
-22.06
-15.23
-8.33
-1.81
4.02
8.93
12.76
15.36
16.67
16.78
15.89
14.40
12.68
11.08
9.77
8.80
8.18
7.92
7.93
8.04
7.90
7.00
5.00
1.80
-2.24
-6.45
-10.12
-12.74
-14.26
-14.92
-15.13
-15.16
-15.09
-14.82
-14.28
-13.50
-12.59
-11.57
-10.32
-8.55
-5.95
-2.41
1.89
6.48
10.80
14.40
17.03
18.71
19.58
19.88
19.84
19.76
19.95
20.65
21.88
23.39
24.70
25.31
24.90
23.39
20.92
17.72
13.92
9.62
5.01
0.53
-3.16
-5.33
-5.56
-4.01
-1.40
1.16
2.61
2.37
0.49
-2.42
-5.45
-7.77
-9.02
-9.33
-9.30
-9.70
-11.17
-13.98
-17.95
-22.46
-26.75
-30.01
-31.56
-30.94
-28.02
-23.02
-16.54
-9.48
-2.68
3.35
8.64
13.67
18.91
24.37
29.39
32.81
33.61
31.49
27.08
21.73
16.73
12.80
9.76
6.94
3.68
-0.10
-3.89
-6.89
-8.60
-9.07
-8.90
-8.77
-9.06
-9.64
-10.14
-10.25
-10.03
-9.85
-10.10
-10.80
-11.52
-11.58
-10.44
-8.03
-4.82
-1.58
0.97
2.43
2.77
2.24
1.13
-0.24
-1.62
-2.74
-3.38
-3.41
-2.90
-2.09
-1.31
-0.84
-0.75
-0.88
-0.91
-0.60
0.09
0.95
1.52
1.35
0.14
-2.13
-5.19
-8.59
-11.89
-14.76
-17.10
-18.98
-20.57
-22.06
-23.46
-24.63
-25.22
-24.74
-22.71
-18.84
-13.16
-6.13
1.46
8.64
14.46
18.24
19.74
19.21
17.34
15.06
13.25
12.47
12.79
13.83
14.95
15.56
15.30
14.22
12.62
10.87
9.19
7.62
6.01
4.25
2.37
0.54
-1.05
-2.32
-3.44
-4.68
-6.28
-8.24
-10.32
-12.09
-13.23
-13.58
-13.26
-12.48
-11.45
-10.22
-8.77
-6.95
-4.67
-1.88
1.42
5.17
9.20
13.25
17.02
20.16
22.40
23.66
23.97
23.48
22.31
20.50
18.05
14.99
11.49
8.01
5.18
3.61
3.66
5.22
7.70
10.18
11.78
12.02
10.95
9.09
7.20
5.90
5.45
5.60
5.73
5.04
2.94
-0.69
-5.40
-10.28
-14.29
-16.69
-17.32
-16.58
-15.17
-13.65
-12.20
-10.58
-8.37
-5.27
-1.40
2.80
6.70
9.76
11.68
12.40
11.95
10.41
7.88
4.54
0.75
-2.94
-5.88
-7.45
-7.21
-5.08
-1.30
3.46
8.29
12.26
14.64
15.16
14.10
12.15
10.10
8.52
7.47
6.59
5.26
2.89
-0.77
-5.63
-11.24
-16.96
-22.11
-26.07
-28.37
-28.82
-27.49
-24.67
-20.77
-16.16
-11.17
-6.08
-1.17
3.28
6.96
9.66
11.29
11.93
11.78
11.04
9.89
8.43
6.77
5.04
3.42
2.11
1.25
0.90
0.98
1.36
1.88
2.35
2.57
2.40
1.73
0.52
-1.23
-3.50
-6.26
-9.46
-13.01
-16.76
-20.46
-23.81
-26.57
-28.57
-29.84
-30.45
-30.57
-30.26
-29.49
-28.12
-25.93
-22.77
-18.56
-13.49
-7.93
-2.48
2.23
5.64
7.50
7.90
7.26
6.17
5.15
4.48
4.12
3.84
3.37
2.61
1.71
1.04
1.02
1.99
3.98
6.79
9.99
13.10
15.75
17.73
18.99
19.61
19.57
18.82
17.19
14.57
10.93
6.48
1.64
-3.04
-7.04
-9.94
-11.57
-11.99
-11.42
-10.16
-8.41
-6.23
-3.56
-0.35
3.35
7.23
10.81
13.53
15.02
15.24
14.49
13.35
12.32
11.73
11.52
11.44
11.19
10.63
9.90
9.37
9.51
10.66
12.83
15.69
18.64
20.99
22.20
22.05
20.59
18.07
14.73
10.69
6.00
0.73
-4.90
-10.56
-15.88
-20.63
-24.70
-28.04
-30.56
-32.09
-32.41
-31.36
-28.96
-25.33
-20.65
-15.02
-8.58
-1.56
5.55
12.06
17.24
20.68
22.36
22.72
22.36
21.81
21.27
20.60
19.53
17.86
15.68
13.32
11.29
9.93
9.33
9.20
9.07
8.46
7.04
4.79
1.90
-1.32
-4.54
-7.50
-10.01
-11.98
-13.45
-14.61
-15.73
-17.14
-19.05
-21.43
-23.96
-26.13
-27.46
-27.58
-26.44
-24.18
-21.03
-17.21
-12.78
-7.74
-2.11
3.88
9.71
14.61
17.76
18.61
17.10
13.79
9.68
5.84
2.96
1.25
0.39
-0.16
-0.85
-1.87
-3.16
-4.60
-6.11
-7.73
-9.45
-11.09
-12.29
-12.62
-11.86
-10.21
-8.26
-6.80
-6.45
-7.40
-9.43
-12.07
-14.89
-17.67
-20.41
-23.11
-25.57
-27.37
-27.94
-26.87
-24.05
-19.67
-14.15
-7.92
-1.32
5.35
11.77
17.55
22.23
25.38
26.81
26.59
25.13
23.05
20.98
19.41
18.59
18.48
18.87
19.56
20.38
21.25
22.09
22.73
22.92
22.38
21.02
19.02
16.72
14.55
12.67
10.93
8.90
6.11
2.29
-2.49
-7.79
-13.03
-17.67
-21.31
-23.71
-24.73
-24.22
-22.08
-18.35
-13.28
-7.37
-1.20
4.73
10.16
15.04
19.39
23.11
25.91
27.43
27.48
26.21
24.10
21.79
19.76
18.17
16.86
15.56
14.14
12.74
11.66
11.12
11.11
11.28
11.12
10.18
8.29
5.62
2.53
-0.65
-3.85
-7.26
-11.13
-15.53
-20.14
-24.37
-27.67
-29.86
-31.28
-32.52
-34.10
-36.04
-37.79
-38.52
-37.55
-34.68
-30.29
-25.05
-19.63
-14.48
-9.83
-5.81
-2.55
-0.17
1.32
2.09
2.47
2.74
3.00
3.09
2.71
1.62
-0.10
-2.09
-3.78
-4.65
-4.46
-3.34
-1.74
-0.22
0.70
0.76
-0.12
-1.82
-4.15
-6.93
-9.99
-13.11
-16.09
-18.66
-20.69
-22.25
-23.58
-25.00
-26.66
-28.44
-29.86
-30.25
-28.96
-25.58
-20.06
-12.73
-4.26
4.45
12.40
18.71
22.77
24.50
24.28
22.84
20.97
19.26
17.96
17.02
16.33
15.86
15.78
16.40
17.95
20.42
23.44
26.40
28.62
29.67
29.46
28.28
26.54
24.56
22.41
19.91
16.79
12.90
8.34
3.40
-1.49
-6.00
-9.86
-12.92
-15.08
-16.20
-16.12
-14.70
-11.91
-7.91
-2.98
2.49
8.18
13.79
19.10
23.77
27.31
29.22
29.14
27.11
23.58
19.31
15.09
11.46
8.67
6.81
5.92
6.11
7.46
9.82
12.70
15.31
16.79
16.47
14.16
10.15
5.10
-0.22
-5.26
-9.79
-13.97
-18.11
-22.43
-26.94
-31.37
-35.43
-38.99
-42.24
-45.49
-48.87
-52.16
-54.69
-55.62
-54.33
-50.64
-44.94
-38.05
-30.95
-24.58
-19.66
-16.57
-15.27
-15.33
-15.99
-16.36
-15.74
-13.86
-10.97
-7.67
-4.59
-2.07
-0.01
2.11
4.85
8.47
12.67
16.62
19.29
19.96
18.55
15.63
12.16
8.87
5.97
3.13
-0.26
-4.52
-9.39
-14.01
-17.24
-18.07
-15.99
-11.08
-3.83
5.03
14.76
24.76
34.61
44.07
53.05
61.65
69.98
78.10
85.85
92.79
98.33
101.81
102.77
100.93
96.31
89.10
79.63
68.33
55.75
42.59
29.55
17.28
6.13
-3.91
-13.24
-22.39
-31.80
-41.52
-51.21
-60.18
-67.63
-72.92
-75.78
-76.29
-74.80
-71.76
-67.51
-62.21
-55.83
-48.28
-39.67
-30.39
-21.13
-12.67
-5.59
-0.04
4.21
7.57
10.39
12.75
14.48
15.40
15.48
14.95
14.22
13.71
13.68
14.15
14.92
15.61
15.81
15.27
14.04
12.55
11.46
11.40
12.61
14.77
17.04
18.41
18.12
15.92
12.13
7.44
2.56
-2.00
-6.09
-9.83
-13.51
-17.31
-21.29
-25.32
-29.04
-32.05
-33.94
-34.41
-33.29
-30.56
-26.30
-20.76
-14.30
-7.44
-0.73
5.37
10.61
14.97
18.58
21.50
23.63
24.69
24.41
22.76
20.00
16.69
13.42
10.60
8.34
6.54
5.10
4.09
3.69
4.10
5.24
6.68
7.83
8.12
7.36
5.71
3.55
1.18
-1.38
-4.29
-7.73
-11.66
-15.80
-19.76
-23.27
-26.33
-29.07
-31.62
-33.87
-35.52
-36.11
-35.30
-32.90
-28.93
-23.57
-17.21
-10.41
-3.93
1.36
4.78
6.01
5.29
3.28
0.87
-1.17
-2.40
-2.75
-2.41
-1.67
-0.75
0.22
1.22
2.21
3.19
4.13
5.06
6.11
7.37
8.85
10.41
11.70
12.30
11.89
10.35
7.77
4.40
0.56
-3.44
-7.33
-10.88
-13.89
-16.19
-17.61
-17.99
-17.13
-14.87
-11.19
-6.33
-0.87
4.37
8.49
10.90
11.39
10.27
8.13
5.68
3.47
1.89
1.07
1.01
1.61
2.74
4.30
6.17
8.30
10.60
12.92
15.02
16.56
17.29
17.08
16.10
14.74
13.45
12.53
11.96
11.39
10.30
8.24
5.10
1.23
-2.68
-5.83
-7.59
-7.73
-6.43
-4.16
-1.40
1.51
4.47
7.50
10.61
13.73
16.61
18.93
20.37
20.68
19.71
17.49
14.25
10.49
6.89
4.12
2.61
2.38
2.99
3.75
4.09
3.77
2.97
2.15
1.67
1.54
1.32
0.26
-2.27
-6.51
-12.09
-18.17
-23.79
-28.26
-31.40
-33.56
-35.51
-38.02
-41.64
-46.42
-51.86
-56.94
-60.40
-61.07
-58.41
-52.69
-44.99
-36.80
-29.43
-23.54
-19.04
-15.44
-12.22
-9.28
-6.84
-5.18
-4.28
-3.71
-2.79
-0.91
2.24
6.66
12.18
18.60
25.76
33.36
40.94
47.78
53.14
56.39
57.29
55.96
52.80
48.28
42.84
36.75
30.23
23.43
16.43
9.21
1.63
-6.35
-14.62
-22.68
-29.71
-34.76
-37.03
-36.25
-32.73
-27.22
-20.64
-13.78
-7.12
-0.91
4.74
9.69
13.77
16.73
18.38
18.60
17.45
15.22
12.34
9.37
6.82
4.98
3.93
3.46
3.29
3.13
2.83
2.36
1.85
1.50
1.52
2.06
3.13
4.60
6.14
7.38
7.94
7.57
6.09
3.44
-0.40
-5.34
-11.12
-17.18
-22.75
-26.96
-29.16
-29.08
-27.00
-23.55
-19.47
-15.31
-11.20
-6.94
-2.18
3.27
9.20
15.04
20.05
23.60
25.51
26.02
25.64
24.87
23.99
22.99
21.71
20.05
18.11
16.22
14.80
14.22
14.59
15.72
17.16
18.30
18.63
17.80
15.76
12.78
9.37
6.10
3.40
1.34
-0.34
-2.20
-4.77
-8.31
-12.63
-17.12
-21.04
-23.77
-25.04
-24.94
-23.75
-21.75
-19.06
-15.74
-11.83
-7.48
-2.96
1.38
5.17
8.17
10.31
11.61
12.21
12.26
11.82
10.92
9.53
7.73
5.72
3.85
2.46
1.76
1.78
2.31
3.09
3.81
4.26
4.32
3.95
3.19
2.17
0.99
-0.36
-2.03
-4.26
-7.30
-11.13
-15.45
-19.77
-23.62
-26.76
-29.18
-30.99
-32.25
-32.87
-32.67
-31.47
-29.22
-25.94
-21.72
-16.68
-11.01
-5.12
0.39
4.83
7.62
8.59
8.05
6.72
5.42
4.73
4.83
5.46
6.19
6.65
6.78
6.78
6.92
7.33
7.86
8.20
8.05
7.34
6.33
5.39
4.79
4.55
4.41
3.99
2.99
1.28
-1.09
-3.96
-7.11
-10.30
-13.28
-15.75
-17.53
-18.48
-18.60
-17.89
-16.41
-14.15
-11.13
-7.42
-3.18
1.34
5.91
10.24
14.07
17.07
19.00
19.73
19.42
18.46
17.33
16.46
15.94
15.70
15.55
15.45
15.52
15.98
16.89
18.04
19.02
19.35
18.73
17.18
14.88
12.11
9.02
5.65
1.97
-1.89
-5.73
-9.23
-12.28
-14.97
-17.62
-20.52
-23.69
-26.80
-29.20
-30.25
-29.53
-27.07
-23.22
-18.44
-13.10
-7.35
-1.25
5.07
11.24
16.73
20.90
23.36
24.10
23.46
22.09
20.63
19.51
18.87
18.58
18.43
18.25
18.00
17.79
17.73
17.84
17.99
17.95
17.50
16.55
15.15
13.40
11.41
9.14
6.50
3.39
-0.17
-4.03
-7.99
-11.87
-15.61
-19.27
-22.86
-26.28
-29.30
-31.58
-32.91
-33.22
-32.59
-31.13
-28.89
-25.77
-21.65
-16.59
-10.96
-5.45
-0.87
2.13
3.37
3.14
2.08
0.85
-0.15
-0.90
-1.61
-2.49
-3.51
-4.39
-4.69
-4.15
-2.77
-0.91
1.00
2.58
3.73
4.57
5.27
5.86
6.12
5.67
4.12
1.29
-2.70
-7.47
-12.43
-17.00
-20.76
-23.51
-25.29
-26.19
-26.29
-25.55
-23.83
-21.00
-17.09
-12.27
-6.85
-1.15
4.52
9.97
14.93
19.07
21.97
23.32
23.07
21.55
19.37
17.22
15.59
14.68
14.36
14.36
14.41
14.35
14.12
13.68
12.94
11.82
10.31
8.53
6.72
5.11
3.82
2.72
1.48
-0.24
-2.70
-5.88
-9.56
-13.44
-17.21
-20.63
-23.48
-25.46
-26.21
-25.40
-22.88
-18.84
-13.79
-8.32
-3.02
1.79
6.07
9.89
13.29
16.23
18.51
19.91
20.27
19.57
18.05
16.12
14.26
12.85
12.11
12.03
12.50
13.41
14.70
16.31
18.06
19.62
20.58
20.67
19.86
18.41
16.75
15.19
13.86
12.63
11.22
9.32
6.67
3.05
-1.62
-7.16
-13.09
-18.68
-23.12
-25.86
-26.80
-26.28
-24.88
-23.14
-21.31
-19.29
-16.80
-13.60
-9.74
-5.56
-1.61
1.55
3.64
4.70
5.04
5.10
5.10
5.07
4.84
4.27
3.38
2.51
2.07
2.45
3.75
5.74
7.94
9.80
10.88
10.97
10.08
8.43
6.31
4.00
1.67
-0.63
-2.97
-5.41
-8.03
-10.85
-13.93
-17.33
-21.00
-24.77
-28.23
-30.80
-31.87
-30.97
-27.97
-23.10
-16.95
-10.26
-3.82
1.77
6.13
9.16
10.93
11.64
11.51
10.78
9.69
8.50
7.45
6.76
6.48
6.55
6.84
7.22
7.63
8.12
8.74
9.56
10.56
11.68
12.75
13.56
13.82
13.27
11.76
9.29
5.99
2.07
-2.36
-7.19
-12.27
-17.28
-21.70
-24.95
-26.59
-26.52
-24.95
-22.25
-18.82
-14.90
-10.57
-5.87
-0.94
3.96
8.49
12.34
15.27
17.25
18.34
18.70
18.49
17.80
16.70
15.27
13.70
12.34
11.65
12.01
13.57
16.05
18.81
21.05
22.07
21.56
19.63
16.71
13.32
9.90
6.62
3.50
0.34
-3.10
-7.00
-11.48
-16.47
-21.67
-26.58
-30.60
-33.17
-33.97
-32.98
-30.45
-26.74
-22.20
-17.05
-11.40
-5.32
1.05
7.44
13.47
18.64
22.51
24.82
25.57
25.04
23.66
21.88
20.03
18.26
16.67
15.44
14.81
15.01
16.08
17.73
19.33
20.15
19.63
17.62
14.40
10.50
6.48
2.75
-0.54
-3.38
-5.91
-8.32
-10.86
-13.81
-17.42
-21.79
-26.69
-31.56
-35.54
-37.79
-37.73
-35.23
-30.66
-24.73
-18.22
-11.77
-5.83
-0.61
3.72
7.09
9.38
10.64
10.99
10.65
9.85
8.76
7.43
5.83
3.99
2.00
0.13
-1.34
-2.20
-2.45
-2.30
-2.12
-2.28
-3.09
-4.69
-7.02
-9.87
-12.94
-15.92
-18.64
-21.09
-23.46
-26.05
-29.08
-32.64
-36.57
-40.56
-44.21
-47.15
-49.04
-49.66
-48.81
-46.40
-42.38
-36.78
-29.64
-21.01
-10.96
0.45
12.95
26.07
39.02
50.80
60.41
67.08
70.51
70.89
68.83
65.06
60.29
55.07
49.80
44.83
40.51
37.05
34.43
32.35
30.29
27.85
24.86
21.54
18.34
15.61
13.38
11.25
8.59
4.72
-0.65
-7.33
-14.64
-21.64
-27.43
-31.34
-33.13
-32.91
-31.03
-27.95
-24.10
-19.77
-15.16
-10.33
-5.35
-0.28
4.70
9.32
13.20
15.99
17.46
17.59
16.65
15.08
13.42
12.14
11.49
11.57
12.31
13.57
14.97
15.78
14.90
11.14
3.84
-6.58
-18.52
-29.61
-37.51
-40.78
-39.14
-33.37
-24.94
-15.56
-7.08
-1.20
0.91
-0.88
-5.42
-10.55
-14.01
-14.47
-12.10
-8.25
-4.50
-1.73
0.23
2.21
4.97
8.66
12.72
16.36
18.97
20.41
20.84
20.52
19.58
17.99
15.77
13.11
10.47
8.44
7.51
7.89
9.42
11.61
13.82
15.47
16.12
15.61
13.98
11.45
8.32
4.92
1.52
-1.78
-5.00
-8.27
-11.70
-15.28
-18.96
-22.62
-26.18
-29.57
-32.64
-35.08
-36.52
-36.67
-35.52
-33.38
-30.58
-27.31
-23.43
-18.62
-12.78
-6.41
-0.55
3.59
5.18
4.32
1.99
-0.44
-1.86
-1.88
-0.91
0.28
1.02
1.13
0.92
0.88
1.32
2.19
3.09
3.57
3.40
2.67
1.67
0.71
-0.12
-1.00
-2.18
-3.84
-5.93
-8.21
-10.43
-12.53
-14.64
-16.99
-19.64
-22.33
-24.54
-25.60
-24.98
-22.45
-18.12
-12.30
-5.42
2.07
9.67
16.87
23.08
27.78
30.55
31.26
30.13
27.71
24.70
21.72
19.17
17.13
15.52
14.24
13.36
13.06
13.44
14.39
15.47
16.11
15.79
14.42
12.26
9.83
7.64
5.90
4.54
3.16
1.31
-1.38
-5.02
-9.36
-13.90
-17.98
-21.06
-22.81
-23.30
-22.79
-21.66
-20.13
-18.28
-16.06
-13.35
-10.02
-5.98
-1.16
4.36
10.30
16.16
21.26
24.98
26.97
27.24
26.18
24.32
22.21
20.22
18.46
16.90
15.41
13.97
12.68
11.77
11.44
11.66
12.15
12.46
12.18
11.19
9.68
8.00
6.37
4.66
2.42
-0.92
-5.75
-12.01
-19.17
-26.31
-32.35
-36.35
-37.75
-36.51
-33.12
-28.41
-23.14
-17.74
-12.19
-6.18
0.51
7.69
14.69
20.53
24.44
26.14
25.94
24.55
22.73
20.96
19.27
17.38
14.93
11.70
7.81
3.64
-0.30
-3.69
-6.49
-8.97
-11.51
-14.42
-17.70
-21.22
-24.78
-28.25
-31.46
-34.09
-35.57
-35.24
-32.82
-28.75
-24.22
-20.81
-19.75
-21.35
-24.81
-28.59
-31.14
-31.45
-29.32
-25.19
-19.71
-13.47
-6.93
-0.56
5.02
9.10
11.10
10.86
8.82
6.00
3.65
2.83
3.90
6.38
9.08
10.72
10.56
8.87
6.91
6.43
8.84
14.49
22.60
31.54
39.50
45.19
47.97
47.85
45.11
40.13
33.33
25.26
16.57
7.90
-0.34
-8.04
-15.35
-22.35
-28.85
-34.26
-37.82
-38.91
-37.41
-33.91
-29.63
-26.06
-24.39
-24.98
-27.04
-28.83
-28.33
-24.19
-16.60
-7.65
-0.77
0.59
-5.27
-17.06
-30.34
-38.79
-36.18
-18.25
16.06
64.19
120.38
176.66
224.35
255.73
265.76
253.35
221.40
175.74
123.23
69.71
19.00
-26.98
-67.22
-100.52
-125.11
-139.32
-142.68
-137.06
-126.75
-117.22
-113.06
-115.91
-123.41
-130.32
-131.03
-122.50
-105.83
-85.60
-67.37
-54.85
-48.29
-45.02
-41.59
-35.99
-28.67
-21.91
-18.37
-19.55
-25.18
-33.46
-41.81
-47.72
-49.19
-45.09
-35.07
-19.58
0.22
22.60
45.59
67.42
86.62
102.37
114.27
122.15
125.92
125.70
121.97
115.74
108.28
100.66
93.31
85.88
77.59
67.93
57.20
46.48
37.21
30.51
26.75
25.51
25.86
26.67
26.79
25.15
21.04
14.37
5.91
-2.86
-10.28
-15.25
-17.64
-18.07
-17.64
-17.19
-17.10
-17.37
-17.88
-18.73
-20.34
-23.21
-27.71
-33.79
-40.86
-47.99
-54.12
-58.45
-60.62
-60.65
-58.75
-55.16
-50.03
-43.60
-36.39
-29.33
-23.61
-20.27
-19.74
-21.68
-24.98
-28.23
-30.17
-30.04
-27.67
-23.47
-18.22
-12.91
-8.51
-5.83
-5.28
-6.80
-9.76
-13.06
-15.40
-15.61
-13.05
-7.92
-1.25
5.42
10.57
13.39
13.92
13.01
11.81
11.19
11.45
12.35
13.50
14.74
16.31
18.66
22.07
26.31
30.54
33.66
34.72
33.32
29.78
24.95
19.84
15.32
11.86
9.56
8.30
7.82
7.90
8.33
8.90
9.45
9.83
9.95
9.73
9.12
8.07
6.64
4.94
3.13
1.33
-0.50
-2.56
-5.09
-8.24
-11.91
-15.70
-19.00
-21.14
-21.61
-20.21
-17.12
-12.80
-7.90
-3.03
1.29
4.74
7.18
8.62
9.12
8.75
7.60
5.75
3.27
0.21
-3.33
-7.11
-10.79
-13.92
-16.11
-17.15
-17.05
-16.01
-14.17
-11.56
-8.05
-3.53
1.89
7.81
13.50
18.22
21.34
22.61
22.17
20.51
18.21
15.78
13.53
11.54
9.85
8.62
8.18
8.90
10.97
14.13
17.61
20.29
21.16
19.68
16.10
11.31
6.56
2.89
0.75
-0.16
-0.82
-2.43
-6.08
-12.27
-20.75
-30.41
-39.43
-45.61
-46.92
-42.14
-31.48
-16.76
-1.03
12.38
20.98
24.04
22.80
19.80
17.76
18.40
21.88
26.87
31.35
33.62
32.96
29.80
25.27
20.56
16.32
12.60
9.10
5.63
2.42
0.09
-0.73
0.20
2.48
5.17
7.13
7.48
5.87
2.54
-1.88
-6.64
-11.17
-15.21
-18.76
-21.97
-24.97
-27.76
-30.29
-32.53
-34.59
-36.65
-38.93
-41.43
-43.89
-45.74
-46.23
-44.69
-40.71
-34.40
-26.40
-17.79
-9.83
-3.54
0.52
2.39
2.64
2.08
1.48
1.38
2.01
3.33
5.09
7.01
8.79
10.23
11.29
12.13
13.04
14.36
16.33
18.98
22.16
25.55
28.74
31.28
32.72
32.64
30.74
26.93
21.41
14.70
7.48
0.44
-5.87
-11.17
-15.38
-18.54
-20.72
-21.93
-22.18
-21.47
-19.82
-17.25
-13.86
-9.80
-5.31
-0.75
3.49
7.05
9.67
11.25
11.89
11.89
11.60
11.45
11.72
12.50
13.73
15.23
16.75
18.13
19.26
20.05
20.42
20.32
19.75
18.81
17.67
16.52
15.47
14.44
13.21
11.37
8.51
4.24
-1.58
-8.74
-16.61
-24.26
-30.75
-35.41
-38.00
-38.72
-37.96
-36.05
-33.15
-29.22
-24.27
-18.40
-11.98
-5.49
0.54
5.68
9.67
12.49
14.28
15.37
16.14
16.90
17.75
18.57
19.12
19.16
18.64
17.72
16.74
16.01
15.68
15.70
15.84
15.85
15.63
15.23
14.82
14.49
14.18
13.56
12.20
9.71
5.89
0.83
-5.18
-11.75
-18.43
-24.76
-30.18
-34.05
-35.76
-34.95
-31.71
-26.57
-20.36
-13.91
-7.86
-2.58
1.72
4.86
6.61
6.78
5.34
2.54
-1.13
-5.09
-8.83
-12.04
-14.50
-16.11
-16.71
-16.19
-14.53
-11.90
-8.72
-5.58
-3.09
-1.69
-1.45
-2.01
-2.79
-3.15
-2.79
-1.81
-0.68
0.03
-0.06
-0.98
-2.48
-4.32
-6.41
-8.90
-11.91
-15.32
-18.53
-20.64
-20.77
-18.51
-14.12
-8.53
-2.93
1.59
4.41
5.43
5.00
3.65
1.85
-0.08
-2.02
-3.89
-5.56
-6.78
-7.18
-6.36
-4.13
-0.56
3.92
8.66
13.00
16.45
18.75
19.79
19.64
18.35
16.22
13.80
12.03
12.00
14.51
19.59
26.18
32.14
34.85
32.02
22.34
5.94
-15.64
-39.80
-63.34
-83.13
-96.59
-102.23
-100.02
-91.73
-80.82
-71.74
-68.67
-73.96
-86.83
-103.00
-115.73
-117.91
-104.76
-75.90
-35.82
7.49
45.39
71.52
83.81
84.49
78.63
71.81
68.22
69.63
75.45
83.56
91.26
96.06
96.12
90.43
78.83
61.98
41.17
18.15
-5.05
-26.31
-43.54
-55.01
-59.72
-57.83
-50.75
-40.88
-30.94
-23.22
-18.95
-18.13
-19.91
-23.11
-26.65
-29.73
-31.70
-31.86
-29.56
-24.33
-16.24
-5.89
5.78
17.96
30.31
43.02
56.57
71.36
87.45
104.45
121.57
137.59
150.88
159.72
162.74
159.56
151.05
139.18
126.16
113.58
101.85
90.40
78.30
65.08
50.94
36.51
22.30
8.32
-5.83
-20.48
-35.43
-49.74
-62.13
-71.46
-77.24
-79.74
-79.87
-78.69
-77.07
-75.54
-74.31
-73.45
-73.04
-73.25
-74.17
-75.75
-77.63
-79.20
-79.73
-78.59
-75.41
-70.11
-62.93
-54.33
-44.98
-35.60
-26.92
-19.43
-13.32
-8.34
-4.02
0.22
4.76
9.67
14.77
19.67
23.93
27.13
28.89
29.02
27.50
24.64
21.00
17.23
13.98
11.68
10.57
10.75
12.21
14.83
18.33
22.20
25.80
28.58
30.20
30.68
30.25
29.21
27.73
25.85
23.58
21.03
18.41
16.05
14.21
12.92
11.97
10.92
9.32
6.79
3.27
-1.03
-5.63
-9.91
-13.23
-15.13
-15.37
-13.98
-11.28
-7.83
-4.41
-1.93
-1.27
-3.08
-7.58
-14.44
-22.73
-31.15
-38.31
-43.10
-45.02
-44.24
-41.57
-38.11
-34.86
-32.36
-30.52
-28.67
-26.04
-22.13
-17.20
-12.27
-8.81
-8.07
-10.48
-15.35
-21.03
-25.66
-28.08
-28.39
-28.11
-29.49
-34.61
-44.29
-57.74
-72.68
-86.18
-95.74
-100.19
-100.07
-97.62
-96.01
-98.39
-106.80
-121.08
-138.41
-153.59
-160.32
-153.52
-131.54
-97.60
-59.61
-28.33
-14.24
-24.24
-59.12
-112.92
-174.41
-230.29
-269.03
-283.86
-273.99
-243.71
-200.07
-150.13
-99.25
-50.59
-5.67
34.88
71.09
104.08
136.72
173.14
217.13
269.69
327.24
381.60
422.39
440.80
433.26
403.04
358.90
311.68
270.21
238.80
217.05
201.81
189.64
178.38
167.02
154.62
139.48
119.59
93.92
63.62
31.95
2.99
-20.42
-37.76
-50.31
-59.31
-64.35
-63.20
-53.44
-34.74
-10.06
15.12
35.33
47.53
52.24
52.72
52.89
55.38
60.62
67.20
73.04
76.55
77.28
75.81
72.97
68.77
61.88
49.61
28.78
-2.81
-45.42
-97.33
-155.92
-218.76
-284.05
-349.61
-411.61
-463.97
-499.49
-512.40
-500.79
-467.61
-419.47
-364.01
-307.38
-252.91
-201.46
-152.60
-105.65
-59.96
-14.50
32.64
84.41
143.78
212.05
287.09
362.54
428.77
475.76
496.67
490.39
461.81
419.55
372.31
325.80
281.66
238.57
194.50
148.31
100.26
51.53
3.53
-42.47
-85.32
-124.15
-158.38
-187.63
-211.19
-227.45
-233.93
-228.35
-210.17
-181.73
-147.98
-114.49
-84.92
-59.28
-34.56
-7.03
25.29
61.67
99.58
136.63
171.80
205.20
237.01
266.36
291.46
310.88
324.90
335.99
347.54
361.87
378.34
393.14
400.61
395.54
375.15
339.79
292.16
236.01
174.91
111.79
49.51
-8.51
-58.16
-95.60
-119.18
-130.86
-136.38
-143.19
-157.32
-180.44
-208.95
-235.61
-252.92
-256.62
-247.19
-229.18
-208.62
-190.33
-176.22
-165.49
-155.85
-145.34
-133.43
-121.08
-109.99
-101.46
-95.53
-90.84
-85.36
-77.45
-66.89
-55.33
-45.64
-40.75
-42.29
-49.93
-61.56
-74.29
-85.54
-93.78
-98.66
-100.63
-100.38
-98.44
-95.08
-90.37
-84.33
-77.08
-68.84
-60.01
-51.12
-42.79
-35.67
-30.29
-26.91
-25.47
-25.59
-26.77
-28.54
-30.57
-32.70
-34.81
-36.72
-38.03
-38.27
-36.98
-33.98
-29.46
-23.99
-18.35
-13.33
-9.58
-7.50
-7.26
-8.81
-11.82
-15.70
-19.53
-22.10
-22.13
-18.72
-11.79
-2.62
6.16
11.17
9.39
-0.54
-17.55
-38.27
-58.07
-72.72
-79.75
-78.95
-72.00
-61.37
-49.30
-37.18
-25.66
-15.04
-5.63
2.02
7.35
10.09
10.48
9.27
7.54
6.33
6.34
7.84
10.68
14.52
19.13
24.52
30.97
38.72
47.71
57.36
66.64
74.31
79.44
81.70
81.40
79.31
76.26
72.85
69.36
65.86
62.43
59.23
56.47
54.26
52.49
50.87
49.03
46.68
43.71
40.19
36.28
32.15
27.98
23.95
20.14
16.55
13.00
9.17
4.74
-0.50
-6.49
-12.90
-19.16
-24.63
-28.66
-30.83
-30.93
-29.10
-25.84
-21.86
-17.91
-14.52
-11.87
-9.79
-7.96
-6.17
-4.50
-3.38
-3.39
-4.98
-8.29
-13.02
-18.53
-23.96
-28.38
-30.79
-30.26
-25.93
-17.29
-4.41
11.89
30.02
47.95
63.68
75.62
82.91
85.41
83.61
78.39
70.90
62.34
53.79
45.99
39.19
33.14
27.31
21.23
14.73
8.14
2.06
-2.84
-6.11
-7.61
-7.49
-6.05
-3.69
-0.88
1.92
4.15
5.42
5.52
4.63
3.16
1.64
0.46
-0.25
-0.60
-0.78
-0.86
-0.73
-0.16
1.08
3.00
5.40
7.90
10.11
11.69
12.49
12.48
11.77
10.54
9.09
7.79
7.00
6.86
7.27
7.83
7.99
7.33
5.68
3.12
-0.08
-3.69
-7.60
-11.78
-16.16
-20.57
-24.70
-28.22
-30.82
-32.26
-32.34
-30.87
-27.79
-23.32
-18.03
-12.84
-8.73
-6.50
-6.53
-8.68
-12.52
-17.45
-22.93
-28.53
-33.88
-38.58
-42.22
-44.35
-44.70
-43.26
-40.30
-36.39
-32.22
-28.38
-25.21
-22.71
-20.65
-18.66
-16.48
-14.12
-11.84
-9.99
-8.79
-8.17
-7.74
-6.96
-5.38
-2.88
0.36
4.00
7.78
11.65
15.77
20.28
25.11
29.88
33.98
36.75
37.70
36.63
33.62
29.04
23.45
17.51
11.88
7.07
3.27
0.37
-1.95
-4.07
-6.19
-8.23
-9.92
-10.91
-11.01
-10.29
-9.01
-7.54
-6.16
-5.04
-4.15
-3.44
-2.90
-2.64
-2.90
-3.97
-6.02
-9.06
-12.80
-16.74
-20.23
-22.65
-23.53
-22.67
-20.15
-16.31
-11.60
-6.51
-1.43
3.30
7.48
10.95
13.56
15.20
15.76
15.25
13.78
11.60
9.04
6.43
4.04
2.01
0.43
-0.61
-0.96
-0.46
0.95
3.13
5.62
7.75
8.91
8.72
7.27
5.03
2.67
0.86
0.04
0.32
1.51
3.15
4.64
5.40
5.03
3.51
1.25
-0.98
-2.24
-1.67
1.17
6.31
13.25
21.18
29.08
35.91
40.73
42.84
41.97
38.28
32.38
25.20
17.76
10.96
5.37
1.13
-1.98
-4.42
-6.66
-9.00
-11.42
-13.70
-15.51
-16.58
-16.82
-16.31
-15.31
-14.16
-13.24
-12.95
-13.54
-15.03
-17.09
-19.18
-20.72
-21.34
-21.12
-20.55
-20.31
-20.90
-22.35
-24.22
-25.80
-26.41
-25.75
-23.95
-21.34
-18.24
-14.81
-11.08
-7.14
-3.33
-0.27
1.40
1.36
-0.20
-2.61
-5.11
-7.30
-9.33
-11.78
-15.11
-19.30
-23.71
-27.34
-29.38
-29.62
-28.41
-26.48
-24.46
-22.62
-20.78
-18.66
-16.03
-12.95
-9.69
-6.63
-4.13
-2.49
-1.84
-2.18
-3.38
-5.13
-7.01
-8.55
-9.25
-8.63
-6.35
-2.19
3.73
10.93
18.58
25.67
31.24
34.70
35.93
35.23
33.09
29.98
26.18
21.80
16.84
11.43
5.81
0.40
-4.38
-8.17
-10.76
-12.07
-12.11
-11.04
-9.12
-6.84
-4.81
-3.72
-4.00
-5.78
-8.68
-12.03
-15.06
-17.21
-18.35
-18.79
-19.24
-20.46
-23.08
-27.30
-32.78
-38.70
-43.89
-47.16
-47.55
-44.59
-38.44
-29.83
-19.85
-9.72
-0.47
7.20
13.02
17.01
19.40
20.43
20.25
19.02
16.95
14.38
11.73
9.40
7.64
6.50
5.92
5.82
6.32
7.61
9.90
13.17
17.08
21.06
24.47
26.88
28.15
28.46
28.12
27.43
26.45
25.07
22.96
19.77
15.29
9.56
2.99
-3.69
-9.59
-13.87
-15.92
-15.53
-12.83
-8.22
-2.29
4.31
10.86
16.67
21.13
23.87
24.75
23.92
21.68
18.38
14.46
10.32
6.32
2.75
-0.23
-2.65
-4.54
-5.90
-6.53
-6.07
-4.21
-0.92
3.42
8.04
12.07
14.87
16.29
16.62
16.39
16.03
15.70
15.14
13.83
11.19
6.78
0.48
-7.50
-16.58
-25.91
-34.53
-41.49
-46.07
-47.91
-47.01
-43.74
-38.69
-32.57
-26.07
-19.82
-14.26
-9.71
-6.34
-4.24
-3.51
-4.19
-6.22
-9.24
-12.54
-15.16
-16.19
-15.17
-12.32
-8.52
-4.87
-2.12
-0.15
2.12
6.42
14.39
26.88
43.55
62.99
83.23
102.29
118.42
130.25
136.78
137.63
133.39
125.92
118.12
113.08
112.84
117.50
124.99
131.96
135.03
131.88
121.65
104.59
81.23
51.79
16.19
-25.41
-71.80
-120.30
-167.02
-207.84
-239.39
-259.81
-268.87
-267.63
-257.94
-242.06
-222.41
-201.33
-180.73
-161.58
-143.63
-125.60
-105.72
-82.64
-56.17
-27.53
0.88
26.23
46.00
58.75
64.35
64.04
59.90
54.20
48.63
43.79
39.17
33.54
25.75
15.46
3.63
-7.63
-15.68
-18.12
-13.64
-2.40
14.10
33.54
53.48
71.93
87.53
99.41
107.10
110.38
109.30
104.26
95.97
85.44
73.75
61.94
50.81
40.89
32.38
25.27
19.47
14.89
11.61
9.72
9.27
10.19
12.22
14.92
17.76
20.12
21.35
20.84
17.98
12.35
3.72
-7.87
-22.15
-38.65
-56.64
-75.08
-92.50
-107.11
-117.01
-120.63
-117.28
-107.38
-92.45
-74.74
-56.60
-39.94
-25.96
-15.13
-7.44
-2.64
-0.38
-0.20
-1.46
-3.34
-4.97
-5.61
-4.89
-2.89
-0.10
2.82
5.37
7.45
9.41
11.89
15.48
20.37
26.18
32.11
37.29
41.10
43.41
44.46
44.56
43.84
42.11
38.96
34.11
27.56
19.73
11.41
3.51
-3.14
-7.89
-10.35
-10.37
-8.05
-3.72
2.13
8.90
16.01
22.97
29.44
35.23
40.18
44.19
47.10
48.80
49.27
48.58
46.86
44.22
40.63
35.96
30.10
23.15
15.55
8.09
1.67
-2.98
-5.53
-6.20
-5.58
-4.50
-3.70
-3.72
-4.82
-7.07
-10.32
-14.31
-18.72
-23.20
-27.41
-31.15
-34.31
-36.92
-39.11
-41.10
-43.02
-44.82
-46.09
-46.13
-44.15
-39.63
-32.65
-23.96
-14.79
-6.45
0.02
4.15
5.99
6.01
5.02
4.10
4.39
6.75
11.32
17.24
22.89
26.41
26.49
22.88
16.39
8.41
0.38
-6.67
-12.15
-15.82
-17.60
-17.66
-16.43
-14.65
-13.16
-12.55
-12.88
-13.70
-14.34
-14.26
-13.34
-12.00
-10.96
-10.91
-12.25
-14.83
-17.97
-20.66
-21.89
-20.95
-17.70
-12.61
-6.59
-0.72
3.96
6.80
7.78
7.74
8.12
10.43
15.50
22.89
30.86
37.13
39.83
38.39
33.70
27.47
21.35
16.21
12.07
8.56
5.49
3.09
1.79
1.75
2.54
3.22
2.85
0.90
-2.50
-6.63
-10.54
-13.50
-15.25
-16.09
-16.77
-18.13
-20.77
-24.71
-29.28
-33.33
-35.53
-34.90
-31.08
-24.42
-15.80
-6.29
3.10
11.64
18.80
24.24
27.72
29.18
28.75
26.72
23.56
19.81
16.00
12.53
9.64
7.26
5.03
2.48
-0.75
-4.66
-8.79
-12.27
-14.27
-14.24
-12.31
-9.15
-5.77
-3.08
-1.72
-1.92
-3.69
-7.10
-12.25
-19.25
-28.08
-38.39
-49.62
-61.26
-73.08
-84.98
-96.46
-106.22
-112.35
-113.18
-108.25
-98.77
-87.22
-76.25
-67.39
-60.53
-54.22
-46.94
-38.08
-28.27
-18.60
-9.63
-0.60
10.32
25.19
45.38
71.01
101.01
133.67
166.81
198.09
225.24
246.08
258.98
263.34
260.05
251.39
240.38
229.67
220.59
212.85
204.76
194.13
179.24
159.50
135.51
108.62
80.27
51.42
22.45
-6.66
-35.86
-64.60
-91.59
-114.93
-132.64
-143.14
-145.84
-141.42
-131.87
-119.93
-108.10
-97.81
-88.81
-79.33
-66.92
-49.52
-26.38
1.44
31.18
58.97
80.62
92.65
93.22
82.87
64.66
43.51
24.79
12.66
8.90
12.66
21.27
31.53
40.75
47.18
49.83
48.32
42.78
34.00
23.55
13.44
5.43
0.27
-2.42
-3.72
-4.52
-4.88
-4.12
-1.31
4.06
11.85
21.53
32.65
45.05
58.66
72.86
86.17
96.51
101.97
101.76
96.43
87.59
76.90
65.01
51.17
33.44
9.72
-21.09
-58.00
-97.55
-134.62
-163.79
-180.74
-183.39
-172.11
-149.45
-119.59
-87.57
-58.64
-37.33
-26.49
-26.44
-34.78
-47.09
-58.50
-65.51
-67.16
-65.03
-62.23
-61.72
-65.16
-72.25
-81.14
-89.15
-93.74
-93.25
-87.46
-77.64
-66.21
-55.94
-48.98
-45.80
-44.66
-41.96
-33.48
-16.18
10.22
42.58
74.89
100.12
112.53
109.61
93.00
67.87
41.21
19.52
6.75
3.38
6.81
12.87
17.61
18.62
15.31
8.37
-1.00
-11.73
-22.79
-33.02
-40.88
-44.85
-44.31
-40.05
-34.41
-30.59
-31.38
-38.01
-49.85
-64.81
-80.16
-93.65
-103.89
-110.22
-112.21
-109.38
-101.22
-87.76
-70.09
-50.64
-32.93
-20.60
-16.35
-21.42
-35.41
-56.52
-82.15
-109.38
-135.12
-156.44
-171.08
-177.93
-177.35
-171.08
-161.86
-152.65
-145.97
-143.31
-144.99
-149.73
-154.97
-157.33
-153.38
-140.57
-118.38
-88.34
-53.53
-17.46
17.53
51.36
86.40
126.41
174.19
229.12
285.90
335.12
365.84
369.28
341.99
286.91
213.02
133.14
61.18
9.54
-13.23
-4.22
32.89
88.23
147.86
197.43
225.83
227.84
204.59
161.86
107.55
49.45
-6.08
-54.51
-92.84
-119.52
-134.56
-139.45
-137.00
-130.59
-123.09
-116.19
-110.20
-104.31
-97.20
-87.45
-73.68
-54.61
-29.41
1.72
36.66
71.16
99.45
115.82
116.50
101.05
72.68
37.41
2.44
-25.64
-42.29
-45.77
-37.31
-20.48
-0.23
18.40
31.66
38.00
38.19
34.87
31.27
29.93
31.79
36.11
41.00
44.47
45.14
42.40
35.88
24.97
8.68
-13.72
-41.72
-72.98
-103.50
-128.72
-144.99
-150.67
-146.44
-134.83
-119.42
-104.11
-92.61
-87.99
-92.20
-105.41
-125.76
-149.63
-172.55
-190.35
-199.97
-199.69
-188.99
-168.18
-138.38
-101.37
-59.41
-14.71
31.03
76.67
121.09
162.45
197.91
224.33
239.54
243.54
238.55
227.98
214.79
200.56
185.69
170.77
157.84
150.49
152.43
165.39
187.41
212.78
233.69
242.79
235.53
211.33
173.53
127.94
81.08
38.44
3.51
-22.66
-41.20
-54.73
-66.66
-80.78
-100.91
-130.33
-170.69
-220.55
-274.42
-323.26
-356.74
-366.48
-348.89
-306.26
-245.60
-176.34
-107.54
-46.11
3.69
40.15
63.75
76.70
82.19
83.48
82.91
81.68
80.03
77.54
73.23
64.92
49.21
22.48
-16.93
-66.54
-118.71
-162.19
-186.04
-183.40
-153.89
-103.22
-40.89
22.60
77.68
117.22
136.95
135.92
117.06
86.82
53.80
26.20
9.11
2.75
3.63
6.39
5.97
-0.71
-14.24
-33.45
-56.55
-82.08
-109.68
-138.68
-167.81
-195.34
-219.03
-236.18
-243.88
-239.78
-222.82
-194.52
-157.41
-114.57
-69.31
-24.69
17.11
54.64
86.71
116.02
139.14
151.22
150.81
141.22
127.58
114.05
102.47
92.49
83.16
72.88
61.88
51.91
45.52
43.93
47.09
53.76
62.01
70.59
78.08
84.39
90.31
96.85
104.91
115.91
132.26
152.32
175.98
201.44
225.51
244.07
253.41
251.60
239.32
219.22
194.25
167.13
138.96
110.60
83.65
60.74
44.57
36.53
35.76
39.27
43.87
47.22
49.07
50.82
54.02
58.59
61.99
59.79
47.39
22.37
-14.61
-59.86
-107.95
-153.25
-191.38
-219.70
-237.19
-243.91
-240.42
-227.75
-207.39
-181.34
-151.97
-121.79
-93.25
-68.47
-48.95
-35.31
-27.34
-24.13
-24.70
-28.51
-35.77
-47.19
-63.26
-83.63
-106.73
-130.19
-151.52
-168.79
-180.93
-187.70
-189.31
-185.97
-177.82
-164.69
-146.17
-121.74
-90.88
-53.24
-8.90
41.21
95.00
148.99
198.71
239.58
268.07
282.82
285.09
278.10
265.50
250.06
232.81
213.38
191.35
167.17
142.46
119.31
99.15
82.18
67.68
55.03
44.62
38.00
37.11
42.93
54.31
67.76
78.68
83.04
78.89
67.05
50.45
32.46
15.42
0.05
-14.03
-27.09
-38.38
-46.05
-48.10
-43.66
-33.69
-20.66
-7.54
3.27
10.33
12.72
9.23
-1.76
-21.73
-50.82
-86.82
-125.27
-160.74
-188.54
-206.09
-213.15
-211.03
-201.54
-186.03
-165.46
-141.03
-114.66
-88.87
-66.18
-48.23
-35.19
-26.00
-19.03
-12.89
-6.92
-1.04
4.59
9.99
15.48
21.38
27.63
33.50
37.75
39.03
36.57
30.51
21.89
12.28
3.29
-3.80
-8.16
-9.45
-7.68
-3.29
2.94
9.99
16.75
22.30
25.99
27.52
26.80
23.92
19.17
13.19
6.99
1.85
-1.03
-0.92
2.16
7.41
13.40
18.71
22.25
23.62
23.11
21.41
19.05
16.18
12.56
7.94
2.43
-3.35
-8.60
-12.77
-16.01
-19.08
-22.93
-28.02
-34.01
-39.84
-44.29
-46.45
-46.10
-43.60
-39.52
-34.33
-28.29
-21.59
-14.55
-7.76
-2.00
2.05
3.87
3.49
1.47
-1.38
-4.10
-6.01
-6.87
-6.94
-6.78
-6.99
-7.81
-9.07
-10.26
-10.88
-10.71
-10.06
-9.62
-10.18
-12.28
-16.04
-21.16
-27.11
-33.37
-39.61
-45.74
-51.87
-58.09
-64.40
-70.54
-76.02
-80.22
-82.64
-83.03
-81.56
-78.63
-74.78
-70.36
-65.50
-59.96
-53.06
-43.78
-30.71
-12.12
13.60
47.20
87.68
131.91
175.11
212.33
240.23
258.10
267.59
271.09
269.86
263.05
248.08
222.00
183.11
131.73
70.55
4.52
-59.64
-113.92
-150.09
-161.49
-144.90
-102.01
-39.41
32.79
103.31
162.22
202.99
223.30
224.75
211.75
189.94
164.66
139.90
117.90
99.24
83.20
68.02
51.09
29.56
1.57
-32.52
-69.20
-102.35
-125.14
-132.57
-123.77
-102.59
-76.25
-52.80
-38.30
-34.84
-40.30
-49.66
-57.31
-59.10
-53.55
-41.66
-26.00
-9.79
3.65
11.00
9.29
-2.96
-24.36
-50.16
-73.41
-87.62
-89.71
-81.27
-67.68
-55.22
-47.95
-46.28
-47.70
-48.82
-47.53
-43.81
-38.94
-34.31
-30.42
-26.94
-23.43
-20.07
-17.81
-17.95
-21.57
-28.68
-37.99
-47.05
-52.91
-53.25
-47.37
-36.46
-23.40
-11.62
-3.85
-1.22
-3.07
-7.43
-12.08
-15.38
-16.79
-16.83
-16.47
-16.48
-17.14
-18.07
-18.47
-17.67
-15.46
-12.25
-8.92
-6.44
-5.35
-5.70
-7.07
-8.90
-10.80
-12.81
-15.17
-18.09
-21.43
-24.67
-27.09
-28.09
-27.37
-25.04
-21.44
-16.94
-11.91
-6.72
-1.77
2.44
5.57
7.49
8.42
8.85
9.33
10.21
11.50
12.93
14.11
14.74
14.77
14.31
13.57
12.85
12.31
12.10
12.28
12.81
13.47
13.88
13.58
12.11
9.25
5.09
0.05
-5.15
-9.69
-12.85
-14.22
-13.87
-12.37
-10.67
-9.85
-10.76
-13.68
-18.19
-23.26
-27.42
-29.35
-28.16
-23.77
-16.83
-8.43
0.30
8.65
16.53
24.48
33.37
44.14
57.34
72.97
90.05
106.79
120.61
128.69
128.77
119.81
102.22
77.82
49.37
19.96
-7.63
-31.29
-49.81
-62.87
-70.88
-74.63
-74.98
-72.58
-67.91
-61.43
-53.83
-46.02
-38.81
-32.63
-27.24
-21.94
-16.04
-9.35
-2.31
4.22
9.40
12.90
14.86
15.92
16.87
18.36
20.85
24.51
29.30
34.93
40.96
46.80
51.91
55.85
58.37
59.31
58.53
55.86
51.07
44.09
35.12
24.81
14.11
4.10
-4.26
-10.32
-13.83
-14.91
-13.98
-11.70
-8.78
-5.80
-3.15
-1.00
0.62
1.63
1.84
1.10
-0.64
-3.08
-5.71
-8.02
-9.79
-11.19
-12.64
-14.55
-17.03
-19.82
-22.49
-24.66
-26.29
-27.64
-29.17
-31.30
-34.11
-37.36
-40.58
-43.20
-44.77
-45.01
-43.75
-40.81
-36.05
-29.46
-21.36
-12.52
-4.04
2.97
7.76
10.19
10.68
9.92
8.61
7.24
6.00
4.85
3.58
1.87
-0.70
-4.41
-9.13
-14.15
-18.40
-20.89
-21.33
-20.46
-19.75
-20.79
-24.51
-30.72
-38.25
-45.60
-51.57
-55.68
-58.07
-59.02
-58.52
-56.04
-50.76
-42.05
-29.91
-15.14
0.75
15.91
28.67
37.81
42.84
44.11
42.86
41.01
40.76
43.80
50.56
59.97
69.68
76.94
79.56
76.76
69.12
58.09
45.18
31.48
17.62
3.88
-9.68
-23.19
-37.03
-51.67
-67.30
-83.40
-98.59
-110.87
-118.26
-119.30
-113.43
-100.90
-82.45
-58.99
-31.55
-1.45
29.53
59.10
84.85
104.79
117.68
123.40
122.84
117.54
109.21
99.40
89.33
79.92
71.85
65.66
61.69
59.94
59.93
60.62
60.61
58.42
52.86
43.38
30.07
13.58
-5.21
-25.46
-46.34
-66.90
-85.90
-101.72
-112.63
-117.38
-115.65
-108.23
-96.86
-83.64
-70.45
-58.47
-48.11
-39.20
-31.37
-24.23
-17.48
-10.92
-4.40
2.13
8.58
14.72
20.21
24.72
27.94
29.71
29.94
28.59
25.61
20.95
14.54
6.44
-3.11
-13.51
-23.79
-32.69
-38.89
-41.38
-39.82
-34.63
-26.76
-17.39
-7.45
2.58
12.54
22.36
31.73
40.00
46.51
50.88
53.37
54.85
56.46
59.08
63.01
68.03
73.53
78.87
83.59
87.21
89.10
88.35
84.10
75.97
64.41
50.69
36.30
22.32
9.06
-3.74
-16.35
-28.69
-40.08
-49.66
-56.97
-62.17
-65.93
-68.90
-71.16
-72.15
-70.97
-67.01
-60.31
-51.63
-42.08
-32.68
-24.16
-16.81
-10.62
-5.56
-1.54
1.52
3.77
5.54
7.35
9.78
13.17
17.36
21.56
24.70
25.81
24.63
21.95
19.19
17.89
18.96
22.26
26.75
31.09
34.19
35.64
35.64
34.65
33.08
31.07
28.53
25.38
21.55
17.05
11.97
6.31
0.06
-6.86
-14.36
-22.18
-29.74
-36.24
-40.90
-43.10
-42.65
-39.71
-34.71
-27.99
-19.67
-9.51
2.88
17.69
34.57
52.36
69.18
82.76
91.15
93.18
88.87
79.35
66.43
51.94
37.29
23.19
9.78
-2.96
-14.95
-25.83
-35.16
-42.68
-48.51
-53.12
-57.07
-60.63
-63.63
-65.52
-65.66
-63.66
-59.59
-53.83
-47.00
-39.61
-32.12
-24.94
-18.45
-12.95
-8.55
-5.04
-1.89
1.50
5.68
10.86
16.94
23.55
30.21
36.38
41.48
44.97
46.31
45.22
41.68
36.14
29.44
22.65
16.77
12.44
9.78
8.46
7.89
7.58
7.29
7.12
7.29
7.91
8.86
9.77
10.27
10.16
9.50
8.60
7.83
7.45
7.46
7.66
7.69
7.20
5.83
3.30
-0.59
-5.85
-12.19
-18.99
-25.35
-30.30
-33.00
-32.99
-30.28
-25.27
-18.64
-11.12
-3.37
4.02
10.52
15.65
18.95
20.09
19.02
16.00
11.70
6.94
2.47
-1.24
-4.20
-6.68
-8.97
-11.12
-12.85
-13.65
-13.08
-11.00
-7.77
-4.11
-0.83
1.47
2.59
2.74
2.38
1.95
1.73
1.70
1.60
1.05
-0.32
-2.75
-6.31
-10.87
-16.12
-21.61
-26.73
-30.86
-33.39
-33.86
-32.16
-28.49
-23.34
-17.32
-10.95
-4.61
1.42
6.82
11.11
13.69
14.07
12.06
8.05
2.86
-2.52
-7.24
-10.88
-13.42
-15.14
-16.27
-16.87
-16.78
-15.80
-13.90
-11.41
-8.95
-7.26
-6.91
-8.05
-10.39
-13.27
-15.99
-18.08
-19.51
-20.68
-22.21
-24.69
-28.48
-33.56
-39.55
-45.79
-51.43
-55.65
-57.80
-57.57
-55.13
-51.10
-46.46
-42.17
-38.84
-36.57
-35.07
-33.97
-33.15
-32.95
-33.89
-36.15
-38.92
-40.27
-37.58
-28.62
-12.94
7.63
29.16
46.78
55.82
52.91
36.66
7.98
-29.58
-69.61
-103.48
-122.41
-120.35
-97.19
-59.87
-20.87
5.85
9.34
-15.41
-66.95
-138.85
-221.80
-305.34
-379.07
-433.70
-462.88
-464.88
-443.25
-405.47
-360.47
-315.47
-274.06
-236.22
-199.65
-161.88
-121.55
-78.71
-34.16
11.12
56.19
100.20
142.63
184.10
225.69
268.70
313.88
360.76
407.17
449.46
483.24
504.52
511.99
505.94
487.78
459.73
424.84
386.57
348.05
311.44
277.75
249.50
227.58
210.72
196.33
182.36
168.40
155.36
144.70
137.53
138.05
147.80
164.27
182.29
197.41
207.94
214.44
218.30
220.57
226.78
239.58
257.17
274.62
287.31
293.19
292.65
287.63
247.85
163.20
47.93
-68.32
-162.46
-228.39
-271.59
-300.63
-321.70
-337.05
-340.57
-327.57
-297.97
-258.56
-218.20
-184.58
-162.51
-153.89
-158.04
-168.58
-180.01
-191.72
-201.23
-205.05
-200.03
-185.80
-166.04
-146.89
-130.77
-116.84
-101.47
-80.01
-50.27
-14.01
23.12
53.52
71.37
76.86
74.77
71.21
70.63
73.63
76.77
77.03
72.56
63.54
52.63
42.89
36.16
32.69
31.33
30.81
30.85
32.00
35.22
41.29
50.06
60.36
70.48
78.61
83.57
85.29
84.43
81.97
78.64
74.50
69.02
61.69
52.54
42.35
32.43
23.59
15.32
5.59
-8.84
-31.71
-66.18
-113.96
-174.25
-242.81
-311.70
-370.26
-407.77
-417.09
-397.73
-356.71
-306.36
-259.86
-226.54
-209.02
-203.38
-201.86
-196.42
-181.64
-155.79
-120.49
-79.41
-37.14
1.86
34.09
57.76
72.97
81.59
86.43
90.14
94.35
99.15
103.18
104.20
100.00
89.10
71.32
48.02
21.85
-3.85
-25.89
-42.16
-52.16
-56.94
-58.44
-58.44
-57.79
-56.04
-52.06
-44.83
-34.28
-21.50
-8.09
4.78
17.16
30.37
46.08
65.03
86.03
106.08
121.31
128.60
126.85
117.28
102.74
86.43
70.79
57.14
45.87
36.99
30.45
26.02
23.07
20.60
17.33
12.20
4.89
-3.94
-12.77
-19.87
-24.14
-25.48
-24.68
-23.26
-22.87
-24.65
-28.86
-34.73
-40.87
-45.89
-48.96
-49.67
-48.37
-46.12
-44.13
-43.17
-43.09
-43.11
-42.33
-40.33
-36.85
-32.32
-27.80
-24.42
-22.53
-21.46
-20.15
-17.77
-14.06
-8.17
0.89
14.14
32.10
54.67
81.24
110.68
142.44
171.59
194.67
210.98
221.59
224.97
215.86
189.03
143.78
85.86
25.51
-26.40
-64.02
-87.88
-103.11
-116.17
-129.54
-142.43
-153.05
-160.68
-166.11
-172.83
-184.90
-204.63
-230.39
-256.18
-273.86
-276.34
-260.55
-223.20
-168.37
-104.00
-37.64
26.76
89.66
153.66
220.76
290.56
360.47
426.04
481.81
523.75
549.82
559.54
552.80
530.05
493.67
448.66
401.21
354.44
309.94
268.51
230.62
195.86
163.18
131.69
100.83
69.27
30.13
-22.47
-89.14
-164.21
-239.48
-308.08
-366.30
-413.97
-454.03
-496.99
-551.54
-619.65
-696.46
-774.88
-848.89
-913.34
-962.88
-952.75
-859.13
-696.82
-511.90
-348.50
-227.63
-149.21
-102.30
-74.16
-55.43
-46.90
-52.07
-69.88
-93.04
-112.71
-122.83
-121.06
-107.44
-86.77
-67.25
-54.74
-49.40
-46.23
-39.22
-24.83
-2.55
26.05
58.42
89.83
116.63
138.24
156.94
175.44
195.00
215.33
235.33
253.84
270.22
284.54
298.07
312.71
329.57
347.71
363.92
373.73
372.89
361.28
340.21
311.74
278.56
244.19
212.45
186.33
167.36
155.47
154.78
166.01
185.09
205.43
222.34
234.97
245.23
256.02
269.98
297.01
341.35
398.47
458.01
510.49
550.61
576.46
588.38
588.40
590.91
605.51
631.71
661.13
685.09
698.80
700.77
691.86
605.76
423.29
180.00
-61.33
-258.27
-401.44
-499.34
-564.29
-606.25
-632.15
-635.86
-615.42
-577.71
-535.12
-497.64
-469.30
-450.51
-439.98
-435.81
-427.20
-407.30
-376.97
-342.67
-312.14
-287.45
-268.68
-254.87
-244.48
-230.36
-208.05
-178.29
-145.73
-114.97
-88.19
-66.09
-48.29
-34.03
-19.90
-3.92
13.36
29.81
43.77
55.27
65.13
74.49
84.10
94.14
103.42
109.33
108.93
100.55
84.74
63.80
40.94
19.11
0.11
-15.57
-28.47
-39.50
-49.22
-57.53
-63.81
-67.19
-66.86
-62.50
-54.45
-43.95
-32.88
-23.31
-16.76
-13.84
-14.23
-17.15
-21.91
-28.22
-36.01
-44.86
-53.62
-60.52
-63.99
-63.58
-60.43
-56.95
-55.75
-58.58
-65.70
-76.02
-87.93
-99.96
-111.44
-122.55
-134.11
-147.21
-162.71
-180.88
-200.89
-220.42
-235.59
-241.51
-233.23
-207.20
-162.57
-102.06
-32.05
38.79
101.59
150.12
182.71
202.14
213.64
222.22
230.72
239.43
247.26
253.41
258.52
264.27
272.29
282.65
294.12
305.18
315.03
323.76
331.74
338.85
344.09
345.81
341.33
329.08
309.61
285.20
258.33
230.32
201.07
169.48
133.94
90.45
35.83
-30.10
-103.82
-179.28
-249.51
-307.71
-348.20
-367.65
-370.36
-363.90
-355.37
-348.84
-345.60
-345.34
-346.88
-348.87
-350.86
-359.41
-381.98
-421.70
-475.00
-534.05
-590.73
-639.24
-677.18
-671.51
-604.35
-483.47
-339.84
-205.81
-98.12
-18.08
40.02
82.36
110.12
121.55
112.89
83.65
38.69
-13.88
-65.74
-109.68
-140.32
-150.51
-141.55
-119.35
-90.48
-59.51
-28.76
1.16
31.05
62.72
97.75
133.71
166.44
192.65
211.06
222.00
226.64
226.72
224.40
221.45
216.76
208.44
196.39
183.78
176.11
178.66
194.02
221.04
255.59
292.02
325.40
352.71
370.89
375.71
362.85
330.79
283.94
231.95
185.29
150.25
128.05
114.83
105.18
95.87
87.45
83.09
85.89
97.27
117.59
149.36
194.53
251.44
312.43
365.19
397.00
399.67
371.92
318.91
252.14
182.94
119.46
66.57
28.41
9.66
13.53
38.39
58.30
49.94
3.29
-71.28
-152.45
-221.52
-268.56
-292.83
-300.08
-298.30
-291.15
-279.39
-262.80
-242.59
-221.41
-202.05
-186.65
-176.28
-170.63
-166.15
-159.16
-147.61
-132.33
-115.95
-101.28
-90.26
-83.68
-81.13
-79.93
-77.21
-71.25
-62.31
-52.07
-42.54
-35.35
-31.38
-30.57
-31.35
-31.79
-30.34
-26.62
-21.34
-15.79
-11.44
-9.39
-10.02
-12.58
-15.63
-17.80
-18.22
-17.03
-15.00
-13.39
-13.38
-15.83
-21.24
-29.46
-39.70
-50.17
-57.94
-59.51
-52.10
-35.14
-11.13
15.08
38.19
54.38
62.60
64.40
62.67
59.85
57.02
53.82
49.80
45.37
41.81
40.66
42.72
47.50
53.46
58.70
61.50
61.56
60.30
59.73
61.92
68.25
79.02
93.24
108.46
120.02
123.71
117.81
102.93
82.01
59.30
39.02
24.03
14.92
7.96
0.08
-8.36
-15.01
-17.28
-14.01
-6.16
3.45
10.94
8.81
-7.55
-31.39
-54.61
-70.97
-78.27
-78.09
-74.47
-72.20
-80.13
-102.90
-138.13
-180.51
-225.47
-269.60
-308.46
-335.47
-312.35
-225.84
-101.36
18.30
102.41
140.23
136.48
105.79
66.33
33.22
9.12
-8.79
-22.78
-33.42
-40.35
-42.73
-39.43
-30.35
-17.43
-8.19
-8.24
-17.19
-30.24
-42.33
-50.43
-54.00
-54.28
-52.70
-51.65
-50.33
-44.34
-29.24
-4.47
25.91
55.40
78.10
91.07
93.64
88.13
78.63
68.97
61.17
55.67
52.22
50.44
49.88
49.49
48.22
45.65
41.94
37.55
33.30
30.18
28.99
29.79
31.37
31.30
26.84
16.45
0.89
-16.47
-31.03
-38.88
-38.93
-32.67
-23.63
-15.31
-9.45
-5.76
-2.70
0.79
4.46
6.91
6.76
3.60
-1.54
-6.81
-10.49
-11.69
-10.60
-7.96
-4.54
-0.87
2.67
5.79
8.27
10.07
11.35
12.33
13.01
13.17
12.73
11.98
11.68
12.76
15.58
19.54
22.96
23.89
20.94
14.09
4.53
-5.82
-15.24
-22.71
-27.99
-31.48
-33.83
-35.79
-37.84
-40.34
-43.58
-47.66
-52.45
-57.58
-62.61
-67.02
-70.34
-71.76
-70.38
-65.43
-56.54
-44.01
-28.77
-12.08
5.03
20.29
32.10
39.55
42.29
40.41
34.50
25.48
14.59
3.03
-8.36
-19.05
-29.04
-38.54
-47.53
-55.51
-61.58
-64.83
-64.77
-61.68
-56.30
-49.83
-43.55
-38.48
-35.20
-33.75
-33.79
-34.76
-36.11
-37.27
-37.89
-37.77
-37.25
-37.19
-38.62
-42.24
-47.86
-54.41
-60.16
-63.44
-63.10
-59.30
-53.56
-48.13
-45.04
-45.38
-49.17
-55.66
-63.83
-72.06
-79.14
-84.33
-87.22
-87.47
-84.82
-79.58
-72.79
-66.05
-59.10
-51.66
-43.60
-34.84
-25.23
-14.82
-4.56
3.57
7.49
10.03
14.88
25.37
43.71
70.85
106.40
148.13
192.37
235.27
280.06
329.33
382.96
438.21
492.20
544.01
594.65
645.29
695.47
749.44
805.09
853.32
882.06
883.03
855.87
807.27
746.76
638.28
472.01
265.59
56.10
-123.59
-258.85
-350.69
-407.73
-439.47
-459.02
-467.23
-464.51
-454.26
-442.83
-436.23
-438.00
-446.41
-458.73
-472.07
-477.78
-471.07
-452.63
-427.29
-400.11
-373.50
-347.19
-320.31
-292.78
-261.98
-228.17
-194.41
-164.82
-142.02
-126.06
-115.18
-107.41
-101.12
-92.82
-79.81
-60.75
-36.01
-7.39
22.23
49.48
71.14
85.25
92.50
94.83
94.47
92.98
90.95
88.18
84.19
78.73
72.18
65.74
60.89
58.72
59.31
61.47
63.21
62.61
58.82
52.49
45.45
39.75
36.62
35.97
36.65
37.13
35.91
31.56
22.50
7.66
-12.33
-33.74
-49.87
-53.34
-39.79
-10.84
25.76
59.17
80.36
86.06
79.67
68.72
60.62
59.29
64.26
72.07
78.48
80.17
75.08
62.03
40.38
10.21
-27.48
-70.59
-116.39
-162.29
-206.67
-249.36
-291.10
-332.36
-371.90
-406.07
-429.42
-436.60
-424.55
-394.02
-349.41
-297.17
-243.41
-192.07
-144.61
-101.03
-61.25
-26.14
2.74
24.09
37.93
45.93
51.03
56.48
64.89
77.38
93.14
109.70
123.65
131.91
133.12
128.08
119.40
110.12
102.40
96.78
92.48
88.28
83.41
77.93
72.32
66.88
61.55
56.12
50.83
46.83
45.88
49.62
58.67
71.97
86.83
99.84
108.06
110.21
107.22
101.96
98.05
98.31
103.63
112.86
123.63
133.45
140.76
145.18
147.21
147.64
147.10
145.73
143.18
138.58
130.66
118.40
101.59
81.42
60.37
41.52
27.44
19.32
16.81
18.46
22.66
28.22
34.29
39.99
43.94
44.45
40.23
31.30
19.36
7.40
-1.48
-5.31
-3.93
1.12
7.36
12.38
14.63
13.70
10.23
5.43
0.69
-2.78
-4.23
-3.50
-1.13
1.83
4.03
4.30
1.99
-2.85
-9.44
-16.48
-22.45
-25.96
-26.16
-23.00
-17.35
-10.77
-5.10
-1.87
-1.87
-4.96
-10.09
-15.63
-19.86
-21.49
-20.06
-16.13
-11.25
-7.49
-6.89
-10.71
-19.14
-31.26
-45.47
-60.10
-73.89
-86.03
-96.02
-103.27
-107.02
-106.63
-101.97
-93.86
-83.95
-74.33
-66.70
-61.89
-59.79
-59.75
-61.11
-63.38
-66.11
-68.53
-69.47
-67.52
-61.57
-51.31
-37.33
-20.86
-3.29
13.94
29.46
41.90
50.19
54.03
54.36
53.31
53.56
57.18
64.75
75.28
86.79
97.43
106.01
112.14
115.73
116.52
114.05
108.08
98.99
87.90
76.20
64.85
53.95
42.95
31.18
18.59
5.91
-5.61
-14.89
-21.52
-25.89
-28.81
-30.86
-32.16
-32.39
-31.16
-28.39
-24.43
-19.71
-14.41
-8.17
-0.31
9.55
21.23
33.90
46.36
57.46
66.16
71.60
73.25
71.02
65.40
57.70
49.85
44.04
42.00
44.26
50.22
58.46
67.32
75.27
81.36
85.48
88.33
90.94
93.32
94.91
95.18
94.04
91.83
88.99
85.63
81.14
74.04
61.21
41.17
15.93
-9.36
-29.21
-40.65
-44.32
-43.47
-41.56
-42.57
-47.35
-53.37
-57.06
-57.39
-57.19
-61.45
-74.29
-96.87
-130.36
-173.24
-221.19
-268.42
-310.48
-345.62
-374.41
-398.32
-398.47
-363.37
-296.76
-215.91
-137.93
-71.61
-18.72
22.13
53.55
78.66
96.83
107.37
111.11
110.69
108.75
107.02
106.35
107.52
110.86
114.04
114.78
112.28
107.65
102.46
97.79
94.29
92.50
92.97
93.55
91.98
86.77
77.75
65.66
51.66
37.12
22.80
14.18
12.66
17.98
29.04
44.48
62.55
80.95
96.73
106.70
108.30
99.33
79.98
52.85
22.17
-7.89
-34.39
-56.21
-73.68
-87.84
-100.67
-114.32
-131.26
-154.02
-184.23
-220.93
-259.31
-290.87
-305.49
-295.40
-258.13
-198.27
-126.05
-53.68
8.78
55.98
87.15
104.10
108.57
101.64
84.29
58.79
29.43
1.66
-19.69
-31.95
-35.01
-30.65
-20.94
-7.08
10.45
30.82
51.87
69.83
80.45
80.74
70.52
52.80
32.75
15.68
5.04
1.29
2.33
5.03
6.89
7.09
6.31
5.53
4.95
3.67
0.29
-5.92
-14.41
-23.36
-30.23
-32.65
-29.22
-19.76
-5.48
11.32
27.85
41.88
52.52
60.44
67.30
74.38
81.55
87.10
88.88
85.93
79.48
72.63
68.70
69.14
72.65
75.93
75.59
69.84
59.32
46.29
33.10
21.08
10.29
0.14
-9.88
-19.69
-28.65
-36.00
-41.37
-44.80
-46.65
-47.47
-47.97
-49.05
-51.66
-56.31
-62.63
-69.37
-74.80
-77.44
-76.49
-72.08
-65.00
-56.26
-46.62
-36.56
-26.19
-15.30
-3.78
8.12
19.82
30.52
39.43
45.86
49.34
49.56
46.26
39.26
28.63
14.90
-0.60
-15.88
-28.84
-37.93
-42.84
-44.43
-44.23
-43.76
-43.84
-44.37
-44.85
-45.06
-45.50
-47.24
-51.18
-57.25
-64.70
-72.45
-79.72
-86.55
-93.36
-99.94
-104.73
-105.25
-99.31
-86.48
-68.04
-46.34
-23.96
-2.96
15.55
31.33
44.54
55.33
63.11
67.53
68.95
68.12
65.89
63.09
60.31
57.58
54.01
46.43
32.88
14.16
-6.88
-26.66
-42.13
-51.53
-54.89
-54.07
-55.56
-63.34
-76.70
-92.07
-106.32
-118.12
-127.79
-136.84
-147.20
-165.54
-193.09
-224.09
-250.42
-267.09
-273.24
-270.71
-262.47
-252.30
-250.92
-263.02
-283.86
-303.86
-315.01
-312.85
-295.94
-265.56
-182.12
-46.73
100.57
217.23
289.53
325.95
339.99
342.70
341.81
341.90
338.50
330.40
321.80
316.75
314.08
308.27
291.41
263.83
233.37
204.50
181.67
168.62
165.80
169.46
173.31
174.58
172.51
166.67
152.55
127.52
92.83
51.65
12.44
-19.73
-42.51
-55.89
-61.67
-64.14
-66.44
-69.12
-70.99
-70.65
-68.10
-63.54
-57.36
-50.21
-43.78
-39.27
-36.78
-35.47
-34.15
-32.51
-30.35
-27.63
-24.54
-21.49
-18.97
-17.22
-16.13
-15.22
-14.48
-13.82
-13.24
-12.76
-12.48
-12.53
-12.92
-13.58
-14.21
-14.92
-15.77
-16.84
-18.15
-19.71
-21.49
-23.46
-25.54
-27.55
-29.62
-31.77
-34.01
-36.21
-38.15
-39.50
-39.89
-39.90
-38.35
-35.01
-29.90
-23.32
-15.69
-7.49
0.86
9.04
16.80
24.06
30.43
35.52
38.93
40.40
39.90
37.76
34.52
30.89
27.53
24.54
21.74
18.66
14.91
10.29
5.06
-0.20
-4.82
-8.23
-10.43
-11.79
-12.90
-14.34
-16.67
-20.30
-25.42
-31.78
-38.23
-42.80
-43.13
-37.41
-25.39
-8.86
8.77
23.77
33.46
37.03
35.46
30.67
24.50
18.05
11.76
5.75
0.20
-4.56
-8.10
-10.39
-11.82
-12.99
-14.43
-16.37
-18.71
-21.23
-23.94
-27.17
-31.49
-37.49
-45.33
-54.61
-64.49
-74.10
-82.90
-91.04
-99.33
-108.56
-119.16
-130.82
-142.52
-153.22
-162.33
-169.81
-176.14
-182.23
-189.52
-200.05
-216.01
-238.66
-267.03
-297.13
-322.65
-337.06
-336.21
-320.03
-292.40
-259.20
-225.78
-195.16
-167.87
-143.08
-119.99
-98.57
-79.19
-61.93
-46.01
-29.95
-12.34
7.55
29.29
51.74
73.57
94.06
113.36
132.30
151.92
172.82
194.93
217.48
239.72
261.08
281.70
302.32
323.67
346.24
370.14
395.20
421.01
446.77
471.21
492.48
508.21
515.55
511.48
493.17
458.50
406.39
337.01
252.21
156.10
55.38
-41.10
-123.66
-184.29
-219.08
-229.67
-222.80
-208.03
-194.42
-187.80
-189.87
-198.82
-211.58
-225.48
-238.92
-250.95
-260.69
-266.82
-268.15
-264.29
-256.03
-245.31
-234.57
-225.82
-219.96
-216.71
-214.85
-212.96
-210.03
-205.76
-200.70
-195.71
-191.58
-188.61
-186.54
-184.71
-182.45
-179.35
-175.39
-170.91
-166.39
-162.07
-157.87
-153.36
-147.95
-141.08
-132.45
-122.08
-110.35
-97.79
-84.95
-72.29
-60.18
-48.82
-38.39
-29.03
-20.82
-13.87
-8.17
-3.68
-0.23
2.36
4.32
5.87
7.19
8.43
9.69
11.03
12.48
14.02
15.62
17.22
18.78
20.23
21.53
22.66
23.58
25.33
28.69
32.30
35.28
37.88
40.29
42.69
45.18
47.84
51.67
57.35
63.32
68.38
72.40
75.17
76.47
76.05
73.77
72.03
72.71
72.49
69.32
63.99
57.25
49.88
42.64
36.25
38.20
54.22
75.21
95.11
115.18
136.17
158.39
181.85
206.28
245.22
308.57
375.87
433.00
481.04
520.22
550.32
571.00
582.04
606.04
660.62
716.12
753.73
779.36
797.75
812.60
826.73
842.12
889.17
990.71
1107.00
1211.58
1309.49
1403.90
1496.48
1587.87
1495.02
1111.58
716.55
436.81
213.89
33.52
-114.63
-238.71
-345.59
-441.07
-500.57
-504.99
-495.66
-498.94
-508.78
-521.02
-533.48
-545.82
-558.89
-551.39
-506.67
-454.82
-414.45
-379.14
-343.96
-305.78
-263.95
-220.62
-166.81
-98.87
-43.33
-17.85
-20.38
-44.60
-80.75
-118.34
-149.38
-163.96
-159.33
-150.89
-151.01
-161.38
-179.29
-198.32
-211.05
-212.01
-197.27
-167.80
-132.81
-101.17
-77.86
-65.86
-65.68
-75.57
-91.95
-110.15
-125.59
-134.94
-137.22
-133.88
-128.13
-123.93
-124.65
-131.93
-144.75
-159.26
-169.54
-169.39
-154.60
-124.70
-83.56
-38.15
3.65
35.52
54.30
60.50
57.58
50.51
43.96
40.68
40.59
41.00
38.10
29.04
13.63
-5.22
-22.93
-35.64
-42.26
-44.70
-46.53
-50.81
-58.33
-67.57
-75.97
-81.58
-84.12
-84.61
-84.15
-82.77
-79.14
-71.18
-57.39
-37.95
-14.85
8.89
30.41
48.15
61.88
72.28
80.03
85.05
86.45
83.17
75.01
63.38
51.26
42.10
38.45
40.71
47.03
54.16
58.85
58.90
53.44
42.57
26.47
5.33
-20.42
-49.58
-79.77
-108.13
-132.37
-151.83
-167.63
-181.74
-195.59
-209.00
-220.14
-226.46
-226.10
-218.75
-205.57
-188.26
-168.12
-145.50
-120.13
-91.83
-61.10
-29.32
1.45
28.82
50.24
63.07
64.80
53.79
30.28
-2.96
-40.91
-77.36
-106.61
-124.96
-131.26
-126.68
-113.67
-95.02
-73.26
-50.76
-29.98
-13.72
-4.77
-5.23
-15.56
-34.07
-57.13
-80.02
-98.44
-109.85
-114.21
-113.81
-112.11
-112.31
-116.05
-123.08
-131.69
-139.54
-144.58
-145.45
-141.53
-132.85
-120.11
-104.64
-88.62
-74.69
-65.25
-61.51
-62.88
-67.10
-71.03
-71.91
-68.27
-60.41
-49.89
-38.74
-28.50
-19.81
-12.35
-5.29
2.09
9.98
17.74
24.19
27.93
27.85
23.48
15.26
4.46
-7.17
-17.91
-26.62
-32.89
-36.95
-39.33
-40.52
-40.91
-40.89
-41.14
-42.58
-46.14
-52.15
-59.85
-67.27
-71.71
-70.93
-64.19
-52.65
-38.99
-26.03
-15.34
-6.78
0.95
9.00
17.15
23.72
26.66
25.16
20.61
16.22
15.39
19.79
28.55
38.98
48.18
54.67
58.93
62.50
66.63
71.32
75.29
76.91
75.32
70.86
64.76
58.36
52.06
45.83
39.96
35.35
33.30
34.89
40.51
49.63
60.96
72.32
81.63
87.53
89.56
88.24
85.24
83.49
87.03
99.85
123.08
155.25
192.20
228.01
256.13
271.24
270.99
256.81
232.94
201.31
164.04
123.81
83.68
45.96
11.30
-20.89
-51.43
-80.54
-113.71
-152.68
-193.17
-227.10
-248.90
-259.40
-264.63
-271.54
-284.51
-314.38
-365.18
-431.54
-501.46
-564.02
-613.69
-649.21
-670.80
-679.61
-692.08
-722.18
-774.40
-843.03
-919.46
-997.74
-1074.86
-1149.23
-1131.68
-977.14
-706.75
-395.49
-115.16
100.00
248.01
341.79
398.58
434.66
450.52
447.94
434.82
423.10
420.35
426.00
432.55
437.85
441.42
434.13
410.75
373.36
330.16
289.31
255.76
231.04
215.56
208.29
200.90
186.65
164.36
138.72
112.53
89.14
70.52
57.95
51.38
46.80
40.62
31.46
20.35
9.12
-0.31
-6.78
-9.37
-7.79
-3.25
2.89
9.69
16.72
23.66
30.67
37.98
46.28
56.44
69.28
85.11
103.40
122.86
141.82
159.20
174.61
188.61
202.38
217.36
234.79
255.47
279.53
306.18
333.49
357.95
374.87
379.65
369.33
343.99
307.01
264.05
221.19
183.27
153.14
131.97
120.24
118.27
126.11
142.73
165.34
189.36
209.43
221.02
222.04
213.84
200.88
189.11
183.71
187.16
198.47
213.74
227.84
236.21
235.93
225.99
206.80
179.79
146.98
110.82
73.52
36.31
-0.78
-38.40
-76.52
-113.45
-146.02
-171.16
-187.75
-197.45
-203.64
-209.20
-214.86
-218.97
-219.17
-214.42
-206.18
-197.75
-192.44
-191.65
-194.42
-198.23
-200.46
-199.55
-195.17
-187.75
-177.68
-164.72
-148.00
-126.39
-99.44
-68.10
-35.29
-5.43
16.76
27.95
27.51
17.66
2.49
-13.70
-27.74
-38.12
-44.53
-46.96
-45.18
-38.89
-28.29
-14.57
-0.03
12.53
20.46
21.95
16.42
4.51
-11.97
-30.41
-47.85
-61.69
-70.57
-74.60
-75.33
-75.15
-76.60
-81.61
-91.52
-106.74
-126.72
-149.74
-172.65
-190.82
-198.94
-192.35
-168.17
-126.47
-69.73
-2.00
71.55
145.52
214.66
274.41
321.62
355.84
379.18
396.20
412.55
431.55
453.48
475.72
494.04
504.23
504.24
492.94
471.22
441.66
405.10
361.84
312.37
257.98
200.64
144.33
90.68
40.93
-3.47
-45.42
-88.98
-137.16
-190.36
-246.41
-299.01
-345.37
-383.77
-412.78
-436.97
-462.88
-495.93
-538.81
-591.83
-651.17
-717.75
-792.37
-841.87
-836.15
-759.94
-621.75
-447.22
-287.05
-149.96
-38.77
44.32
99.54
129.58
137.62
131.89
123.99
124.01
139.22
164.18
187.26
198.19
189.17
159.55
115.83
67.46
22.53
-12.27
-31.72
-33.80
-19.03
7.54
39.33
70.76
97.42
115.94
126.33
128.38
123.18
113.77
102.91
92.84
84.69
77.15
67.67
54.57
36.06
10.92
-20.90
-57.70
-95.26
-127.65
-149.21
-156.49
-149.21
-131.13
-106.20
-80.21
-61.83
-57.14
-66.37
-84.85
-106.77
-128.25
-147.94
-166.00
-183.36
-199.25
-211.63
-218.96
-221.40
-220.48
-218.26
-215.76
-212.41
-207.89
-201.02
-190.31
-175.01
-155.66
-134.00
-112.21
-92.01
-74.34
-59.58
-47.36
-37.00
-27.98
-20.29
-14.33
-10.54
-8.90
-8.92
-9.90
-10.91
-11.18
-10.30
-8.31
-5.49
-2.11
1.84
6.71
12.83
20.47
29.59
39.75
50.31
60.72
70.86
81.04
91.92
104.09
117.78
132.63
147.84
162.54
176.28
189.48
203.27
219.13
238.23
260.87
286.22
312.83
339.03
363.73
386.89
409.42
433.03
459.91
492.54
533.12
582.25
637.72
693.66
741.24
771.14
776.78
756.82
715.67
661.61
603.45
547.67
497.19
452.03
411.07
373.69
340.03
310.45
284.62
261.06
237.51
211.85
182.79
150.24
115.29
79.51
44.23
9.91
-23.98
-58.61
-95.23
-134.73
-177.30
-222.99
-272.14
-325.39
-382.65
-441.79
-497.99
-544.47
-574.37
-582.72
-567.92
-532.38
-481.81
-424.41
-369.70
-327.14
-304.54
-306.68
-334.36
-384.34
-450.11
-522.89
-592.76
-649.93
-686.25
-696.91
-681.88
-646.37
-599.12
-549.38
-503.74
-464.64
-431.04
-400.39
-370.56
-340.93
-311.89
-283.92
-256.93
-230.35
-203.81
-177.57
-152.57
-130.20
-111.69
-97.54
-87.37
-80.13
-74.49
-69.41
-64.44
-59.69
-55.58
-52.49
-50.48
-49.18
-47.93
-46.09
-43.18
-39.00
-33.47
-26.52
-17.99
-7.54
5.11
20.01
36.92
55.29
74.46
93.94
113.52
133.39
153.95
175.51
198.09
221.40
244.91
268.03
290.42
311.98
333.02
354.29
376.91
401.98
429.89
459.46
487.59
509.55
520.32
516.22
496.21
462.18
418.13
368.84
318.61
270.64
226.95
188.54
155.51
127.12
101.83
77.73
53.17
27.34
0.53
-26.15
-51.28
-73.46
-91.56
-104.77
-112.67
-115.33
-113.38
-107.95
-100.43
-92.11
-83.91
-76.40
-69.87
-64.50
-60.35
-57.37
-55.28
-53.59
-51.90
-50.08
-48.30
-46.74
-45.35
-43.62
-40.87
-36.62
-30.94
-24.30
-17.15
-9.50
-0.68
10.42
24.73
42.51
63.08
85.02
106.65
126.44
143.21
156.05
164.11
166.53
162.51
151.66
134.37
112.04
86.96
61.67
38.12
16.96
-2.47
-21.52
-41.27
-61.62
-81.29
-98.50
-112.09
-122.25
-130.51
-138.93
-149.01
-161.17
-175.20
-191.00
-209.11
-230.00
-252.95
-274.88
-290.42
-293.48
-279.47
-247.05
-198.38
-137.86
-70.39
-0.14
69.58
135.80
195.46
245.63
284.23
310.67
325.95
332.07
331.16
324.89
314.37
300.20
282.77
262.45
239.73
215.29
190.05
165.01
141.00
118.45
97.35
77.63
59.34
42.78
28.38
16.32
6.32
-2.20
-9.92
-17.29
-24.45
-31.34
-37.97
-44.46
-51.02
-57.77
-64.73
-71.86
-79.23
-87.07
-95.57
-104.64
-113.69
-121.65
-127.41
-130.25
-130.16
-127.82
-124.19
-120.06
-115.73
-111.07
-105.71
-99.43
-92.32
-84.78
-77.34
-70.55
-64.84
-60.39
-57.15
-54.73
-52.40
-49.22
-44.29
-37.00
-27.20
-15.41
-2.65
9.69
20.21
27.71
31.55
31.69
28.75
23.78
17.97
12.30
7.36
3.32
0.12
-2.41
-4.46
-6.21
-7.88
-9.67
-11.65
-13.60
-14.93
-14.84
-12.58
-7.86
-1.01
7.06
15.18
22.30
27.88
31.88
34.61
36.39
37.38
37.55
36.84
35.37
33.53
31.87
30.75
30.16
29.62
28.52
26.43
23.42
20.08
17.20
15.30
14.35
13.81
12.96
11.36
9.03
6.41
4.00
1.98
0.12
-2.11
-5.24
-9.39
-14.28
-19.33
-23.99
-27.87
-30.84
-32.81
-33.54
-32.69
-29.89
-25.11
-18.74
-11.55
-4.40
2.07
7.64
12.33
16.24
19.33
21.39
22.23
21.90
20.77
19.47
18.60
18.50
19.07
19.86
20.31
19.97
18.75
16.90
14.84
12.91
11.23
9.58
7.65
5.24
2.46
-0.37
-2.90
-5.04
-6.99
-9.17
-11.91
-15.29
-19.05
-22.74
-25.94
-28.35
-29.84
-30.33
-29.69
-27.78
-24.52
-20.07
-14.81
-9.31
-4.13
0.37
4.05
6.97
9.21
10.75
11.43
11.06
9.53
6.96
3.69
0.19
-3.11
-5.89
-8.06
-9.61
-10.62
-11.19
-11.40
-11.40
-11.35
-11.42
-11.76
-12.41
-13.33
-14.41
-15.52
-16.53
-17.36
-18.01
-18.52
-19.00
-19.61
-20.51
-21.82
-23.56
-25.63
-27.75
-29.53
-30.52
-30.37
-28.89
-26.05
-22.03
-17.07
-11.48
-5.59
0.24
5.62
10.19
13.63
15.81
16.82
16.92
16.45
15.72
14.85
13.85
12.64
11.22
9.68
8.20
6.93
5.92
5.09
4.27
3.40
2.49
1.68
1.06
0.66
0.35
-0.09
-0.82
-1.92
-3.32
-4.90
-6.58
-8.36
-10.38
-12.77
-15.51
-18.37
-20.85
-22.41
-22.64
-21.45
-19.08
-15.96
-12.48
-8.81
-4.90
-0.60
4.08
8.93
13.52
17.38
20.22
21.97
22.80
22.96
22.64
21.98
21.05
19.92
18.72
17.58
16.59
15.72
14.82
13.74
12.40
10.86
9.27
7.79
6.43
5.05
3.46
1.54
-0.67
-2.99
-5.19
-7.17
-9.00
-10.93
-13.19
-15.94
-19.09
-22.41
-25.53
-28.15
-30.04
-31.03
-30.95
-29.64
-26.99
-23.02
-18.02
-12.44
-6.82
-1.67
2.64
5.94
8.24
9.69
10.52
11.00
11.35
11.70
12.10
12.52
12.95
13.33
13.66
13.88
13.94
13.83
13.59
13.29
12.95
12.48
11.66
10.26
8.23
5.76
3.28
1.19
-0.31
-1.28
-2.00
-2.76
-3.73
-4.96
-6.38
-7.95
-9.60
-11.18
-12.44
-13.04
-12.60
-10.92
-7.99
-4.02
0.62
5.55
10.37
14.76
18.46
21.26
23.05
23.79
23.53
22.41
20.68
18.59
16.43
14.39
12.53
10.79
9.06
7.22
5.24
3.20
1.22
-0.54
-1.92
-2.79
-3.06
-2.72
-1.92
-0.98
-0.28
-0.17
-0.82
-2.19
-4.03
-6.05
-8.02
-9.83
-11.50
-13.09
-14.61
-15.99
-17.02
-17.50
-17.23
-16.10
-14.13
-11.38
-7.99
-4.09
0.14
4.51
8.69
12.32
15.01
16.45
16.53
15.38
13.28
10.68
8.03
5.67
3.84
2.62
1.92
1.61
1.47
1.33
1.03
0.52
-0.19
-1.02
-1.88
-2.74
-3.57
-4.44
-5.38
-6.48
-7.76
-9.20
-10.76
-12.43
-14.21
-16.17
-18.39
-20.93
-23.67
-26.33
-28.47
-29.62
-29.46
-27.93
-25.24
-21.80
-18.02
-14.19
-10.49
-7.01
-3.86
-1.22
0.71
1.83
2.16
1.87
1.23
0.45
-0.29
-0.94
-1.48
-1.86
-1.94
-1.47
-0.22
1.94
4.84
8.02
10.88
12.85
13.66
13.44
12.58
11.51
10.53
9.65
8.73
7.59
6.20
4.60
2.91
1.14
-0.77
-2.94
-5.34
-7.75
-9.79
-11.04
-11.23
-10.33
-8.48
-5.92
-2.84
0.61
4.27
7.91
11.15
13.55
14.78
14.76
13.67
11.90
9.89
8.01
6.45
5.19
4.06
2.78
1.12
-1.01
-3.48
-5.92
-7.84
-8.76
-8.36
-6.61
-3.78
-0.46
2.68
5.01
6.12
5.96
4.79
3.06
1.13
-0.81
-2.84
-5.14
-7.82
-10.78
-13.74
-16.33
-18.17
-19.01
-18.71
-17.26
-14.73
-11.30
-7.23
-2.86
1.50
5.60
9.23
12.23
14.45
15.76
16.07
15.43
14.05
12.25
10.33
8.52
6.95
5.58
4.37
3.26
2.25
1.34
0.54
-0.18
-0.88
-1.64
-2.51
-3.48
-4.54
-5.69
-7.02
-8.67
-10.78
-13.35
-16.26
-19.33
-22.40
-25.41
-28.44
-31.53
-34.59
-37.36
-39.44
-40.49
-40.36
-39.16
-37.16
-34.71
-32.07
-29.45
-27.07
-25.21
-24.14
-24.08
-25.08
-26.90
-29.13
-31.22
-32.61
-32.98
-32.29
-30.82
-29.10
-27.61
-26.60
-25.84
-24.78
-22.74
-19.40
-14.91
-9.97
-5.43
-1.93
0.43
2.11
3.97
6.86
11.38
17.75
25.76
34.89
44.39
53.34
60.85
66.19
69.02
69.58
68.62
67.25
66.66
67.75
70.89
75.90
82.10
88.54
94.30
98.57
100.71
100.23
96.73
90.02
80.25
68.09
54.89
42.32
32.10
25.31
22.14
21.71
22.51
22.93
21.88
19.10
15.09
10.79
7.02
4.18
2.11
0.39
-1.30
-2.91
-3.98
-3.92
-2.37
0.54
4.17
7.57
9.84
10.36
8.91
5.62
0.92
-4.60
-10.35
-15.78
-20.53
-24.39
-27.21
-28.81
-29.00
-27.70
-25.09
-21.74
-18.43
-15.85
-14.23
-13.27
-12.29
-10.66
-8.16
-5.10
-2.12
0.28
2.04
3.65
5.89
9.32
13.90
18.84
22.92
25.04
24.84
22.84
20.24
18.27
17.51
17.64
17.73
16.76
14.27
10.70
7.04
4.34
3.05
2.83
2.78
1.98
0.01
-3.01
-6.51
-9.92
-12.83
-14.93
-15.88
-15.18
-12.33
-7.29
-0.81
5.54
9.78
10.44
7.31
1.71
-4.10
-8.09
-9.44
-8.81
-7.60
-6.82
-6.24
-4.55
-0.36
6.69
15.42
23.59
28.99
30.47
28.23
23.56
18.33
14.65
14.70
20.46
32.86
50.57
69.37
82.99
85.77
75.72
56.28
35.36
21.71
20.30
29.49
41.51
45.96
34.34
3.42
-44.18
-101.71
-160.65
-212.60
-250.40
-269.26
-267.91
-249.38
-220.35
-188.70
-160.13
-135.62
-111.43
-81.64
-41.94
7.55
61.75
112.55
151.66
173.08
174.30
156.19
122.23
77.67
28.53
-19.50
-62.33
-98.27
-127.98
-153.36
-176.07
-196.02
-210.47
-214.26
-201.42
-167.82
-113.68
-45.02
27.23
90.32
133.90
153.37
151.11
134.71
113.37
94.05
79.26
67.33
54.71
38.87
19.97
0.43
-16.88
-30.21
-39.46
-45.56
-49.33
-50.90
-49.98
-46.28
-40.11
-32.42
-24.08
-15.03
-4.00
10.87
31.09
56.62
85.76
115.55
142.47
163.39
176.14
179.91
175.69
166.65
157.31
152.73
157.09
171.16
192.31
215.18
233.44
241.88
238.49
223.47
199.28
169.59
136.15
99.69
60.80
20.64
-18.72
-53.79
-83.31
-107.17
-125.88
-143.30
-163.47
-188.61
-218.40
-250.23
-278.99
-303.20
-323.29
-340.48
-359.73
-385.70
-420.16
-461.54
-505.34
-544.10
-575.36
-599.25
-594.33
-546.23
-452.82
-327.40
-193.08
-85.76
-7.35
48.20
87.52
115.74
136.75
150.00
158.83
164.76
168.87
174.24
180.39
186.81
194.01
199.94
201.86
198.34
189.51
177.57
167.21
159.62
154.27
150.37
145.74
138.52
128.91
118.81
111.58
111.93
121.10
137.21
156.17
171.90
178.26
171.58
151.51
121.22
86.53
52.42
21.79
-4.27
-26.25
-44.94
-60.35
-71.79
-78.50
-80.53
-77.67
-72.36
-67.62
-65.47
-66.03
-67.75
-68.54
-66.86
-62.21
-54.93
-45.89
-35.40
-23.38
-9.84
4.58
18.56
30.62
39.89
46.41
50.70
53.69
56.07
58.08
59.60
60.41
60.36
59.53
58.19
56.74
55.89
56.38
58.63
62.37
66.59
69.94
71.45
71.15
69.99
69.38
70.40
73.12
76.60
79.26
79.56
76.44
69.53
59.05
45.60
30.05
13.29
-3.92
-21.12
-37.99
-54.09
-68.55
-79.93
-86.71
-87.86
-83.59
-75.36
-65.48
-56.15
-48.74
-43.48
-39.80
-37.01
-34.95
-34.15
-35.59
-40.19
-48.37
-59.89
-74.11
-90.29
-107.75
-125.73
-143.14
-158.20
-168.43
-171.19
-164.62
-148.76
-125.96
-100.38
-76.60
-57.99
-45.64
-38.37
-33.80
-29.86
-25.84
-22.28
-20.18
-19.79
-20.15
-19.38
-15.66
-8.14
2.76
15.77
29.53
42.94
55.36
66.30
75.37
82.31
87.13
90.32
92.59
94.60
96.68
98.96
101.60
104.96
109.36
114.59
119.22
120.76
116.40
104.07
83.61
56.78
26.58
-4.02
-33.22
-60.69
-86.94
-112.29
-135.98
-156.10
-170.38
-177.41
-177.22
-171.29
-161.67
-150.01
-137.08
-122.93
-107.47
-90.95
-74.06
-57.50
-41.61
-26.19
-10.76
5.06
21.39
38.14
55.16
72.28
89.21
105.30
119.53
130.71
137.90
140.75
139.56
135.11
128.26
119.71
109.84
98.87
87.08
75.00
63.34
52.87
44.22
37.62
32.96
29.76
27.44
25.44
23.48
21.63
20.25
19.84
20.70
22.61
24.76
25.89
24.73
20.50
13.26
3.93
-6.11
-15.45
-22.97
-27.95
-29.93
-28.64
-24.03
-16.43
-6.61
4.31
15.21
25.35
34.48
42.68
50.03
56.33
61.09
63.77
64.09
62.24
58.72
54.11
48.88
43.30
37.51
31.64
25.93
20.62
15.93
11.95
8.63
5.88
3.57
1.63
0.02
-1.36
-2.63
-4.03
-5.91
-8.64
-12.57
-17.85
-24.33
-31.59
-39.03
-46.05
-52.10
-56.72
-59.54
-60.21
-58.57
-54.62
-48.59
-40.96
-32.31
-23.18
-13.98
-4.96
3.66
11.63
18.56
24.09
27.94
30.13
30.92
30.73
29.89
28.59
26.83
24.58
21.96
19.26
16.90
15.17
14.12
13.52
12.97
12.11
10.72
8.75
6.32
3.64
0.94
-1.51
-3.63
-5.51
-7.42
-9.75
-12.87
-16.84
-21.09
-24.56
-26.01
-24.67
-20.44
-13.75
-5.30
4.25
14.64
25.97
38.44
52.11
66.36
80.39
93.64
105.91
117.09
127.03
135.41
141.96
146.71
149.56
151.51
154.60
160.64
169.51
178.47
183.10
179.15
164.45
138.23
103.29
65.30
30.35
2.04
-19.38
-35.93
-49.94
-62.91
-77.80
-95.59
-114.66
-132.20
-146.78
-158.99
-170.55
-183.25
-198.90
-222.88
-258.64
-304.93
-355.66
-402.50
-437.19
-453.25
-447.69
-399.81
-307.45
-190.37
-78.20
9.90
71.16
111.97
139.65
158.99
172.12
177.49
176.37
173.72
175.43
182.83
191.40
193.60
183.29
158.23
118.80
69.99
19.61
-25.16
-61.07
-89.12
-113.12
-132.82
-150.49
-171.22
-199.49
-236.34
-277.97
-316.89
-344.56
-354.51
-344.79
-319.16
-285.14
-249.90
-217.44
-188.14
-160.52
-132.78
-103.45
-71.28
-35.46
4.56
48.58
94.70
138.71
174.18
194.13
193.20
169.92
127.29
72.82
16.56
-31.53
-64.16
-78.28
-75.14
-59.05
-35.36
-8.72
17.96
43.40
67.08
88.39
106.37
120.11
129.26
134.49
137.32
139.44
141.86
144.42
145.94
144.86
140.12
131.62
120.37
108.09
96.60
87.15
80.06
74.80
70.30
65.66
60.71
56.09
53.00
52.51
54.86
59.20
63.88
67.22
68.35
67.49
65.71
64.10
62.95
61.61
58.78
53.36
45.06
34.69
23.69
13.48
4.91
-1.96
-7.65
-12.87
-18.15
-23.62
-28.92
-33.52
-36.90
-38.89
-39.88
-40.68
-42.18
-44.89
-48.47
-51.73
-52.98
-50.74
-44.30
-34.05
-21.32
-7.68
5.54
17.82
29.28
40.45
51.71
63.10
74.22
84.54
93.69
101.57
108.25
113.83
118.33
121.91
124.97
128.17
132.17
137.23
143.00
148.60
152.98
155.31
154.99
151.68
145.33
136.38
126.04
116.15
108.46
103.71
100.86
97.16
89.27
74.68
52.85
25.10
-6.15
-38.48
-69.86
-98.63
-123.08
-141.23
-151.39
-152.97
-146.97
-135.66
-121.49
-105.80
-88.34
-67.76
-43.09
-15.27
12.49
35.49
49.53
52.73
46.54
35.15
23.80
16.69
15.45
18.87
23.83
26.84
25.43
18.80
7.73
-6.31
-22.07
-39.23
-58.30
-80.06
-104.61
-130.77
-156.17
-178.07
-194.44
-204.78
-210.11
-212.34
-213.22
-213.62
-213.27
-211.11
-205.87
-196.74
-183.48
-166.33
-145.87
-122.85
-98.29
-73.36
-49.45
-27.96
-10.16
2.94
10.64
12.71
9.53
2.12
-7.89
-18.53
-27.80
-34.05
-36.30
-34.48
-29.20
-21.51
-12.51
-3.03
6.30
15.06
22.92
29.71
35.44
40.29
44.55
48.30
51.18
52.46
51.30
47.23
40.55
32.25
23.72
16.13
10.11
5.66
2.40
-0.07
-1.87
-2.74
-2.23
0.00
3.79
8.45
12.90
16.16
17.87
18.65
19.77
22.58
27.66
34.40
41.15
45.99
47.69
46.36
43.40
40.77
40.11
42.11
46.31
51.66
57.12
62.21
67.12
72.41
78.58
85.70
93.33
100.73
107.14
111.97
114.90
115.82
114.72
111.64
106.59
99.54
90.43
79.20
65.76
50.02
32.17
13.02
-5.68
-21.28
-30.70
-31.43
-22.47
-4.90
18.30
43.14
65.68
83.11
94.19
99.15
99.18
95.76
90.10
82.90
74.20
63.71
51.24
37.20
22.86
10.13
0.90
-3.78
-4.16
-1.62
1.99
5.21
7.29
8.18
8.02
6.90
4.27
-0.11
-5.85
-11.92
-17.26
-21.35
-24.30
-26.48
-27.97
-28.66
-27.60
-23.16
-13.53
2.46
24.70
51.66
80.75
109.02
133.03
151.10
164.08
174.86
186.73
201.61
219.56
239.23
258.95
274.61
283.75
286.64
285.66
283.08
279.65
274.81
267.63
257.40
237.37
202.55
152.39
91.06
24.08
-44.59
-112.88
-179.61
-243.83
-314.34
-397.10
-490.59
-585.97
-672.86
-744.57
-798.80
-836.03
-858.30
-881.40
-918.16
-972.31
-1037.98
-1106.64
-1173.31
-1237.11
-1298.91
-1278.56
-1132.18
-872.73
-564.38
-274.58
-39.52
135.14
259.41
347.92
413.27
451.92
460.30
441.71
407.35
369.90
337.31
311.92
293.47
281.05
265.83
243.97
219.73
202.99
201.22
214.28
233.78
253.67
269.13
272.90
262.54
241.25
215.78
192.00
172.69
158.07
147.91
141.58
135.50
126.45
112.84
95.26
75.10
54.18
34.08
16.51
2.50
-8.35
-16.55
-22.03
-23.79
-23.15
-20.25
-15.40
-8.90
-1.59
5.55
11.58
15.68
17.27
15.93
11.82
4.89
-4.82
-17.28
-31.86
-47.21
-61.32
-72.00
-77.58
-77.22
-71.56
-62.26
-51.38
-40.33
-29.39
-17.74
-3.84
14.12
37.86
68.42
105.44
145.95
183.74
210.61
219.11
205.70
172.74
127.74
79.92
36.32
-0.70
-32.92
-63.89
-96.01
-128.93
-160.09
-186.43
-205.59
-216.14
-217.33
-208.82
-191.28
-167.07
-139.79
-113.00
-88.69
-66.50
-44.48
-20.72
5.42
33.09
60.97
88.94
118.83
153.20
193.44
237.89
281.34
316.65
337.38
340.09
325.05
295.64
257.00
214.69
173.88
139.36
115.58
105.90
111.70
131.48
160.82
193.51
223.58
246.97
262.32
270.58
273.65
272.96
268.85
260.46
246.30
225.29
197.27
163.19
125.06
85.62
48.09
15.82
-8.28
-22.59
-27.36
-24.90
-19.29
-15.22
-16.72
-25.62
-41.06
-59.57
-76.39
-87.23
-90.27
-86.89
-81.08
-77.33
-78.47
-84.21
-91.17
-94.87
-92.10
-82.95
-70.57
-59.55
-53.38
-52.59
-54.63
-55.45
-51.72
-42.44
-29.26
-15.19
-2.94
6.44
13.67
20.53
28.78
39.42
52.17
65.83
78.58
88.30
93.00
91.35
83.33
70.47
55.29
40.33
27.09
15.51
4.45
-7.20
-19.50
-31.72
-43.16
-54.40
-67.58
-85.02
-106.72
-128.74
-143.83
-144.49
-127.01
-93.45
-50.75
-7.72
28.70
54.92
69.98
73.68
64.98
42.26
4.98
-44.56
-100.93
-156.92
-205.98
-243.66
-267.94
-278.23
-274.63
-257.44
-227.67
-187.66
-140.82
-91.45
-43.84
-1.22
34.99
65.03
90.40
112.55
131.86
147.33
156.63
156.95
146.06
122.95
88.46
45.48
-1.27
-45.95
-82.71
-106.99
-116.58
-111.85
-95.02
-68.93
-36.52
-1.14
32.39
56.89
63.37
43.67
-5.50
-79.79
-167.09
-251.40
-318.38
-360.14
-376.66
-373.64
-358.08
-334.54
-304.09
-265.88
-219.58
-167.00
-111.65
-57.37
-6.91
38.45
78.21
111.54
137.09
153.69
161.41
161.96
158.13
153.13
149.89
150.66
157.09
170.08
189.16
211.72
233.05
247.52
250.71
241.54
222.86
200.50
180.59
167.09
160.34
157.69
155.58
151.51
144.93
136.49
127.01
116.65
105.14
92.50
79.69
67.90
57.98
49.29
39.89
27.57
11.05
-9.13
-30.96
-51.84
-69.80
-83.75
-93.41
-98.70
-99.68
-96.60
-90.28
-82.01
-73.10
-64.29
-55.57
-46.47
-36.72
-26.94
-18.60
-13.42
-12.41
-15.37
-21.12
-28.23
-35.86
-44.17
-53.72
-65.22
-79.12
-95.61
-114.88
-137.11
-161.74
-186.73
-208.58
-223.06
-226.87
-219.15
-201.81
-178.44
-152.75
-126.95
-101.42
-75.44
-48.22
-19.78
9.01
37.04
63.25
86.83
107.35
124.41
137.86
147.58
153.88
157.40
159.24
160.63
162.49
164.78
166.12
164.34
157.77
146.75
134.14
124.34
120.96
124.37
130.88
133.85
126.50
104.85
68.85
22.00
-30.19
-81.98
-127.94
-163.07
-182.88
-184.13
-166.31
-132.41
-88.61
-43.09
-3.02
27.14
47.28
60.85
72.73
86.91
104.84
125.78
147.51
167.73
185.33
200.70
215.69
233.20
257.07
291.34
338.92
399.23
465.86
527.80
572.39
589.88
577.09
538.37
483.24
422.68
364.50
310.38
258.36
205.60
151.26
97.01
45.88
0.01
-39.76
-75.56
-113.23
-157.89
-212.05
-273.86
-338.17
-399.00
-451.90
-493.90
-526.34
-555.92
-589.48
-631.79
-683.94
-744.46
-811.67
-884.61
-960.60
-1013.44
-1018.08
-958.93
-840.84
-686.97
-525.92
-380.45
-271.43
-192.74
-134.99
-93.35
-65.53
-50.39
-45.48
-45.37
-44.69
-38.87
-23.78
0.03
27.17
51.54
68.32
76.21
77.43
75.82
75.23
79.31
88.11
98.36
106.24
108.76
105.02
96.41
85.30
74.12
65.35
59.20
54.20
48.57
40.98
31.07
19.71
8.17
-2.18
-10.08
-15.39
-18.87
-21.59
-24.58
-28.52
-33.48
-39.16
-44.86
-49.70
-53.15
-54.97
-55.27
-54.53
-53.32
-52.01
-50.66
-48.73
-45.36
-39.67
-31.05
-19.37
-5.07
11.24
29.16
48.64
70.14
94.44
122.44
154.90
192.36
234.70
280.66
327.56
371.34
407.46
432.31
444.47
445.23
437.91
426.34
413.22
399.20
383.09
362.96
337.58
307.20
273.69
239.77
207.99
179.93
155.77
134.79
116.12
99.34
84.79
73.25
65.46
61.51
60.91
63.16
67.99
75.44
85.13
95.58
104.12
107.70
104.08
92.68
74.48
51.11
23.84
-6.88
-40.75
-76.84
-112.56
-144.26
-168.20
-181.86
-184.81
-178.41
-164.97
-146.81
-125.66
-102.61
-77.91
-51.67
-24.04
4.33
31.90
56.20
73.85
81.33
76.15
58.21
30.31
-1.88
-30.97
-49.74
-52.91
-38.18
-6.18
40.20
96.98
160.28
226.71
293.20
357.18
416.17
468.03
511.07
544.16
566.78
579.34
582.56
577.27
563.77
542.16
512.34
474.67
430.36
381.24
330.39
280.52
233.78
191.28
153.37
119.73
89.70
62.49
36.67
12.38
-10.75
-32.74
-53.58
-73.43
-92.98
-113.55
-136.70
-165.25
-198.12
-234.63
-273.08
-311.34
-347.63
-381.17
-412.27
-442.01
-474.19
-507.96
-544.89
-585.90
-630.29
-674.72
-713.12
-737.61
-741.17
-723.39
-682.88
-626.45
-563.03
-500.03
-440.45
-382.80
-323.71
-243.16
-168.23
-103.27
-57.80
-38.69
-47.21
-79.08
-126.72
-182.18
-238.72
-293.58
-337.38
-363.12
-364.63
-339.48
-291.59
-230.76
-169.23
-116.60
-78.68
-50.33
-25.99
-1.09
25.46
51.62
74.79
94.43
112.60
130.83
152.08
174.67
194.64
208.18
213.83
212.85
207.95
201.39
193.95
187.53
184.10
186.74
198.13
218.63
244.72
270.02
287.79
293.79
288.59
276.15
261.71
249.42
240.89
234.91
228.30
217.08
198.05
170.09
135.14
98.25
65.99
43.90
34.01
33.70
36.77
36.06
26.34
5.65
-24.50
-60.53
-97.70
-131.64
-158.16
-173.17
-172.74
-153.94
-116.67
-63.85
-0.73
67.42
136.37
203.31
265.98
321.30
364.81
390.95
396.17
381.13
352.30
318.83
289.38
269.20
259.44
257.95
259.54
259.52
254.78
246.15
233.47
215.51
190.12
156.46
115.47
66.20
8.94
-54.80
-117.44
-174.25
-223.08
-264.81
-299.88
-328.44
-355.66
-386.40
-423.64
-459.76
-490.39
-513.90
-532.93
-549.17
-563.85
-584.63
-618.44
-669.40
-728.20
-790.56
-856.58
-931.27
-1015.90
-1065.24
-1041.04
-922.01
-774.45
-629.04
-502.81
-384.73
-276.26
-178.60
-90.60
-15.23
46.02
93.99
142.50
200.70
273.74
360.17
456.94
556.93
644.44
703.36
722.87
709.13
672.03
623.30
571.29
522.70
479.68
438.02
392.75
341.51
290.29
243.77
204.16
169.63
138.12
106.83
72.52
33.73
-8.43
-48.83
-83.70
-111.30
-132.28
-140.93
-133.20
-108.84
-72.29
-30.55
10.74
47.47
77.03
97.68
109.07
111.22
105.54
94.60
82.00
71.14
63.91
60.36
59.16
58.56
56.75
52.61
45.61
36.25
25.21
12.48
-2.81
-22.05
-46.81
-78.88
-119.23
-167.47
-219.94
-270.00
-309.85
-333.23
-337.76
-325.96
-304.46
-277.01
-249.95
-227.46
-210.50
-197.72
-186.96
-176.89
-167.40
-159.05
-152.01
-146.14
-140.44
-134.04
-127.07
-120.30
-115.08
-112.68
-113.75
-118.10
-125.14
-133.53
-142.00
-149.65
-155.22
-157.94
-157.70
-154.83
-149.73
-142.73
-133.56
-121.98
-108.04
-89.74
-66.21
-38.68
-10.37
15.13
35.45
50.43
61.46
70.77
85.77
111.86
149.73
195.10
241.80
285.57
325.60
363.61
402.52
453.26
522.96
610.87
708.01
802.14
884.02
949.91
1000.27
1038.09
1078.51
1133.89
1208.27
1295.36
1382.81
1458.17
1512.02
1538.42
1463.79
1251.02
914.67
520.77
147.22
-156.18
-377.14
-526.84
-624.05
-685.12
-710.06
-698.06
-654.51
-593.38
-531.40
-480.99
-445.98
-425.38
-415.17
-402.35
-377.58
-339.14
-293.56
-250.36
-216.85
-195.03
-183.06
-177.44
-169.59
-154.00
-130.80
-106.32
-84.71
-70.23
-64.09
-65.19
-71.18
-76.92
-78.66
-75.13
-67.71
-58.85
-50.92
-44.76
-40.25
-36.82
-33.07
-28.28
-22.80
-17.72
-14.34
-13.77
-16.12
-20.76
-26.65
-32.77
-38.39
-43.24
-47.19
-50.24
-52.59
-54.13
-54.58
-53.66
-51.36
-48.27
-45.47
-44.22
-45.57
-50.08
-57.42
-66.62
-76.47
-86.21
-95.91
-106.52
-119.42
-135.66
-155.42
-177.65
-200.62
-222.44
-241.97
-259.34
-275.94
-294.06
-316.65
-346.93
-387.78
-440.56
-503.79
-572.11
-636.92
-688.58
-719.66
-727.40
-714.36
-686.67
-651.10
-612.52
-572.82
-531.93
-489.42
-445.98
-403.19
-362.66
-324.74
-288.41
-252.09
-214.70
-176.63
-139.55
-105.81
-77.07
-53.44
-33.33
-14.15
6.47
29.65
54.84
80.04
103.09
122.58
138.75
153.23
168.30
185.89
206.91
231.09
257.14
283.26
307.16
326.41
338.80
343.21
340.26
332.59
323.91
317.44
314.48
313.77
312.43
307.58
298.25
285.80
273.11
262.33
253.19
242.80
226.82
202.00
168.23
129.11
90.83
59.71
39.72
31.31
31.96
37.91
45.99
54.49
62.79
70.14
74.85
74.45
66.74
51.21
29.49
5.04
-18.19
-37.00
-49.59
-55.51
-54.97
-48.36
-36.05
-18.69
2.54
25.78
48.65
68.88
84.51
94.19
97.19
93.38
83.31
68.27
50.28
31.85
15.62
3.68
-3.29
-6.36
-8.10
-11.51
-18.27
-27.51
-35.77
-38.07
-29.73
-8.29
25.66
68.55
114.89
158.58
193.91
216.53
224.29
217.67
199.48
173.92
144.88
114.90
85.01
55.58
27.53
2.84
-15.64
-25.67
-26.67
-20.18
-9.35
2.36
12.44
20.27
27.16
35.70
48.45
66.85
90.00
114.57
135.64
148.39
149.62
138.69
117.40
88.95
56.79
23.82
-7.90
-37.18
-63.61
-87.82
-111.71
-138.28
-170.53
-209.75
-254.08
-298.01
-333.43
-352.19
-349.01
-323.30
-279.10
-223.25
-163.01
-104.03
-49.55
-0.98
41.34
77.69
108.99
137.21
165.56
198.28
239.39
290.96
351.25
414.01
469.53
507.60
521.14
508.99
476.31
432.23
386.13
344.26
308.34
276.66
246.38
215.64
184.42
153.81
124.70
97.00
69.64
41.28
11.16
-20.77
-53.81
-87.59
-122.47
-159.56
-199.63
-241.55
-281.86
-314.98
-335.18
-338.43
-323.82
-293.68
-252.40
-204.86
-154.90
-104.72
-54.67
-3.90
48.68
103.57
159.89
215.27
266.22
309.02
340.53
359.00
364.10
356.70
338.68
312.75
282.35
251.18
222.53
198.40
179.29
164.26
151.54
139.52
127.11
113.99
100.58
87.59
75.75
65.48
56.74
48.92
41.12
32.37
22.04
10.12
-2.97
-16.68
-30.36
-43.74
-57.04
-70.86
-86.09
-103.70
-124.24
-147.53
-172.24
-195.71
-214.89
-227.51
-233.70
-235.67
-236.82
-240.14
-247.27
-258.18
-271.46
-285.51
-299.08
-311.67
-322.32
-329.09
-329.24
-320.43
-301.78
-273.96
-238.73
-197.88
-154.13
-109.80
-66.75
-26.74
8.17
36.26
57.08
72.28
85.03
95.07
101.47
103.24
99.89
91.24
77.41
59.76
40.97
24.15
3.85
-25.64
-66.50
-115.48
-166.61
-214.56
-256.18
-290.81
-319.64
-355.73
-407.56
-473.61
-542.73
-602.47
-647.09
-678.45
-702.98
-727.67
-772.06
-848.00
-954.98
-1079.73
-1204.93
-1316.71
-1405.16
-1463.93
-1399.84
-1169.67
-801.18
-383.77
-7.36
281.82
480.81
609.75
693.06
749.85
772.82
761.49
722.88
674.37
634.79
615.87
621.63
649.72
694.25
737.55
764.67
769.59
757.40
736.54
704.16
656.53
592.96
518.04
432.38
338.62
241.94
151.10
73.75
13.35
-29.45
-56.82
-72.40
-83.49
-95.33
-111.14
-126.99
-137.54
-138.79
-127.92
-104.31
-69.12
-26.15
19.45
62.23
99.17
128.69
150.24
164.48
172.27
174.63
172.28
165.85
156.11
144.46
131.98
119.52
107.96
97.56
88.52
80.44
72.77
65.20
57.87
50.95
44.60
39.09
34.27
30.22
26.65
23.24
19.70
15.85
11.55
6.68
2.83
-1.10
-5.24
-9.51
-13.52
-17.01
-19.82
-21.97
-23.80
-25.78
-28.72
-33.02
-39.15
-47.10
-56.73
-67.66
-79.27
-90.92
-101.92
-111.81
-120.06
-126.58
-131.02
-133.58
-134.70
-134.98
-134.97
-135.12
-135.74
-136.84
-138.40
-139.83
-140.89
-141.59
-141.92
-141.78
-140.53
-137.01
-129.16
-119.50
-108.43
-96.30
-83.67
-71.11
-58.96
-47.07
-35.00
-22.02
-7.62
8.96
27.64
47.64
68.00
87.91
107.13
125.81
144.56
164.00
185.30
209.45
236.87
266.72
296.54
322.28
339.17
343.46
333.86
312.45
283.72
252.80
223.58
197.92
175.66
155.73
137.24
119.95
104.07
89.73
76.35
62.85
48.23
31.83
13.87
-4.62
-22.21
-37.62
-50.15
-59.98
-67.79
-74.35
-80.19
-85.42
-89.83
-93.34
-96.65
-101.03
-107.98
-118.08
-130.16
-141.42
-148.38
-148.36
-140.85
-127.43
-110.86
-93.65
-76.95
-60.60
-44.06
-27.31
-10.91
4.32
18.42
32.30
47.01
62.63
77.74
89.97
97.23
99.18
97.18
93.77
91.09
89.99
89.75
88.93
86.38
81.65
75.11
67.31
58.64
48.98
37.94
25.13
10.61
-4.91
-20.29
-34.32
-46.34
-56.37
-65.11
-73.67
-82.74
-92.24
-101.12
-107.79
-110.73
-109.46
-104.58
-97.51
-89.95
-83.13
-77.55
-73.12
-69.53
-66.46
-64.06
-62.67
-62.48
-63.25
-64.37
-65.07
-64.89
-63.79
-61.99
-59.77
-57.23
-54.08
-49.84
-44.15
-37.06
-29.27
-21.78
-15.60
-11.39
-9.43
-9.46
-11.06
-13.64
-16.64
-19.64
-22.28
-24.33
-25.57
-25.82
-24.83
-22.28
-17.88
-11.46
-3.12
6.66
17.05
27.01
35.58
42.14
46.50
48.88
49.85
50.01
49.87
49.78
49.76
49.89
50.24
50.95
52.14
53.80
55.65
57.20
57.98
57.53
55.84
53.23
50.30
47.63
45.58
44.17
43.09
42.08
40.95
39.74
38.59
37.82
37.60
37.95
38.67
39.36
39.61
39.08
37.58
35.07
31.58
27.29
22.43
17.35
12.62
8.85
6.70
6.53
8.34
11.63
15.69
19.74
23.12
25.42
26.44
26.31
25.29
23.80
22.22
20.84
19.75
18.85
17.97
16.89
15.47
13.56
11.06
7.89
4.06
-0.35
-5.09
-9.82
-14.23
-18.10
-21.48
-24.54
-27.54
-30.59
-33.65
-36.51
-38.91
-40.69
-41.72
-41.90
-41.05
-38.88
-35.12
-29.66
-22.71
-14.77
-6.45
1.73
9.42
16.50
22.85
28.20
32.16
34.30
34.40
32.63
29.55
25.99
22.70
20.17
18.46
17.31
16.32
15.18
13.81
12.28
10.80
9.50
8.44
7.50
6.43
4.93
2.69
-0.43
-4.33
-8.67
-12.98
-16.83
-20.03
-22.67
-25.06
-27.57
-30.47
-33.80
-37.36
-40.73
-43.31
-44.41
-43.39
-39.86
-33.84
-25.79
-16.57
-7.12
1.74
9.51
15.97
21.09
24.86
27.24
28.24
27.87
26.34
23.97
21.13
18.20
15.48
13.17
11.32
9.85
8.59
7.44
6.40
5.67
5.51
6.06
7.25
8.74
10.12
11.07
11.51
11.62
11.68
11.84
11.99
11.82
10.82
8.57
4.82
-0.30
-6.45
-12.98
-19.20
-24.37
-27.83
-29.03
-27.62
-23.58
-17.31
-9.61
-1.45
6.27
13.07
18.88
23.88
28.25
31.86
34.39
35.40
34.75
32.68
29.76
26.65
23.82
21.49
19.57
17.84
16.08
14.17
12.12
10.07
8.17
6.52
5.11
3.74
2.20
0.30
-2.00
-4.62
-7.39
-10.18
-13.01
-15.92
-18.98
-22.13
-25.20
-28.01
-30.48
-32.66
-34.67
-36.58
-38.23
-39.23
-39.05
-37.22
-33.50
-27.97
-20.96
-12.98
-4.57
3.77
11.57
18.44
24.05
28.14
30.59
31.42
30.83
29.15
26.79
24.15
21.55
19.11
16.87
14.73
12.62
10.56
8.61
6.87
5.35
3.99
2.70
1.44
0.18
-1.12
-2.53
-4.22
-6.32
-8.86
-11.73
-14.72
-17.60
-20.24
-22.65
-24.90
-27.12
-29.38
-31.70
-34.06
-36.37
-38.45
-39.96
-40.45
-39.51
-36.89
-32.61
-26.92
-20.17
-12.74
-5.00
2.73
10.10
16.70
22.20
26.36
29.10
30.50
30.74
29.94
28.18
25.59
22.37
18.84
15.43
12.49
10.24
8.68
7.65
6.85
6.06
5.19
4.26
3.40
2.66
1.96
1.12
-0.12
-1.93
-4.32
-7.12
-10.09
-13.00
-15.79
-18.47
-21.13
-23.75
-26.27
-28.58
-30.66
-32.54
-34.26
-35.72
-36.62
-36.47
-34.83
-31.47
-26.50
-20.31
-13.38
-6.14
1.11
8.15
14.78
20.72
25.64
29.24
31.33
31.95
31.38
29.97
28.08
25.94
23.62
21.12
18.44
15.65
12.95
10.55
8.67
7.33
6.45
5.81
5.17
4.32
3.12
1.57
-0.28
-2.32
-4.48
-6.70
-8.97
-11.27
-13.47
-15.43
-16.99
-18.06
-18.79
-19.54
-20.80
-22.99
-26.16
-29.89
-33.34
-35.48
-35.49
-33.03
-28.36
-22.10
-15.05
-7.77
-0.62
6.24
12.65
18.32
22.88
26.03
27.70
28.05
27.45
26.29
24.84
23.21
21.38
19.30
17.01
14.68
12.48
10.62
9.20
8.18
7.43
6.73
5.89
4.79
3.40
1.74
-0.15
-2.20
-4.36
-6.56
-8.75
-10.92
-13.10
-15.33
-17.61
-19.91
-22.15
-24.26
-26.31
-28.43
-30.78
-33.32
-35.75
-37.49
-37.89
-36.40
-32.78
-27.19
-20.10
-12.19
-4.14
3.46
10.21
15.93
20.58
24.17
26.71
28.15
28.43
27.57
25.69
23.10
20.17
17.30
14.75
12.60
10.79
9.16
7.54
5.81
4.00
2.19
0.47
-1.13
-2.67
-4.21
-5.86
-7.64
-9.47
-11.25
-12.98
-14.71
-16.52
-18.41
-20.28
-22.06
-23.71
-25.19
-26.54
-27.86
-29.30
-30.86
-32.35
-33.29
-33.19
-31.69
-28.60
-24.23
-19.34
-14.92
-11.64
-9.64
-8.57
-7.95
-7.61
-7.22
-6.92
-7.37
-9.55
-14.11
-20.81
-28.69
-36.55
-43.48
-47.94
-49.30
-48.56
-48.08
-50.38
-56.59
-65.98
-76.18
-83.78
-83.11
-69.69
-42.63
-5.71
34.07
69.55
95.83
111.78
119.92
127.92
143.20
169.29
204.55
244.40
284.48
322.08
355.75
366.85
341.92
280.96
200.04
120.23
55.42
9.38
-21.19
-42.51
-60.44
-75.87
-87.55
-94.83
-99.22
-103.32
-108.66
-114.99
-120.88
-124.94
-124.57
-118.48
-107.67
-95.20
-84.40
-77.11
-73.42
-72.34
-72.52
-71.60
-67.93
-61.53
-53.97
-47.34
-42.89
-40.64
-39.74
-39.21
-37.78
-34.88
-30.93
-27.10
-24.50
-23.49
-23.52
-23.58
-22.87
-20.99
-18.17
-15.24
-13.28
-12.99
-14.46
-17.13
-19.83
-21.05
-19.19
-13.05
-2.39
11.52
25.88
37.16
42.36
40.52
33.10
23.54
15.55
11.78
12.96
17.78
23.95
29.37
32.92
34.55
34.80
34.01
31.90
27.83
21.22
12.30
2.53
-5.86
-10.74
-11.09
-7.59
-2.39
1.84
2.98
0.21
-5.90
-13.85
-21.83
-28.15
-31.52
-31.32
-27.65
-21.39
-14.10
-7.43
-2.95
-1.67
-3.77
-8.56
-14.59
-20.13
-23.59
-24.06
-21.42
-16.92
-12.56
-10.19
-10.66
-13.51
-17.36
-20.74
-22.82
-23.14
-22.38
-21.60
-21.89
-24.09
-28.55
-34.76
-40.80
-43.49
-38.85
-24.93
-3.22
21.31
42.13
53.90
54.83
47.41
32.75
15.67
0.66
-9.98
-16.39
-19.94
-21.76
-21.97
-19.97
-15.24
-7.45
2.29
12.17
20.64
27.29
33.14
39.85
48.68
59.46
70.78
79.86
84.02
82.16
75.45
66.83
59.62
55.97
56.04
58.48
60.93
61.30
58.73
53.97
48.85
45.45
45.26
48.55
54.39
60.80
65.46
66.56
63.51
57.24
50.00
44.68
43.89
49.15
60.13
74.38
87.36
93.45
87.70
67.95
36.26
-1.12
-35.64
-59.56
-68.77
-63.86
-49.09
-29.87
-10.36
7.53
23.45
37.15
47.52
52.73
51.58
44.66
34.58
24.88
18.43
16.21
17.04
18.48
18.06
14.42
7.58
-1.48
-11.71
-22.59
-34.30
-47.41
-62.34
-78.88
-96.06
-112.40
-126.37
-136.84
-143.41
-146.39
-146.74
-145.65
-144.13
-142.71
-141.41
-139.89
-137.84
-135.31
-132.72
-130.64
-129.26
-128.11
-126.01
-121.55
-113.75
-102.48
-88.61
-73.51
-58.51
-44.39
-31.33
-19.21
-8.08
1.62
9.12
13.76
15.41
14.69
12.91
11.66
12.29
15.49
21.04
27.85
34.35
39.13
41.37
41.08
38.98
35.91
32.46
28.63
24.05
18.30
11.35
3.67
-3.89
-10.55
-15.87
-19.90
-23.05
-25.96
-29.19
-33.12
-37.73
-42.54
-46.56
-48.55
-47.30
-42.14
-33.24
-21.52
-8.39
4.75
16.91
27.55
36.48
43.59
48.62
51.25
51.26
48.68
43.98
37.93
31.42
25.26
20.03
16.04
13.40
11.95
11.38
11.19
10.83
9.78
7.73
4.71
0.96
-3.12
-7.22
-11.20
-15.07
-18.77
-22.14
-24.79
-26.47
-27.28
-27.72
-28.58
-30.50
-33.52
-36.88
-39.18
-38.84
-34.69
-26.41
-14.57
-0.38
14.70
29.25
42.18
52.64
60.17
64.57
65.91
64.59
61.15
56.28
50.55
44.49
38.41
32.62
27.37
22.89
19.42
17.13
16.17
16.60
18.31
20.95
23.83
26.08
26.86
25.64
22.30
17.26
11.17
4.74
-1.62
-7.83
-14.05
-20.55
-27.47
-34.64
-41.49
-47.10
-50.38
-50.35
-46.39
-38.40
-26.82
-12.42
3.71
20.41
36.41
50.42
61.33
68.39
71.36
70.52
66.52
60.15
52.23
43.63
35.22
27.85
22.15
18.38
16.33
15.50
15.36
15.56
16.02
16.68
17.32
17.43
16.42
13.84
9.58
4.02
-2.25
-8.63
-14.80
-20.75
-26.73
-33.03
-39.76
-46.74
-53.45
-59.10
-62.79
-63.64
-60.98
-54.44
-44.13
-30.54
-14.64
2.31
18.94
33.88
46.13
55.08
60.58
62.87
62.47
60.09
56.46
52.24
47.90
43.65
39.54
35.51
31.55
27.81
24.52
21.88
19.90
18.35
16.80
14.83
12.12
8.50
3.97
-1.35
-7.27
-13.59
-20.06
-26.46
-32.69
-38.78
-44.87
-51.07
-57.31
-63.10
-67.57
-69.65
-68.30
-62.97
-53.70
-41.16
-26.42
-10.73
4.78
19.16
31.65
41.72
49.01
53.45
55.22
54.78
52.65
49.33
45.23
40.67
35.91
31.19
26.71
22.63
19.09
16.11
13.72
11.77
9.99
8.00
5.40
2.00
-2.18
-6.85
-11.59
-16.03
-20.00
-23.49
-26.62
-29.58
-32.59
-35.91
-39.79
-44.22
-48.79
-52.55
-54.22
-52.48
-46.53
-36.35
-22.82
-7.43
8.19
22.67
35.13
45.22
52.85
58.01
60.62
60.63
58.14
53.61
47.83
41.69
36.02
31.24
27.37
24.14
21.20
18.39
15.77
13.53
11.81
10.48
9.17
7.37
4.69
0.98
-3.63
-8.88
-14.57
-20.61
-26.98
-33.58
-40.10
-46.10
-51.20
-55.26
-58.37
-60.61
-61.80
-61.28
-58.13
-51.46
-40.97
-27.19
-11.41
4.69
19.57
32.23
42.23
49.54
54.26
56.40
55.91
52.84
47.54
40.73
33.34
26.21
19.83
14.31
9.51
5.32
1.83
-0.71
-2.20
-2.84
-3.16
-3.85
-5.35
-7.68
-10.49
-13.30
-15.84
-18.17
-20.54
-23.14
-25.99
-28.93
-31.88
-34.98
-38.56
-42.82
-47.57
-51.94
-54.65
-54.32
-50.02
-41.57
-29.63
-15.39
-0.23
14.53
27.84
38.85
46.95
51.80
53.33
51.83
47.93
42.52
36.46
30.51
25.13
20.50
16.59
13.30
10.58
8.47
7.03
6.26
6.00
5.89
5.42
4.22
2.08
-0.91
-4.46
-8.25
-12.05
-15.71
-19.19
-22.58
-25.99
-29.64
-33.74
-38.39
-43.34
-47.96
-51.28
-52.25
-50.03
-44.31
-35.32
-23.77
-10.63
3.11
16.49
28.72
39.06
46.85
51.65
53.19
51.62
47.42
41.42
34.56
27.67
21.35
15.88
11.32
7.66
4.89
3.03
2.04
1.77
1.90
2.08
1.97
1.35
0.09
-1.85
-4.47
-7.71
-11.48
-15.59
-19.82
-24.00
-28.13
-32.44
-37.21
-42.61
-48.38
-53.77
-57.56
-58.44
-55.48
-48.40
-37.64
-24.23
-9.42
5.54
19.57
31.86
41.77
48.86
52.93
54.03
52.47
48.81
43.70
37.80
31.70
25.83
20.53
16.03
12.48
9.97
8.46
7.79
7.64
7.59
7.25
6.32
4.62
2.08
-1.25
-5.27
-9.78
-14.51
-19.17
-23.56
-27.68
-31.75
-36.05
-40.79
-45.84
-50.68
-54.44
-56.09
-54.73
-49.80
-41.23
-29.47
-15.45
-0.39
14.39
27.65
38.42
46.05
50.29
51.26
49.39
45.33
39.82
33.60
27.22
21.08
15.43
10.42
6.42
3.63
1.87
0.80
0.07
-0.69
-1.83
-3.71
-6.55
-10.08
-13.97
-18.10
-22.51
-27.17
-32.10
-37.27
-42.61
-48.04
-52.92
-57.16
-61.48
-66.66
-72.59
-78.26
-82.08
-82.60
-79.06
-69.89
-55.47
-38.72
-23.25
-11.26
-3.43
0.35
0.54
-2.36
-4.30
-3.35
-1.71
-2.77
-7.54
-14.86
-22.99
-30.77
-38.21
-40.48
-36.20
-29.42
-24.64
-20.96
-13.59
2.83
31.85
74.51
137.64
222.70
321.65
421.57
511.57
582.08
624.78
634.02
563.35
409.22
221.29
57.78
-57.67
-130.08
-174.62
-203.99
-225.17
-240.98
-244.49
-233.31
-214.66
-203.52
-202.99
-211.40
-223.91
-234.61
-239.05
-228.92
-202.14
-166.04
-131.49
-104.73
-87.49
-78.45
-71.19
-63.02
-49.05
-27.93
-3.81
17.11
31.43
37.89
36.44
27.90
13.58
-1.58
-12.78
-17.74
-16.15
-7.50
8.52
31.05
59.38
87.33
107.35
115.19
111.57
100.40
86.46
73.02
60.90
46.65
27.29
2.45
-25.99
-55.17
-82.54
-107.00
-126.20
-140.66
-151.88
-160.97
-167.26
-168.66
-162.69
-147.22
-120.82
-78.29
-23.72
31.19
73.70
97.36
102.92
95.17
80.83
66.60
57.11
52.35
52.13
53.08
53.88
55.03
57.09
59.94
62.29
62.04
56.62
46.09
33.89
22.12
15.09
14.81
19.82
26.25
29.91
28.16
22.04
15.23
11.81
13.90
19.95
26.20
28.98
26.56
19.49
10.26
1.76
-3.74
-4.87
-1.68
5.08
14.04
23.17
29.78
31.13
25.32
12.20
-6.39
-27.45
-47.81
-65.11
-78.38
-87.99
-95.25
-101.75
-108.44
-115.28
-121.77
-127.44
-132.28
-136.96
-142.42
-149.43
-157.91
-166.79
-174.32
-178.93
-179.79
-177.15
-171.87
-164.85
-156.65
-147.33
-136.76
-124.84
-111.58
-96.48
-78.19
-54.46
-22.47
20.07
74.04
138.49
210.70
286.25
359.75
425.44
477.73
512.62
528.64
527.31
512.87
491.14
467.17
443.94
421.80
399.35
375.17
349.21
323.07
299.18
279.52
264.40
252.67
242.74
233.83
226.70
222.42
220.85
219.80
215.49
204.59
186.43
163.90
141.87
125.19
116.00
112.88
112.68
112.03
108.93
103.17
95.20
84.77
71.44
54.96
36.05
16.78
-0.37
-13.92
-24.10
-32.88
-43.15
-56.89
-74.44
-94.39
-114.33
-131.94
-146.00
-156.71
-165.72
-175.22
-186.68
-200.32
-214.84
-227.64
-236.05
-238.28
-234.09
-225.46
-216.09
-210.01
-210.36
-217.91
-231.13
-245.87
-256.61
-258.59
-250.28
-233.57
-212.62
-191.91
-174.42
-161.60
-152.79
-146.04
-139.62
-133.20
-127.77
-124.50
-123.85
-125.13
-128.73
-134.18
-139.65
-143.49
-145.60
-147.09
-149.05
-151.67
-154.20
-160.23
-170.54
-181.21
-187.30
-187.27
-182.98
-177.30
-172.24
-168.44
-175.89
-198.12
-228.11
-255.54
-275.53
-288.44
-295.90
-298.58
-296.08
-304.86
-332.76
-371.00
-403.96
-422.77
-426.09
-416.27
-397.53
-375.62
-378.89
-422.77
-497.75
-582.60
-663.69
-737.30
-804.00
-864.38
-779.36
-510.33
-149.63
177.79
416.01
567.85
655.39
700.85
721.38
728.22
705.85
647.92
570.63
500.23
453.14
431.84
429.60
435.63
439.35
421.13
376.32
321.50
279.10
258.96
256.63
261.65
265.57
266.04
256.07
236.78
217.04
204.15
197.12
190.75
182.69
175.34
173.27
174.11
173.87
170.30
162.66
151.74
137.79
123.28
111.24
103.74
99.03
94.29
88.01
80.36
72.44
65.55
61.06
59.70
61.46
66.07
72.97
81.54
90.78
99.33
105.46
107.98
106.64
102.08
96.48
92.17
90.37
90.20
88.92
83.18
71.18
53.85
34.65
18.04
7.43
3.86
5.75
10.24
14.69
18.07
20.70
22.89
23.73
20.99
12.38
-2.48
-20.52
-36.04
-43.23
-39.08
-24.85
-4.92
16.14
35.95
54.73
73.73
92.64
108.16
114.99
108.57
88.02
56.81
21.13
-12.98
-42.11
-66.37
-88.39
-111.32
-137.76
-168.87
-204.51
-243.20
-281.81
-315.48
-338.64
-346.56
-337.04
-311.98
-276.97
-239.40
-206.01
-180.57
-163.12
-150.81
-139.56
-125.61
-106.91
-83.24
-56.04
-27.99
-2.52
16.83
27.13
26.92
16.68
-1.15
-22.70
-43.89
-61.49
-73.89
-81.14
-84.30
-84.67
-83.23
-80.51
-76.46
-70.67
-62.26
-50.10
-33.38
-12.33
11.15
33.58
50.63
58.76
56.61
45.81
30.33
14.95
3.63
-1.50
-0.32
5.99
15.72
27.06
38.37
48.22
55.43
59.39
60.12
58.24
54.67
50.36
45.89
41.47
37.12
32.83
28.87
25.65
23.73
23.59
25.56
29.65
35.40
41.88
47.72
51.55
52.32
49.77
44.47
37.57
30.31
23.51
17.28
11.13
4.40
-3.33
-12.03
-21.25
-30.40
-38.73
-45.40
-49.59
-50.86
-49.61
-47.20
-45.53
-46.20
-49.73
-55.37
-61.54
-66.64
-69.51
-69.56
-66.48
-60.19
-51.08
-40.42
-30.24
-22.73
-18.93
-18.10
-17.83
-15.26
-8.62
1.81
14.05
25.15
32.54
34.80
31.85
24.74
15.31
5.69
-2.27
-7.44
-9.61
-9.36
-7.55
-4.84
-1.48
2.48
6.89
11.17
14.43
15.71
14.22
9.59
1.93
-8.02
-18.68
-27.72
-32.55
-31.11
-22.88
-9.08
7.76
24.85
40.10
52.42
61.53
67.34
69.80
69.12
66.06
62.10
59.12
58.72
61.71
67.74
75.42
82.80
87.98
89.54
86.99
80.74
72.03
62.37
53.06
44.75
37.54
31.23
25.79
21.54
18.89
18.03
18.65
19.97
21.05
21.10
19.47
15.61
9.09
-0.19
-11.68
-23.78
-34.03
-39.93
-40.00
-34.59
-26.03
-17.59
-12.23
-11.33
-14.30
-19.29
-24.20
-27.59
-28.72
-27.17
-22.24
-13.08
0.62
17.72
35.30
49.21
55.66
52.72
41.11
23.79
4.64
-13.00
-27.10
-36.90
-42.30
-43.34
-40.14
-33.29
-24.25
-15.32
-9.22
-8.15
-13.12
-23.53
-37.51
-52.52
-66.17
-76.70
-82.99
-84.12
-79.12
-66.94
-46.97
-19.81
12.19
45.01
73.76
93.96
102.73
99.59
86.54
67.33
46.34
27.48
13.29
4.73
1.40
2.01
4.91
8.52
11.46
12.70
11.68
8.46
3.82
-0.90
-4.31
-5.73
-5.60
-5.48
-7.39
-12.83
-22.04
-33.81
-45.94
-56.22
-63.33
-67.28
-69.25
-70.75
-72.64
-74.62
-75.26
-72.74
-65.73
-53.99
-38.31
-19.97
-0.16
20.28
40.61
59.77
76.17
87.94
93.78
93.67
89.09
82.61
76.93
73.89
74.06
76.87
81.15
85.65
89.34
91.29
90.47
85.59
75.13
57.80
33.16
2.24
-32.21
-66.16
-95.42
-116.85
-129.32
-133.86
-132.90
-129.17
-124.58
-119.87
-114.72
-108.45
-100.48
-90.70
-79.45
-67.19
-54.20
-40.54
-26.15
-11.12
4.09
18.63
31.48
41.88
49.64
55.18
59.19
62.13
63.94
64.16
62.41
58.87
54.49
50.65
48.46
48.12
48.85
49.24
47.91
44.20
38.37
31.52
25.01
19.89
16.42
14.02
11.56
7.87
2.29
-5.18
-13.95
-23.39
-33.04
-42.69
-52.03
-60.24
-66.07
-68.11
-65.42
-57.86
-46.10
-31.25
-14.48
3.11
20.34
35.91
48.47
56.92
60.88
60.79
57.83
53.55
49.51
47.03
46.86
48.96
52.33
55.19
55.70
52.78
46.83
39.50
32.98
28.85
27.40
27.66
28.01
27.02
23.89
18.60
11.70
3.99
-3.68
-10.67
-16.65
-21.78
-26.63
-31.90
-37.85
-44.04
-49.34
-52.40
-52.36
-49.17
-43.60
-36.71
-29.37
-21.97
-14.46
-6.51
2.11
11.37
20.89
29.97
37.75
43.59
47.23
49.06
49.96
51.00
52.81
55.29
57.53
58.33
56.78
52.72
46.70
39.63
32.22
24.84
17.58
10.64
4.44
-0.42
-3.57
-5.19
-6.06
-7.28
-9.76
-13.71
-18.63
-23.58
-27.83
-31.28
-34.47
-38.13
-42.51
-46.93
-49.81
-49.37
-44.49
-35.33
-23.47
-11.13
-0.18
8.63
15.62
21.38
26.17
29.66
31.21
30.39
27.60
24.09
21.42
20.67
21.52
22.55
21.96
18.54
12.24
4.21
-3.57
-9.25
-11.91
-12.46
-12.77
-14.62
-18.96
-25.90
-34.90
-44.54
-52.98
-58.44
-60.86
-60.96
-59.57
-57.67
-56.73
-58.45
-62.70
-67.08
-67.75
-63.25
-53.58
-39.57
-22.89
-6.28
7.46
19.02
33.53
58.94
98.64
151.70
212.31
269.67
309.57
318.38
290.06
228.51
145.39
50.63
-46.92
-139.27
-209.15
-235.11
-215.02
-169.87
-135.55
-117.61
-115.80
-127.93
-144.65
-158.56
-165.53
-166.02
-161.92
-154.24
-142.17
-128.58
-116.36
-107.14
-102.25
-103.36
-112.41
-128.59
-147.42
-161.73
-167.78
-163.87
-149.94
-128.27
-102.97
-78.86
-58.54
-41.26
-23.75
-4.75
15.33
34.73
50.61
60.39
62.82
58.97
51.88
45.16
40.43
37.76
36.38
35.31
34.14
33.34
34.28
38.66
47.65
60.63
75.50
89.38
99.49
104.16
103.34
98.47
91.77
85.42
80.78
78.24
77.29
77.02
76.40
74.57
70.98
65.50
58.59
51.31
45.12
41.49
41.54
45.56
53.01
62.59
72.59
81.31
87.45
90.37
90.19
87.56
83.41
78.56
73.52
68.42
63.40
58.81
55.41
54.11
55.38
58.74
62.66
64.99
64.01
59.20
51.48
42.64
34.45
27.66
21.85
16.00
9.24
1.64
-5.95
-12.46
-17.49
-21.60
-26.12
-32.42
-41.09
-51.66
-62.71
-72.39
-79.12
-81.97
-80.66
-75.49
-66.90
-55.35
-41.33
-25.57
-9.27
5.98
18.48
27.02
31.32
32.17
31.06
29.54
28.63
28.68
29.61
31.37
34.25
38.83
45.44
53.76
62.72
70.83
76.82
80.21
81.37
81.13
80.20
78.67
76.10
71.78
65.28
56.67
46.47
35.21
22.99
9.35
-6.56
-25.36
-46.94
-70.08
-92.67
-112.23
-126.76
-135.25
-137.79
-135.19
-128.37
-117.86
-103.74
-86.12
-65.71
-44.17
-23.73
-6.45
6.67
15.96
22.81
28.91
35.50
42.92
50.84
58.66
66.04
72.93
79.38
85.20
89.68
91.76
90.47
85.53
77.57
67.95
58.22
49.49
42.07
35.54
29.23
22.82
16.44
10.36
4.63
-1.21
-8.13
-17.34
-29.88
-45.93
-65.10
-85.40
-103.24
-114.28
-114.78
-102.71
-78.24
-43.56
-2.18
41.72
85.08
126.80
167.38
207.82
248.67
289.79
330.21
368.13
399.62
420.71
428.61
422.13
401.60
369.09
328.59
284.97
242.48
199.89
155.52
109.87
65.72
26.23
-6.20
-29.89
-44.51
-51.51
-61.61
-83.12
-116.82
-157.43
-199.27
-238.82
-274.24
-304.78
-330.76
-365.40
-416.90
-481.58
-547.34
-603.71
-645.90
-673.67
-689.00
-694.97
-710.69
-748.27
-804.51
-865.96
-921.77
-968.69
-1008.90
-1046.50
-986.07
-791.05
-508.13
-226.15
-2.49
152.05
250.35
310.69
350.49
384.91
409.99
423.29
430.41
440.17
454.76
469.56
479.27
482.78
483.14
472.30
445.99
409.02
372.30
344.14
326.78
317.67
311.31
301.44
275.55
228.46
166.59
104.16
53.78
21.24
5.61
1.93
4.57
5.26
-0.32
-11.40
-24.33
-36.39
-46.71
-55.23
-63.00
-67.87
-69.95
-69.26
-65.63
-58.86
-49.29
-37.93
-25.73
-13.33
-0.69
12.04
24.73
36.93
48.08
57.68
65.42
71.14
74.90
77.23
78.63
79.57
80.36
81.19
82.17
83.29
84.09
83.94
82.59
80.01
76.49
72.52
68.65
65.38
63.22
61.62
59.66
56.67
52.02
45.04
34.70
20.03
0.58
-23.31
-47.96
-69.73
-85.27
-92.92
-93.70
-91.58
-91.83
-99.09
-108.20
-114.90
-116.74
-114.06
-108.88
-103.17
-98.49
-95.39
-93.87
-93.75
-96.01
-101.35
-109.06
-116.67
-120.52
-117.95
-108.38
-93.63
-77.41
-64.62
-58.26
-58.11
-62.24
-64.32
-58.94
-42.72
-15.11
21.33
60.56
95.38
118.54
125.98
119.83
106.38
93.22
85.83
85.49
89.30
93.19
94.23
91.98
87.95
83.48
79.29
75.64
73.20
73.26
77.67
87.18
100.91
116.37
130.14
139.37
142.77
141.87
136.37
126.71
112.94
94.95
73.02
47.83
20.87
-5.92
-30.67
-52.19
-69.48
-82.31
-90.60
-94.23
-93.30
-88.20
-79.87
-69.84
-60.05
-51.95
-46.34
-43.02
-41.06
-39.49
-37.71
-35.65
-33.57
-32.12
-31.62
-32.41
-34.26
-36.64
-39.24
-42.07
-45.37
-49.39
-54.41
-59.70
-64.84
-69.07
-71.22
-70.80
-68.01
-63.27
-56.82
-48.64
-38.69
-27.43
-14.89
-0.56
15.16
31.12
46.31
60.70
75.19
91.06
108.95
129.79
154.19
179.86
201.97
214.66
213.41
196.13
163.30
116.53
51.67
-27.34
-110.83
-189.26
-258.04
-316.52
-364.87
-402.89
-436.86
-466.39
-490.03
-508.03
-522.47
-535.89
-550.49
-568.29
-584.91
-599.25
-608.77
-609.30
-596.42
-566.78
-518.93
-453.91
-375.17
-287.69
-197.43
-108.11
-21.94
59.05
132.22
194.37
242.86
276.39
295.45
301.34
296.91
285.15
268.50
248.47
226.04
202.46
179.10
158.23
141.27
129.01
121.02
115.98
112.25
108.45
103.80
98.08
92.40
87.79
84.90
83.65
83.60
84.26
85.32
86.75
88.63
92.69
100.14
110.67
122.53
133.55
142.07
147.10
148.28
145.52
143.49
145.71
152.28
159.92
164.85
165.16
161.04
153.84
145.13
145.63
162.91
196.77
239.52
281.88
318.08
346.56
368.07
384.04
410.78
459.88
530.89
611.62
687.74
750.78
799.23
835.24
862.10
902.44
972.49
1072.80
1188.52
1301.78
1402.40
1488.75
1563.70
1508.96
1263.50
854.14
384.35
-43.34
-378.97
-619.12
-782.16
-890.82
-964.45
-996.92
-983.67
-931.52
-860.47
-786.68
-724.49
-679.27
-651.00
-637.91
-621.79
-590.12
-542.53
-491.31
-460.56
-455.74
-472.42
-502.71
-539.07
-562.43
-563.36
-540.77
-502.60
-458.97
-415.28
-373.31
-332.69
-292.30
-242.64
-179.76
-105.26
-26.83
46.58
109.57
159.32
194.94
199.79
169.06
109.17
35.43
-38.19
-103.91
-158.74
-203.13
-236.60
-263.19
-282.35
-293.76
-298.10
-297.60
-294.52
-289.69
-284.16
-278.16
-271.89
-262.89
-249.80
-232.76
-213.47
-194.06
-175.93
-159.81
-145.78
-133.87
-122.24
-109.71
-96.15
-82.37
-69.55
-58.53
-49.57
-42.42
-36.78
-31.35
-25.18
-18.05
-10.38
-2.86
3.97
9.95
15.38
20.80
27.23
35.39
45.49
56.97
68.96
80.52
91.02
100.37
109.04
117.88
127.69
138.89
151.41
164.79
178.39
191.86
205.23
218.90
233.54
249.91
268.80
290.79
315.87
342.65
368.15
388.10
397.97
394.76
378.11
350.59
316.68
281.15
247.45
217.15
190.36
166.51
145.30
126.80
111.16
98.14
86.96
76.56
66.12
55.47
44.97
35.45
27.59
21.63
17.26
13.66
9.92
5.30
-0.38
-6.93
-13.79
-20.42
-26.48
-31.85
-36.66
-41.07
-45.09
-48.49
-50.91
-51.92
-51.27
-49.02
-45.52
-41.34
-37.13
-33.46
-30.69
-28.98
-28.29
-28.49
-29.37
-30.72
-32.27
-33.80
-35.15
-36.16
-36.74
-36.79
-36.25
-35.11
-33.38
-31.04
-28.12
-24.64
-20.63
-16.11
-11.08
-5.67
0.02
5.75
11.23
16.13
20.13
22.93
24.28
24.00
21.90
18.04
12.46
5.37
-2.91
-12.00
-21.39
-30.59
-39.09
-46.45
-52.17
-55.99
-57.87
-57.90
-56.39
-53.67
-50.09
-45.85
-41.18
-36.20
-31.15
-26.36
-22.05
-18.45
-15.63
-13.59
-12.14
-11.16
-10.49
-10.03
-9.65
-9.17
-8.49
-7.42
-5.85
-3.67
-0.93
2.33
5.95
9.75
13.60
17.23
20.41
22.94
24.59
25.18
24.64
22.92
20.03
16.15
11.39
6.03
0.36
-5.33
-10.80
-15.76
-19.97
-23.29
-25.58
-26.83
-27.03
-26.25
-24.63
-22.39
-19.68
-16.67
-13.53
-10.42
-7.49
-4.83
-2.53
-0.65
0.75
1.65
2.00
1.85
1.24
0.30
-0.79
-1.90
-2.83
-3.43
-3.59
-3.23
-2.30
-0.83
1.06
3.14
5.14
6.75
7.66
7.66
6.58
4.42
1.32
-2.52
-6.84
-11.29
-15.49
-19.05
-21.67
-23.11
-23.29
-22.29
-20.29
-17.57
-14.42
-11.10
-7.85
-4.94
-2.60
-1.05
-0.35
-0.47
-1.26
-2.50
-3.99
-5.56
-7.04
-8.29
-9.21
-9.70
-9.76
-9.43
-8.78
-7.87
-6.77
-5.43
-3.78
-1.69
0.95
4.19
7.96
12.07
16.20
19.92
22.80
24.43
24.49
22.78
19.30
14.23
7.92
0.81
-6.57
-13.61
-19.76
-24.61
-27.91
-29.64
-29.97
-29.19
-27.51
-25.09
-22.05
-18.47
-14.56
-10.54
-6.73
-3.35
-0.61
1.43
2.80
3.56
3.78
3.57
3.01
2.22
1.34
0.49
-0.22
-0.69
-0.90
-0.84
-0.45
0.29
1.45
3.01
4.97
7.22
9.62
12.00
14.18
16.02
17.31
17.87
17.53
16.20
13.86
10.59
6.55
1.97
-2.86
-7.63
-12.02
-15.71
-18.45
-20.16
-20.87
-20.84
-20.33
-19.57
-18.75
-17.98
-17.36
-16.99
-16.90
-17.07
-17.42
-17.77
-17.94
-17.79
-17.32
-16.47
-15.33
-13.97
-12.47
-10.97
-9.57
-8.37
-7.35
-6.44
-5.49
-4.36
-2.90
-0.97
1.49
4.49
7.91
11.56
15.20
18.55
21.21
22.91
23.38
22.45
20.10
16.39
11.54
5.90
-0.07
-5.94
-11.20
-15.47
-18.59
-20.45
-21.11
-20.77
-19.66
-18.08
-16.31
-14.67
-13.36
-12.54
-12.20
-12.25
-12.56
-12.96
-13.23
-13.23
-12.86
-12.11
-11.06
-9.79
-8.48
-7.28
-6.31
-5.56
-5.04
-4.58
-4.03
-3.18
-1.80
0.21
2.88
6.17
9.91
13.79
17.45
20.54
22.70
23.75
23.57
22.11
19.58
16.18
12.14
7.80
3.44
-0.74
-4.53
-7.78
-10.48
-12.56
-14.10
-15.17
-15.83
-16.14
-16.20
-16.04
-15.66
-15.06
-14.17
-12.97
-11.44
-9.53
-7.26
-4.77
-2.13
0.52
3.03
5.30
7.24
8.81
10.13
11.26
12.33
13.53
15.00
16.81
18.99
21.48
24.08
26.59
28.71
30.09
30.50
29.73
27.66
24.34
19.95
14.82
9.33
4.02
-0.67
-4.28
-6.44
-6.94
-5.74
-2.93
1.23
6.35
11.99
17.65
22.83
27.13
30.20
31.80
31.88
30.47
27.77
24.07
19.72
15.10
10.60
6.48
3.01
0.36
-1.45
-2.42
-2.60
-2.12
-1.07
0.50
2.46
4.75
7.30
9.92
12.45
14.66
16.26
16.92
16.43
14.55
11.14
6.21
-0.14
-7.63
-15.80
-24.09
-31.90
-38.59
-43.65
-46.67
-47.36
-45.66
-41.64
-35.59
-27.98
-19.37
-10.42
-1.82
5.83
11.99
16.19
18.18
17.82
15.21
10.60
4.43
-2.77
-10.29
-17.38
-23.38
-27.70
-29.98
-30.09
-28.10
-24.29
-19.06
-12.88
-6.23
0.34
6.36
11.23
14.42
15.58
14.50
11.17
5.92
-0.76
-8.30
-15.99
-23.20
-29.46
-34.34
-37.75
-39.85
-40.62
-40.02
-38.00
-34.64
-30.23
-25.28
-20.39
-16.32
-13.79
-12.61
-12.16
-11.58
-10.33
-8.45
-6.44
-5.11
-5.45
-8.37
-13.33
-19.06
-24.03
-27.14
-28.07
-26.94
-24.01
-19.70
-14.44
-7.32
2.65
16.25
33.77
55.43
82.22
115.79
157.37
197.76
225.64
231.50
213.23
176.42
130.24
83.44
41.94
7.91
-19.94
-43.52
-64.56
-84.04
-102.18
-118.95
-133.87
-146.25
-155.38
-160.29
-159.24
-151.57
-138.83
-124.84
-114.16
-109.13
-108.35
-107.09
-99.61
-81.41
-51.55
-12.85
29.96
70.22
102.64
124.53
135.66
137.09
130.87
119.37
105.11
90.49
77.28
66.46
58.09
51.27
44.53
36.77
27.59
17.41
7.25
-1.74
-8.32
-11.56
-11.23
-7.93
-3.00
1.84
4.89
5.08
2.26
-2.66
-8.24
-13.15
-16.89
-19.73
-22.34
-25.40
-28.89
-32.30
-34.85
-35.94
-35.50
-33.98
-31.91
-29.50
-26.71
-23.21
-18.95
-14.26
-9.70
-5.75
-2.43
0.65
4.17
8.42
13.17
17.54
20.43
21.00
19.14
15.37
10.57
5.68
1.34
-1.98
-3.93
-4.10
-1.86
3.34
11.63
22.27
33.59
43.18
48.74
48.91
43.66
34.33
22.81
10.85
-0.52
-11.03
-20.75
-29.69
-37.40
-43.22
-46.53
-47.18
-45.44
-41.87
-37.01
-31.41
-25.44
-19.45
-13.66
-8.19
-2.96
2.20
7.49
13.00
18.63
24.04
28.82
32.51
34.71
35.18
33.72
30.31
25.04
18.23
10.26
1.79
-6.58
-14.25
-20.64
-25.39
-28.24
-29.12
-28.18
-25.77
-22.37
-18.60
-14.95
-11.67
-8.81
-6.29
-4.03
-2.06
-0.62
0.04
-0.26
-1.34
-2.71
-3.77
-4.06
-3.42
-2.11
-0.66
0.34
0.54
-0.03
-0.83
-1.10
-0.03
2.84
7.39
12.96
18.40
22.44
23.99
22.48
17.97
11.18
3.12
-5.14
-12.70
-19.16
-24.43
-28.67
-31.87
-33.91
-34.43
-33.22
-30.40
-26.36
-21.72
-17.08
-12.82
-9.03
-5.71
-2.98
-1.09
-0.23
-0.42
-1.29
-2.18
-2.45
-1.79
-0.26
1.78
3.88
5.75
7.29
8.54
9.70
11.07
13.00
15.90
19.98
25.04
30.36
34.84
37.36
37.19
34.17
28.66
21.33
12.85
3.85
-5.08
-13.38
-20.44
-25.78
-29.18
-30.68
-30.52
-28.96
-26.23
-22.40
-17.57
-11.95
-5.93
-0.07
5.14
9.33
12.37
14.28
15.04
14.59
12.91
10.09
6.39
2.29
-1.76
-5.38
-8.41
-10.87
-12.91
-14.68
-16.21
-17.36
-17.77
-16.93
-14.27
-9.53
-2.86
5.07
13.17
20.39
25.87
29.21
30.46
29.94
27.97
24.82
20.64
15.66
10.19
4.65
-0.44
-4.70
-7.93
-10.18
-11.69
-12.70
-13.32
-13.55
-13.35
-12.67
-11.60
-10.36
-9.26
-8.53
-8.32
-8.60
-9.07
-9.48
-9.57
-9.30
-8.83
-8.42
-8.20
-8.09
-7.86
-7.16
-5.97
-4.36
-2.43
-0.13
2.73
6.43
11.03
16.11
20.96
24.67
26.64
26.69
25.08
22.30
18.77
14.61
9.72
4.02
-2.40
-8.99
-14.93
-19.40
-21.77
-21.91
-20.21
-17.36
-14.04
-10.80
-7.86
-5.32
-3.23
-1.55
-0.31
0.42
0.55
0.08
-1.00
-2.64
-4.67
-6.88
-8.96
-10.70
-12.06
-13.06
-13.86
-14.67
-15.63
-16.79
-18.04
-18.93
-18.88
-17.19
-13.32
-7.24
0.52
9.12
17.70
25.69
32.85
39.07
44.21
47.98
49.79
48.99
45.14
38.21
28.72
17.51
5.67
-5.75
-15.97
-24.87
-33.01
-41.42
-50.98
-61.88
-73.41
-84.12
-91.92
-95.06
-93.06
-87.21
-80.05
-74.20
-71.00
-70.21
-70.38
-68.72
-62.62
-50.94
-35.12
-18.43
-4.75
3.20
4.33
-1.01
-9.99
-18.63
-23.57
-23.82
-20.90
-18.08
-19.00
-26.63
-42.03
-60.67
-72.91
-66.85
-33.10
31.68
123.78
233.87
349.76
448.22
506.34
512.02
471.36
403.03
325.83
251.23
183.85
125.05
74.72
34.90
7.85
-6.21
-10.63
-10.94
-11.92
-15.89
-23.40
-36.03
-54.78
-81.43
-117.33
-162.25
-212.81
-262.00
-301.00
-318.55
-312.00
-284.87
-244.43
-198.45
-153.48
-114.36
-84.14
-64.19
-53.77
-49.99
-45.93
-32.80
-3.96
41.04
94.65
143.70
174.46
178.44
155.09
112.65
64.03
21.43
-7.85
-22.36
-24.78
-19.30
-9.52
1.72
12.44
21.15
26.91
29.24
28.84
27.10
25.68
25.43
25.98
25.80
22.85
15.41
2.19
-16.38
-37.31
-54.86
-62.00
-53.62
-29.58
4.07
36.74
57.85
61.85
50.68
32.39
16.54
9.33
11.06
17.26
22.32
23.20
20.79
18.27
18.27
21.08
25.08
28.49
30.71
32.99
37.37
45.41
56.97
69.99
81.65
89.73
93.49
93.55
91.33
88.24
85.09
81.54
77.96
73.22
65.66
53.84
37.28
17.23
-3.52
-21.37
-33.07
-36.86
-33.29
-24.66
-14.16
-4.81
1.38
3.57
1.82
-3.10
-9.92
-17.05
-22.55
-24.77
-23.05
-18.11
-11.91
-6.69
-3.91
-3.58
-4.54
-5.09
-3.89
-0.53
4.61
10.71
17.12
23.42
29.32
34.38
38.10
40.01
39.92
38.04
34.86
31.10
27.43
24.35
22.05
20.46
19.30
18.23
16.90
15.00
12.46
9.20
5.21
0.50
-4.96
-11.15
-17.90
-24.69
-30.48
-33.92
-33.74
-29.47
-21.91
-13.09
-5.69
-2.06
-3.34
-9.03
-17.30
-25.80
-32.51
-36.31
-37.05
-35.18
-31.32
-25.94
-19.30
-11.67
-3.50
4.45
11.19
15.73
17.51
16.53
13.36
8.87
3.77
-1.57
-7.18
-13.29
-20.04
-27.35
-34.85
-42.08
-48.63
-54.34
-59.30
-63.81
-68.23
-72.81
-77.64
-82.61
-87.58
-92.47
-97.36
-102.48
-108.01
-114.00
-120.19
-126.13
-131.39
-135.80
-139.45
-142.52
-145.02
-146.54
-146.29
-143.31
-136.90
-126.85
-113.60
-98.06
-81.32
-64.40
-48.11
-33.08
-19.76
-8.53
0.42
7.06
11.64
14.63
16.60
18.05
19.32
20.52
21.64
22.62
23.49
24.29
25.10
25.88
26.53
26.91
26.84
26.18
24.85
22.76
19.85
16.16
11.86
7.16
2.38
-2.25
-6.61
-10.69
-14.71
-19.07
-24.23
-30.57
-38.20
-46.78
-55.56
-63.47
-69.37
-72.46
-72.62
-70.23
-66.05
-60.80
-54.96
-48.76
-42.19
-35.24
-28.02
-20.87
-14.20
-8.39
-3.57
0.41
3.83
7.00
10.07
13.00
15.63
17.85
19.47
20.38
20.61
20.08
18.77
16.76
14.27
11.67
9.38
7.64
6.47
5.77
5.14
3.98
1.69
-2.16
-7.63
-14.41
-21.77
-28.89
-34.84
-38.85
-40.15
-38.19
-32.75
-23.97
-12.65
0.01
12.44
23.15
30.92
35.26
36.31
34.71
31.48
27.59
23.83
20.76
18.76
17.98
18.50
20.40
23.60
27.97
33.22
38.85
44.21
48.69
51.65
52.56
51.18
47.60
42.16
35.40
28.07
21.03
15.02
10.63
8.01
6.90
6.73
6.64
5.74
3.31
-1.01
-7.27
-15.04
-23.41
-31.26
-37.42
-40.72
-40.31
-35.85
-27.67
-16.62
-4.00
8.82
20.52
30.02
36.76
40.63
41.90
41.03
38.78
36.03
33.79
32.83
33.55
35.97
39.58
43.61
47.06
49.11
49.13
46.84
42.10
35.02
26.01
15.73
5.17
-4.62
-12.72
-18.47
-21.48
-21.62
-19.01
-13.94
-7.16
0.48
7.86
13.98
18.09
19.91
19.51
17.14
13.28
8.25
2.68
-2.69
-6.95
-9.25
-9.08
-6.40
-1.77
4.00
9.85
14.94
18.74
21.06
22.01
21.81
20.86
19.61
18.63
18.43
19.59
22.39
26.80
32.36
38.27
43.77
48.10
50.97
52.22
52.02
50.52
47.81
43.90
38.70
32.28
24.60
15.86
6.20
-4.16
-14.91
-25.68
-35.84
-44.72
-51.58
-55.94
-57.66
-57.02
-54.62
-51.17
-47.16
-42.73
-37.73
-31.76
-24.49
-15.82
-5.94
4.67
15.44
25.59
34.45
41.31
45.68
47.14
45.48
40.63
32.88
22.89
11.48
-0.17
-10.90
-19.63
-25.63
-28.44
-27.97
-24.37
-18.11
-10.04
-1.17
7.27
14.30
19.26
22.09
23.16
23.13
22.54
21.79
20.98
19.97
18.62
16.86
14.73
12.35
9.83
7.20
4.45
1.69
-1.03
-3.58
-5.80
-7.50
-8.33
-7.93
-5.90
-2.05
3.66
10.85
18.96
27.30
35.17
42.01
47.40
51.02
52.61
52.14
49.63
45.38
39.88
33.70
27.42
21.46
16.11
11.40
7.29
3.63
0.29
-2.91
-6.28
-10.10
-14.66
-19.96
-25.89
-32.15
-38.38
-44.22
-49.25
-53.18
-55.63
-56.26
-54.85
-51.44
-46.36
-40.23
-33.81
-27.83
-23.04
-19.80
-18.18
-17.77
-17.75
-17.09
-14.86
-10.54
-4.06
4.17
13.55
23.36
32.92
41.65
48.91
54.20
57.15
57.81
56.50
53.70
49.75
44.90
39.38
33.54
28.01
23.50
20.59
19.43
19.70
20.74
21.86
22.61
22.69
21.94
20.12
17.06
12.59
6.86
0.28
-6.59
-13.24
-19.41
-25.16
-30.80
-36.64
-42.99
-49.97
-57.44
-65.01
-72.04
-77.79
-81.40
-82.05
-79.06
-72.12
-61.30
-47.21
-30.93
-13.75
2.97
17.99
30.21
38.72
42.75
41.85
36.00
25.66
12.05
-3.15
-18.04
-30.95
-40.65
-46.45
-48.10
-45.70
-39.63
-30.41
-18.78
-5.73
7.62
20.06
30.57
38.44
43.35
45.39
45.00
42.75
39.35
35.39
31.31
27.37
23.68
20.24
16.94
13.59
9.86
5.62
1.01
-3.36
-6.53
-7.49
-5.52
-0.58
6.70
15.24
23.94
31.98
38.91
44.53
48.57
50.65
50.32
47.32
41.82
34.46
26.22
18.13
11.02
5.27
0.94
-2.20
-4.41
-5.94
-6.91
-7.45
-7.70
-7.77
-7.81
-7.89
-8.06
-8.29
-8.57
-8.88
-9.28
-9.82
-10.51
-11.33
-12.25
-13.32
-14.69
-16.57
-19.04
-21.94
-24.74
-26.67
-26.90
-24.84
-20.30
-13.66
-5.69
2.69
10.56
17.27
22.38
25.72
27.34
27.41
26.11
23.69
20.46
16.78
13.13
9.90
7.41
5.75
4.80
4.31
4.09
4.00
3.98
4.04
4.09
3.98
3.53
2.56
0.97
-1.24
-4.03
-7.38
-11.24
-15.53
-20.14
-24.89
-29.59
-34.10
-38.25
-41.87
-44.68
-46.26
-46.11
-43.83
-39.24
-32.49
-23.99
-14.40
-4.47
5.06
13.52
20.35
25.17
27.82
28.34
26.97
24.10
20.10
15.38
10.34
5.36
0.82
-2.95
-5.78
-7.66
-8.71
-9.20
-9.42
-9.67
-10.16
-11.03
-12.34
-14.07
-16.12
-18.38
-20.69
-22.93
-25.07
-27.14
-29.24
-31.54
-34.14
-37.04
-39.95
-42.32
-43.32
-42.05
-37.80
-30.26
-19.69
-6.86
7.18
21.30
34.48
45.94
55.11
61.64
65.38
66.43
65.09
61.79
56.98
51.02
44.22
36.86
29.34
22.15
15.83
10.75
6.98
4.32
2.36
0.70
-0.98
-2.84
-4.97
-7.41
-10.21
-13.44
-17.10
-21.08
-25.22
-29.32
-33.29
-37.12
-40.88
-44.57
-48.01
-50.70
-51.93
-50.91
-47.15
-40.57
-31.56
-20.81
-9.00
3.31
15.72
27.81
38.99
48.48
55.46
59.36
60.04
57.86
53.51
47.83
41.61
35.44
29.75
24.78
20.57
17.09
14.17
11.64
9.37
7.21
5.09
2.92
0.59
-1.97
-4.81
-7.91
-11.24
-14.81
-18.61
-22.64
-26.88
-31.27
-35.76
-40.34
-44.95
-49.39
-53.20
-55.59
-55.58
-52.33
-45.42
-35.14
-22.43
-8.65
4.91
17.24
27.76
36.28
42.71
46.98
49.04
48.95
46.99
43.70
39.69
35.47
31.30
27.24
23.28
19.55
16.36
14.13
13.16
13.43
14.55
15.92
16.85
16.86
15.76
13.56
10.45
6.68
2.51
-1.81
-6.09
-10.18
-14.02
-17.62
-21.16
-24.92
-29.14
-33.88
-38.87
-43.49
-47.05
-48.91
-48.76
-46.80
-43.58
-39.79
-35.99
-32.40
-28.97
-25.53
-21.80
-17.67
-13.05
-7.85
-1.97
4.66
12.00
19.81
27.68
35.14
41.68
46.95
50.77
53.17
54.29
54.34
53.51
51.90
49.59
46.48
42.55
37.77
32.28
26.31
20.17
14.13
8.40
3.06
-2.00
-6.88
-11.72
-16.68
-21.63
-26.40
-30.69
-34.10
-36.32
-37.32
-37.05
-35.78
-33.96
-31.83
-29.61
-27.26
-24.66
-21.58
-17.96
-13.75
-8.97
-3.84
1.56
7.07
12.60
17.89
22.65
26.49
29.11
30.32
30.11
28.82
26.83
24.65
22.59
20.76
19.08
17.31
15.14
12.36
8.97
4.90
0.12
-5.42
-11.91
-19.35
