1675590790.00
64.000000
-0.00
-0.00
-0.00
-0.00
-0.00
-0.00
-0.00
-0.00
-0.00
-0.00
0.00
0.01
0.01
-0.00
-0.03
-0.05
-0.05
0.00
0.13
0.36
0.66
1.01
1.37
1.72
2.06
2.40
2.79
3.24
3.80
4.42
5.06
5.66
6.20
6.68
7.15
7.68
8.31
9.14
10.09
11.04
11.88
12.56
13.14
13.76
14.65
15.96
17.91
20.32
22.90
25.38
27.58
29.57
31.68
34.32
37.81
42.54
48.15
54.10
59.83
64.97
69.58
74.14
79.34
85.71
93.76
103.00
112.62
121.73
129.77
136.75
143.30
150.75
157.77
166.64
177.95
191.79
206.97
220.57
228.25
225.36
208.53
176.87
132.76
80.05
23.07
-34.94
-92.44
-149.16
-205.23
-260.37
-313.74
-363.87
-409.83
-450.91
-486.50
-515.74
-537.23
-549.22
-549.96
-538.37
-514.21
-478.67
-433.88
-382.45
-327.02
-269.84
-212.63
-156.66
-102.95
-52.37
-5.90
35.58
71.43
101.35
125.50
144.38
158.69
169.15
176.37
180.75
182.57
182.07
179.51
175.23
169.65
163.18
156.15
148.81
141.30
133.69
126.02
118.33
110.69
103.16
95.80
88.68
81.83
75.25
68.95
62.95
57.25
51.86
46.78
42.03
37.59
33.45
29.61
26.07
22.81
19.83
17.11
14.67
12.48
10.54
8.83
7.35
6.07
4.97
4.05
3.27
2.62
2.09
1.65
1.30
1.01
0.79
0.61
0.47
0.37
0.29
0.23
0.19
0.17
0.16
0.16
0.17
0.18
0.21
0.24
0.28
0.32
0.36
0.40
0.44
0.50
0.56
0.62
0.69
0.75
0.78
0.78
0.76
0.73
0.73
0.77
0.85
0.98
1.12
1.25
1.36
1.45
1.55
1.69
1.90
2.19
2.52
2.86
3.17
3.42
3.62
3.84
4.14
4.59
5.18
5.87
6.52
7.03
7.34
7.50
7.65
7.98
8.62
9.60
10.77
11.87
12.67
13.03
12.99
12.83
12.81
13.16
13.79
14.33
14.25
12.97
10.22
6.06
0.92
-4.64
-10.16
-15.40
-20.42
-25.43
-30.67
-36.30
-42.41
-49.01
-55.82
-62.00
-66.05
-66.16
-60.89
-50.05
-35.12
-18.90
-4.52
5.72
11.13
12.50
11.41
9.33
7.09
4.93
2.85
1.00
-0.33
-0.88
-0.73
-0.33
-0.31
-1.02
-2.42
-3.91
-4.56
-3.47
-0.21
4.94
11.01
16.59
20.35
21.63
20.62
18.28
15.84
14.25
13.82
14.21
14.71
14.74
14.06
12.84
11.37
9.84
8.14
6.01
3.21
-0.31
-4.38
-8.69
-12.90
-16.73
-20.01
-22.60
-24.41
-25.24
-25.03
-23.91
-22.22
-20.35
-18.49
-16.57
-14.31
-11.34
-7.45
-2.70
2.66
8.31
13.91
19.10
23.39
26.21
27.05
25.72
22.59
18.55
14.74
12.07
10.87
10.82
11.16
11.13
10.25
8.42
5.81
2.72
-0.50
-3.53
-6.14
-8.30
-10.27
-12.52
-15.58
-19.63
-24.35
-28.92
-32.34
-33.70
-32.51
-28.78
-22.96
-15.79
-8.18
-1.09
4.68
8.62
10.60
10.94
10.18
8.97
7.85
7.14
6.96
7.27
7.94
8.78
9.62
10.24
10.53
10.41
9.93
9.19
8.33
7.40
6.30
4.83
2.76
-0.02
-3.41
-7.04
-10.46
-13.27
-15.26
-16.36
-16.51
-15.50
-13.04
-8.88
-3.04
4.07
11.71
19.05
25.38
30.29
33.59
35.18
35.07
33.34
30.29
26.47
22.64
19.52
17.50
16.47
15.79
14.51
11.72
6.90
0.17
-7.72
-15.59
-22.26
-26.91
-29.35
-30.11
-30.15
-30.61
-32.31
-35.48
-39.69
-43.98
-47.09
-47.93
-45.79
-40.69
-33.28
-24.67
-16.09
-8.47
-2.22
2.89
7.41
11.93
16.62
21.07
24.46
25.90
24.95
21.91
17.78
13.86
11.27
10.50
11.33
12.97
14.49
15.15
14.57
12.80
10.14
6.98
3.72
0.59
-2.31
-5.04
-7.71
-10.34
-12.80
-14.71
-15.52
-14.67
-11.77
-6.83
-0.24
7.24
14.70
21.26
26.24
29.24
30.09
28.93
26.16
22.43
18.60
15.53
13.79
13.48
14.13
14.83
14.62
12.85
9.51
5.17
0.82
-2.64
-4.79
-5.88
-6.67
-8.08
-10.62
-14.17
-18.02
-21.23
-23.09
-23.30
-21.98
-19.37
-15.64
-10.89
-5.26
0.86
6.80
11.76
15.09
16.55
16.32
14.94
13.02
11.06
9.43
8.27
7.60
7.42
7.68
8.35
9.23
10.01
10.22
9.41
7.35
4.18
0.35
-3.59
-7.24
-10.53
-13.57
-16.45
-18.96
-20.65
-21.02
-19.76
-16.89
-12.75
-7.72
-2.11
3.82
9.82
15.51
20.42
24.14
26.44
27.39
27.20
26.11
24.28
21.86
19.06
16.22
13.72
11.86
10.73
10.17
9.85
9.44
8.78
7.93
7.09
6.47
6.11
5.79
5.10
3.63
1.16
-2.23
-6.26
-10.56
-14.83
-18.88
-22.45
-25.10
-26.22
-25.21
-21.82
-16.38
-9.64
-2.55
4.16
10.15
15.44
20.09
23.98
26.66
27.59
26.44
23.38
19.08
14.58
10.91
8.82
8.60
10.03
12.50
15.24
17.47
18.61
18.41
16.92
14.49
11.61
8.79
6.40
4.57
3.17
1.87
0.25
-1.91
-4.50
-7.00
-8.58
-8.43
-6.06
-1.57
4.43
11.04
17.47
23.37
28.78
34.00
39.21
44.18
48.32
50.93
51.64
50.77
49.31
48.57
49.56
52.47
56.64
60.89
64.30
66.95
70.00
75.24
84.11
96.83
111.91
126.54
137.47
142.00
138.78
128.01
111.23
90.66
68.38
45.64
22.32
-3.05
-32.95
-70.10
-116.49
-172.21
-234.50
-297.46
-352.75
-391.80
-408.74
-403.15
-380.74
-351.45
-325.30
-307.93
-298.38
-289.95
-273.90
-243.65
-197.35
-137.76
-70.24
-0.47
66.87
127.96
179.46
218.41
242.88
252.86
250.64
240.21
226.00
211.66
199.25
189.33
181.23
173.74
165.67
156.38
146.09
135.85
127.05
120.64
116.33
112.49
106.63
96.53
81.26
61.63
39.86
18.58
-0.30
-16.17
-29.62
-41.72
-53.24
-64.23
-74.18
-82.52
-89.06
-94.09
-98.14
-101.60
-104.64
-107.32
-109.85
-112.72
-116.61
-122.09
-129.15
-137.03
-144.27
-149.10
-150.07
-146.56
-138.77
-127.46
-113.38
-96.73
-77.07
-53.68
-26.30
4.28
36.15
66.82
93.95
115.82
131.52
140.74
143.58
140.43
132.03
119.55
104.89
89.98
76.10
63.42
51.44
39.58
27.68
15.92
4.54
-5.95
-15.46
-24.73
-35.23
-48.13
-63.54
-80.36
-96.85
-111.33
-121.71
-126.44
-125.36
-119.90
-112.05
-103.33
-94.45
-85.44
-75.79
-63.19
-44.55
-17.53
18.08
60.73
107.55
154.98
199.52
230.52
238.77
223.28
193.11
159.85
130.34
105.33
82.49
59.63
36.29
14.94
-1.15
-9.46
-11.97
-11.63
-11.01
-11.61
-13.87
-17.65
-21.57
-24.07
-24.40
-23.20
-21.36
-19.14
-16.22
-12.23
-7.30
-1.62
4.36
9.91
14.31
17.66
20.92
25.26
31.20
37.95
43.73
46.14
42.68
31.22
10.77
-18.35
-54.56
-95.29
-137.26
-176.77
-210.45
-236.02
-252.79
-261.59
-264.34
-263.47
-261.36
-260.02
-260.90
-264.65
-270.60
-276.45
-278.29
-271.59
-252.74
-220.60
-176.97
-125.84
-71.62
-17.53
35.15
86.49
136.72
185.16
230.11
269.33
300.97
324.05
338.34
344.16
342.35
334.54
323.35
312.02
303.36
298.51
296.29
293.64
287.02
274.07
254.67
230.79
205.53
181.72
160.98
143.65
129.27
117.19
106.87
97.70
88.63
78.14
64.71
47.59
27.51
6.65
-12.13
-26.43
-35.22
-38.98
-39.11
-37.07
-33.94
-30.46
-27.48
-26.13
-27.49
-31.93
-38.64
-45.85
-51.59
-54.64
-54.87
-52.94
-49.46
-44.46
-37.50
-28.34
-17.63
-7.06
1.33
6.22
7.68
7.08
6.13
5.80
5.68
4.30
0.07
-7.67
-18.15
-29.47
-39.35
-46.02
-48.60
-47.08
-41.82
-33.31
-22.09
-8.95
4.89
17.83
28.36
35.53
39.19
39.70
37.40
32.01
22.53
7.69
-13.17
-39.26
-68.20
-96.49
-120.58
-137.97
-147.73
-150.51
-148.00
-142.02
-134.11
-125.24
-115.95
-106.54
-97.31
-88.64
-80.89
-74.28
-68.81
-64.22
-60.16
-56.33
-52.62
-49.18
-46.28
-44.14
-42.77
-41.95
-41.37
-40.80
-40.19
-39.61
-39.18
-38.91
-38.70
-38.39
-37.84
-36.94
-35.62
-33.68
-30.86
-26.83
-21.33
-14.28
-5.88
3.45
13.09
22.28
30.25
36.31
39.98
41.06
39.67
36.27
31.55
26.36
21.57
17.94
15.92
15.48
16.09
16.82
16.67
14.90
11.26
6.15
0.40
-4.98
-9.15
-11.64
-12.51
-12.23
-11.53
-11.15
-11.56
-12.68
-13.91
-14.35
-13.20
-10.15
-5.56
-0.32
4.59
8.47
11.11
12.67
13.39
13.34
12.43
10.52
7.65
4.24
0.90
-1.71
-3.20
-3.50
-2.91
-1.90
-0.91
-0.31
-0.26
-0.84
-2.03
-3.80
-6.12
-8.97
-12.31
-16.13
-20.33
-24.69
-28.79
-32.03
-33.68
-33.05
-29.73
-23.77
-15.75
-6.66
2.36
10.30
16.62
21.16
24.14
25.84
26.49
26.22
25.15
23.47
21.51
19.63
18.08
16.84
15.63
14.01
11.66
8.51
4.78
0.89
-2.75
-5.93
-8.63
-11.08
-13.61
-16.58
-20.30
-24.86
-30.01
-35.07
-39.01
-40.68
-39.23
-34.38
-26.62
-17.03
-6.95
2.43
10.30
16.34
20.55
23.16
24.44
24.71
24.28
23.46
22.54
21.71
21.04
20.45
19.72
18.64
17.06
14.96
12.49
9.84
7.21
4.68
2.26
-0.14
-2.61
-5.25
-8.15
-11.41
-15.16
-19.43
-24.09
-28.74
-32.61
-34.76
-34.25
-30.53
-23.65
-14.38
-3.98
6.19
15.03
21.96
26.88
30.03
31.72
32.27
32.03
31.43
31.00
31.28
32.59
34.86
37.64
40.16
41.64
41.47
39.48
35.89
31.22
26.01
20.63
15.08
9.15
2.55
-4.93
-13.22
-22.11
-31.32
-40.52
-49.34
-57.19
-63.22
-66.42
-65.90
-61.28
-52.94
-41.99
-29.94
-18.28
-8.02
0.43
7.13
12.33
16.21
18.66
19.50
18.67
16.41
13.41
10.53
8.57
7.98
8.65
10.06
11.47
12.27
12.19
11.38
10.29
9.51
9.43
10.08
11.09
11.76
11.32
9.14
5.00
-0.76
-7.26
-13.21
-17.21
-18.16
-15.62
-9.94
-2.25
5.91
13.13
18.46
21.76
23.52
24.53
25.49
26.66
27.83
28.49
28.20
26.83
24.73
22.61
21.21
20.93
21.63
22.72
23.42
23.09
21.41
18.36
14.05
8.60
2.14
-5.04
-12.37
-19.06
-24.33
-27.82
-29.76
-30.82
-31.66
-32.42
-32.54
-30.92
-26.52
-18.95
-8.66
3.09
14.75
24.93
32.67
37.55
39.60
39.19
36.96
33.70
30.19
27.03
24.40
22.12
19.87
17.42
14.83
12.40
10.53
9.41
9.04
9.16
9.51
9.86
9.96
9.38
7.47
3.48
-3.11
-12.14
-22.69
-33.32
-42.51
-49.28
-53.29
-54.66
-53.62
-50.18
-44.21
-35.84
-25.69
-14.99
-5.19
2.55
7.75
10.64
11.82
11.91
11.20
9.71
7.44
4.60
1.72
-0.56
-1.70
-1.54
-0.31
1.47
3.23
4.58
5.42
5.88
6.20
6.63
7.43
8.83
10.92
13.51
15.86
16.71
14.63
8.71
-0.81
-12.22
-22.78
-29.70
-31.30
-27.62
-20.38
-12.09
-5.00
-0.34
1.73
1.63
-0.24
-3.92
-9.56
-17.01
-25.34
-32.92
-37.95
-39.22
-36.62
-31.11
-24.34
-17.94
-12.99
-9.79
-7.94
-6.57
-4.53
-0.64
5.99
15.42
26.55
37.06
43.97
44.80
38.57
26.50
11.58
-2.58
-13.23
-19.42
-22.10
-23.20
-24.46
-26.64
-29.48
-32.31
-34.76
-37.10
-39.96
-43.63
-47.61
-50.55
-50.87
-47.64
-41.14
-32.81
-24.46
-17.39
-11.54
-5.55
2.69
14.99
32.06
52.94
75.22
95.58
110.62
117.63
115.26
103.74
84.91
61.78
37.94
16.70
0.44
-10.01
-15.28
-17.22
-18.03
-19.54
-22.62
-27.12
-32.17
-36.79
-40.38
-42.80
-44.22
-44.62
-43.46
-39.89
-33.11
-23.07
-10.79
1.82
12.57
19.73
22.58
21.49
17.72
12.97
8.98
7.00
7.31
8.97
9.74
6.92
-1.64
-16.29
-35.17
-54.65
-70.72
-80.40
-82.62
-78.06
-68.33
-55.16
-39.94
-24.06
-9.18
2.58
9.29
9.97
5.17
-2.90
-11.21
-16.94
-18.48
-15.88
-10.59
-4.64
0.20
3.24
4.96
6.82
10.56
17.37
27.39
39.42
51.30
60.39
64.45
62.21
53.72
40.37
24.50
8.94
-3.79
-11.96
-15.08
-13.90
-9.93
-4.84
0.24
5.09
10.25
16.53
24.40
33.60
43.19
51.99
59.13
64.32
67.85
70.09
71.05
70.17
66.49
59.13
47.81
33.13
16.59
0.26
-13.70
-23.53
-28.31
-28.29
-24.92
-20.58
-17.82
-18.52
-23.10
-30.37
-37.85
-42.92
-43.74
-40.01
-32.85
-24.16
-15.62
-8.09
-1.49
4.70
10.66
15.85
19.04
18.92
14.84
7.19
-2.67
-12.91
-21.69
-27.58
-29.69
-27.83
-22.69
-15.84
-9.39
-5.23
-4.06
-4.89
-5.32
-2.87
3.61
12.85
21.49
25.62
22.73
13.17
0.13
-11.67
-18.08
-17.14
-9.65
1.53
13.00
22.18
28.02
30.69
30.70
28.13
22.46
13.04
-0.04
-15.37
-30.44
-42.35
-49.01
-49.95
-46.48
-41.11
-36.47
-34.38
-35.20
-38.03
-41.19
-43.04
-42.60
-39.79
-35.41
-30.72
-27.07
-25.43
-26.17
-28.90
-32.51
-35.38
-35.77
-32.20
-24.01
-11.49
4.10
20.84
36.61
49.62
58.73
63.50
64.16
61.42
56.28
49.90
43.45
37.97
34.17
32.30
31.99
32.40
32.45
31.21
28.18
23.48
17.74
11.84
6.57
2.29
-1.09
-4.10
-7.48
-11.86
-17.51
-24.19
-31.12
-37.12
-40.90
-41.40
-38.09
-31.15
-21.45
-10.31
0.78
10.59
18.40
24.13
28.21
31.35
34.24
37.28
40.46
43.50
45.91
47.30
47.49
46.55
44.79
42.56
40.14
37.56
34.66
31.19
26.95
21.88
16.14
10.14
4.42
-0.36
-3.52
-4.50
-3.06
0.58
5.63
10.79
14.58
15.68
13.40
7.94
0.46
-7.27
-13.40
-16.64
-16.62
-13.93
-9.83
-5.67
-2.54
-1.01
-1.26
-3.23
-6.71
-11.31
-16.28
-20.59
-23.16
-23.31
-21.13
-17.54
-13.85
-11.28
-10.43
-11.30
-13.44
-16.37
-19.74
-23.38
-26.99
-30.22
-32.65
-34.11
-34.84
-35.44
-36.61
-38.73
-41.64
-44.65
-46.78
-47.15
-45.24
-41.02
-34.96
-27.94
-21.02
-15.30
-11.67
-10.61
-12.07
-15.50
-19.91
-24.08
-26.74
-26.87
-23.93
-18.06
-10.10
-1.37
6.80
13.57
19.00
23.94
29.60
36.73
45.02
53.08
58.99
61.34
59.92
55.93
51.32
47.85
46.33
46.45
47.27
47.77
47.42
46.13
43.95
40.84
36.57
31.07
24.70
18.48
13.74
11.63
12.55
15.88
20.15
23.60
24.77
22.87
17.87
10.20
0.55
-10.36
-21.77
-32.80
-42.51
-50.01
-54.64
-56.01
-53.97
-48.49
-39.72
-28.10
-14.63
-0.87
11.27
20.02
24.23
23.69
19.07
11.59
2.60
-6.63
-15.08
-21.93
-26.66
-29.04
-29.29
-27.99
-25.87
-23.45
-20.82
-17.62
-13.19
-6.99
1.14
10.83
21.27
31.29
39.48
44.50
45.38
42.04
35.56
28.09
22.12
19.48
20.53
24.03
27.78
29.76
29.02
25.99
21.99
18.35
15.63
13.39
10.61
6.40
0.72
-5.40
-10.16
-11.74
-9.18
-2.91
5.26
12.78
17.25
17.17
12.24
3.13
-9.05
-23.04
-37.51
-50.91
-61.63
-68.44
-71.06
-70.37
-67.98
-65.32
-62.68
-59.06
-52.82
-42.85
-29.54
-14.77
-1.08
9.60
16.65
20.66
22.62
23.12
22.18
19.65
15.93
12.18
9.89
9.93
11.99
14.56
15.77
14.41
10.59
5.66
1.56
-0.06
1.61
6.39
13.33
21.02
27.90
32.60
34.33
33.22
30.46
28.02
27.85
31.02
37.19
44.60
50.74
53.53
52.10
47.20
40.76
35.00
31.38
30.13
30.33
30.50
29.35
26.24
21.15
14.43
6.52
-2.20
-11.34
-20.37
-28.69
-35.82
-41.47
-45.70
-48.71
-50.71
-51.78
-51.82
-50.69
-48.26
-44.52
-39.66
-34.04
-28.05
-21.87
-15.32
-7.79
1.40
12.48
24.84
37.07
47.42
54.53
57.80
57.38
53.65
46.87
37.12
24.73
10.65
-3.41
-15.46
-23.99
-28.52
-29.71
-29.01
-28.12
-28.57
-31.48
-37.45
-46.42
-57.56
-69.36
-80.00
-87.92
-92.22
-92.81
-90.09
-84.49
-76.22
-65.32
-51.89
-36.36
-19.38
-1.65
16.25
33.80
50.23
64.30
74.36
78.94
77.38
70.43
60.19
49.45
40.69
35.14
32.47
31.31
30.22
28.73
27.69
28.71
32.95
39.93
47.18
51.06
48.35
37.74
20.53
-0.04
-20.13
-36.65
-48.00
-53.93
-54.99
-51.94
-45.62
-37.07
-27.61
-18.76
-11.87
-7.76
-6.54
-7.64
-10.05
-12.63
-14.38
-14.68
-13.50
-11.38
-9.29
-8.21
-8.79
-11.14
-14.85
-19.28
-23.91
-28.44
-32.81
-36.99
-40.78
-43.80
-45.68
-46.32
-46.02
-45.43
-45.11
-45.16
-44.99
-43.44
-39.20
-31.45
-20.18
-6.20
9.23
24.81
39.48
52.34
62.41
68.50
69.42
64.47
54.08
39.96
24.76
11.16
1.00
-5.31
-8.72
-10.89
-13.27
-16.52
-20.37
-23.98
-26.49
-27.46
-26.91
-25.23
-22.87
-20.16
-17.05
-13.12
-7.44
1.19
13.89
31.08
51.96
74.30
94.93
110.63
119.23
120.27
114.86
104.99
92.49
78.34
62.62
45.08
25.85
5.94
-13.02
-29.46
-42.61
-52.88
-61.52
-69.82
-78.30
-86.42
-92.89
-96.49
-96.79
-94.36
-90.38
-85.93
-81.53
-77.09
-72.36
-67.34
-62.40
-57.91
-53.65
-48.69
-41.69
-31.74
-19.01
-4.80
9.07
21.30
31.66
40.93
50.08
59.35
67.80
73.65
75.19
71.75
64.12
54.20
44.06
34.97
26.94
18.99
9.90
-0.80
-12.48
-23.53
-32.21
-37.49
-39.44
-39.17
-38.21
-37.89
-38.76
-40.43
-41.61
-40.41
-34.82
-23.42
-5.95
16.35
40.94
64.66
84.58
98.79
106.60
108.39
105.10
97.80
87.35
74.36
59.32
42.72
25.36
8.42
-6.66
-18.52
-26.37
-30.35
-31.35
-30.52
-28.65
-25.73
-21.14
-14.30
-5.32
4.59
13.44
19.17
20.45
17.03
9.69
-0.15
-10.70
-19.91
-25.47
-25.15
-17.60
-3.18
15.56
34.44
49.12
56.70
56.81
51.37
43.34
35.20
27.96
21.28
14.31
6.54
-1.77
-9.91
-17.29
-23.79
-29.67
-35.24
-40.51
-45.28
-49.54
-53.79
-59.02
-66.09
-75.00
-84.30
-91.30
-92.80
-86.26
-70.58
-46.46
-16.11
17.32
50.38
79.91
103.37
119.28
127.29
128.18
123.33
114.19
101.64
85.93
67.06
45.37
22.10
-0.55
-19.98
-33.95
-41.31
-42.31
-38.41
-31.72
-24.42
-18.28
-14.56
-13.98
-16.77
-22.71
-31.06
-40.60
-49.72
-56.73
-60.10
-58.79
-52.32
-40.66
-24.23
-3.83
19.26
43.36
66.42
86.40
101.49
110.39
112.37
107.31
95.75
78.88
58.55
37.04
16.63
-0.90
-14.69
-24.82
-32.02
-37.18
-40.98
-43.83
-46.15
-48.62
-52.15
-57.51
-64.75
-72.86
-79.87
-83.47
-81.83
-74.18
-60.97
-43.46
-23.18
-1.41
20.98
43.30
64.68
83.84
99.09
108.75
111.60
107.35
96.72
81.25
62.93
43.86
26.01
11.02
0.14
-6.00
-7.58
-5.63
-1.88
1.75
3.68
3.07
-0.16
-5.68
-13.21
-22.72
-34.30
-47.65
-61.51
-73.57
-80.96
-81.20
-73.12
-57.42
-36.39
-13.05
9.80
30.13
46.77
58.99
66.17
67.80
63.88
55.27
43.59
30.61
17.46
4.16
-10.13
-26.31
-44.27
-62.57
-78.75
-90.34
-96.05
-96.27
-92.88
-88.39
-84.81
-82.91
-82.12
-80.98
-77.97
-72.22
-63.81
-53.57
-42.69
-32.05
-22.07
-12.75
-3.98
4.23
11.72
18.44
24.67
31.15
38.88
48.65
60.56
73.89
87.17
98.78
107.46
112.73
114.89
114.60
112.33
107.92
100.65
89.61
74.45
55.87
35.57
15.67
-2.05
-16.69
-28.29
-37.29
-44.06
-48.56
-50.45
-49.61
-46.40
-41.77
-36.79
-32.23
-28.33
-24.94
-21.90
-19.27
-17.36
-16.43
-16.31
-16.48
-16.32
-15.58
-14.61
-14.07
-14.43
-15.52
-16.57
-16.74
-15.76
-14.30
-13.87
-16.18
-22.40
-32.59
-45.49
-58.90
-70.12
-76.91
-78.04
-73.88
-66.26
-57.85
-51.21
-47.73
-47.25
-48.31
-49.24
-49.05
-47.97
-47.18
-47.94
-50.78
-55.03
-59.06
-60.93
-59.14
-53.21
-43.68
-31.88
-19.36
-7.27
4.03
15.07
27.17
41.99
61.11
85.64
115.72
150.23
186.57
220.87
248.60
265.69
269.69
260.58
240.83
214.67
186.88
161.51
141.09
126.38
116.60
109.83
103.56
95.15
82.32
63.59
38.73
9.03
-22.65
-52.45
-76.33
-91.38
-96.77
-94.20
-87.25
-80.06
-75.77
-75.48
-78.18
-81.42
-82.58
-79.96
-73.38
-64.17
-54.68
-47.34
-43.49
-42.63
-42.34
-39.21
-30.59
-16.29
0.85
15.72
23.07
19.70
5.76
-15.64
-39.95
-62.97
-81.91
-95.61
-103.89
-107.03
-105.49
-100.14
-92.41
-84.10
-76.91
-71.70
-68.14
-64.73
-59.33
-50.03
-36.04
-18.20
1.01
18.06
29.54
33.33
29.42
19.90
8.08
-2.69
-9.98
-12.73
-10.94
-5.20
3.64
14.52
26.06
36.56
44.39
48.56
49.12
47.12
44.15
41.50
39.62
37.96
35.26
30.21
22.08
11.22
-0.87
-11.91
-19.54
-22.12
-19.29
-12.08
-2.49
7.31
15.59
21.41
24.54
25.09
23.21
18.96
12.41
3.82
-6.23
-16.76
-26.37
-33.44
-36.38
-34.11
-26.54
-14.79
-1.08
11.85
21.48
26.20
25.50
19.97
10.95
0.33
-9.68
-16.83
-19.29
-16.21
-8.13
3.14
15.06
25.18
31.80
34.13
32.18
26.28
16.97
5.04
-8.32
-21.47
-32.57
-40.04
-43.13
-42.18
-38.49
-33.92
-30.32
-28.92
-29.95
-32.62
-35.49
-37.05
-36.42
-33.72
-29.91
-26.37
-24.16
-23.54
-23.88
-24.00
-22.71
-19.40
-14.19
-7.90
-1.58
3.89
8.10
11.03
12.81
13.44
12.74
10.47
6.63
1.64
-3.76
-8.77
-12.83
-15.86
-18.20
-20.44
-23.12
-26.67
-31.28
-37.00
-43.69
-51.02
-58.27
-64.36
-67.91
-67.62
-62.71
-53.23
-40.10
-24.90
-9.40
4.90
17.02
26.47
33.15
37.21
38.97
38.93
37.74
36.08
34.49
33.24
32.35
31.69
31.16
30.64
30.00
28.98
27.17
24.13
19.52
13.29
5.73
-2.54
-10.72
-17.88
-23.12
-25.57
-24.41
-19.12
-9.61
3.53
19.10
35.40
50.63
63.24
72.13
76.76
76.98
73.03
65.49
55.41
44.23
33.56
24.78
18.56
14.77
12.55
10.79
8.60
5.57
1.79
-2.34
-6.38
-10.04
-13.08
-15.32
-16.39
-15.74
-12.74
-6.94
1.69
12.55
24.42
35.75
45.02
51.25
54.14
54.13
52.13
49.20
46.24
43.75
41.72
39.77
37.29
33.71
28.76
22.69
16.14
9.95
4.83
1.11
-1.35
-3.05
-4.67
-6.91
-10.31
-15.05
-20.79
-26.47
-30.46
-31.00
-26.81
-17.70
-4.78
9.83
23.65
34.54
41.23
43.41
41.47
36.22
28.56
19.40
9.50
-0.44
-9.99
-19.01
-27.68
-36.34
-45.25
-54.33
-63.05
-70.51
-75.89
-78.86
-79.95
-80.50
-82.18
-86.17
-92.49
-99.73
-105.35
-106.64
-101.75
-90.38
-73.91
-54.79
-35.71
-18.76
-5.16
4.71
10.99
14.04
14.29
12.32
8.84
4.75
0.87
-2.23
-4.36
-5.60
-6.19
-6.35
-6.16
-5.62
-4.78
-3.82
-3.24
-3.71
-5.90
-10.06
-15.73
-21.54
-25.51
-25.57
-20.35
-9.71
5.11
21.92
38.20
51.86
61.69
67.40
69.48
68.80
66.35
62.99
59.38
55.91
52.68
49.54
46.18
42.31
37.80
32.75
27.45
22.31
17.54
13.13
8.69
3.59
-2.80
-10.79
-20.05
-29.53
-37.49
-42.01
-41.43
-34.93
-22.86
-6.67
11.39
28.89
43.72
54.51
60.72
62.52
60.52
55.53
48.46
40.14
31.35
22.69
14.58
7.23
0.70
-4.97
-9.72
-13.47
-16.34
-18.76
-21.57
-25.73
-32.07
-40.76
-51.10
-61.54
-69.92
-74.09
-72.42
-64.32
-50.42
-32.47
-13.04
5.05
19.31
28.03
30.54
27.31
19.60
9.06
-2.60
-13.98
-24.01
-32.08
-37.89
-41.41
-42.82
-42.47
-40.81
-38.39
-35.73
-33.28
-31.32
-30.02
-29.40
-29.40
-29.93
-30.82
-31.77
-32.23
-31.43
-28.53
-22.95
-14.73
-4.65
5.89
15.33
22.44
26.64
28.01
27.09
24.52
20.88
16.64
12.17
7.82
3.84
0.38
-2.54
-5.00
-7.01
-8.56
-9.63
-10.43
-11.50
-13.64
-17.68
-24.12
-32.80
-42.82
-52.66
-60.53
-64.78
-64.25
-58.48
-47.75
-32.96
-15.38
3.50
22.18
39.11
52.78
61.80
65.17
62.71
55.26
44.69
33.36
23.34
15.67
10.06
5.12
-0.96
-9.78
-22.16
-37.98
-56.20
-74.97
-91.91
-104.66
-111.70
-112.90
-109.64
-104.08
-97.95
-91.58
-83.60
-71.78
-54.31
-30.94
-3.07
27.01
57.31
86.86
115.57
143.42
169.64
192.46
209.68
219.53
221.46
216.36
206.08
192.71
177.92
162.70
147.54
132.69
118.51
105.41
93.74
83.54
74.49
65.95
57.26
47.96
38.05
28.07
19.10
12.47
9.47
10.92
16.77
26.01
36.79
46.86
54.17
57.40
56.22
51.24
43.64
34.80
26.01
18.32
12.75
10.21
11.43
16.60
24.98
34.77
43.32
47.86
46.32
38.02
23.86
5.90
-13.49
-32.31
-49.27
-63.73
-75.27
-83.40
-87.54
-87.29
-82.76
-74.78
-64.73
-54.14
-44.26
-35.72
-28.49
-22.14
-16.18
-10.35
-4.82
-0.12
3.07
4.24
3.26
0.38
-3.88
-8.94
-14.40
-20.08
-25.93
-31.83
-37.53
-42.60
-46.65
-49.61
-51.84
-54.00
-56.73
-60.16
-63.68
-66.12
-66.26
-63.27
-57.09
-48.32
-37.97
-27.22
-17.48
-10.12
-5.89
-5.16
-7.54
-11.44
-14.60
-15.12
-12.39
-7.64
-2.93
0.50
2.82
5.71
11.73
22.83
39.27
59.53
80.88
101.48
122.30
145.48
172.91
205.29
241.07
276.66
307.51
328.50
336.95
335.32
326.37
311.74
292.87
270.64
245.84
219.55
190.45
158.41
128.91
104.15
82.41
61.78
40.56
17.72
-7.01
-37.85
-76.73
-115.74
-150.66
-182.22
-211.01
-237.69
-262.98
-287.35
-316.66
-353.78
-388.46
-415.11
-434.81
-448.71
-458.49
-466.24
-436.77
-355.88
-285.14
-241.84
-208.52
-179.00
-149.67
-119.54
-89.92
-63.38
-48.30
-49.41
-56.93
-64.07
-69.28
-70.23
-65.15
-53.46
-36.02
-19.38
-8.70
0.81
11.09
20.07
26.75
30.47
30.77
27.54
18.58
3.89
-9.60
-17.01
-17.31
-10.67
0.99
14.43
25.94
31.15
28.19
20.38
11.87
6.00
5.44
10.94
20.98
32.43
41.20
44.38
41.83
34.77
25.10
15.08
6.45
-0.03
-4.53
-7.84
-10.76
-13.64
-16.16
-17.44
-16.33
-11.81
-3.39
8.72
23.60
39.94
56.30
71.33
83.87
92.89
97.62
97.64
93.17
85.22
75.61
66.56
60.04
57.15
57.87
61.25
66.02
71.01
75.51
79.25
82.16
83.97
84.23
82.58
79.12
74.83
70.87
68.26
67.53
68.63
71.04
74.02
76.97
79.53
81.74
83.12
82.92
80.71
76.95
72.71
69.23
67.43
67.46
69.19
71.21
71.71
69.72
65.69
60.96
56.84
54.03
52.26
51.11
48.71
42.68
31.53
15.19
-5.50
-29.47
-55.57
-86.24
-116.37
-137.83
-146.21
-143.11
-133.08
-120.49
-108.12
-96.90
-86.63
-76.37
-67.12
-61.61
-62.39
-70.05
-82.69
-96.42
-106.68
-110.18
-105.76
-95.86
-85.08
-77.57
-75.08
-77.13
-81.68
-86.33
-88.99
-87.98
-82.79
-73.76
-61.93
-47.56
-31.27
-14.01
3.30
20.16
36.53
52.27
66.75
78.77
86.67
88.47
82.66
69.07
49.40
26.76
4.63
-14.34
-28.95
-39.57
-47.57
-54.36
-60.66
-66.17
-70.38
-73.15
-75.04
-77.08
-80.18
-84.64
-89.71
-95.54
-101.04
-104.93
-106.13
-103.96
-98.18
-88.96
-76.83
-62.61
-47.44
-32.44
-18.96
-8.33
-1.63
0.63
-1.30
-6.41
-13.10
-19.61
-24.28
-26.19
-25.25
-22.05
-17.52
-12.51
-7.65
-3.31
0.13
2.21
2.21
-0.70
-7.07
-16.79
-28.83
-41.27
-51.62
-57.31
-56.29
-47.60
-31.66
-10.22
14.11
38.43
60.13
77.34
89.10
95.35
96.77
94.46
89.75
83.88
77.79
72.07
66.91
62.36
58.36
54.91
52.02
49.67
47.72
45.98
44.18
42.03
39.21
35.44
30.73
25.62
21.38
19.96
23.56
33.95
51.87
76.61
106.05
137.18
166.70
191.62
209.69
219.62
221.07
214.56
201.23
182.40
159.19
132.20
101.53
67.11
29.23
-11.07
-51.95
-91.05
-126.01
-154.87
-176.27
-189.43
-194.23
-191.30
-182.24
-169.47
-155.67
-142.95
-132.02
-122.02
-110.99
-97.00
-79.13
-57.98
-35.46
-13.97
4.43
18.61
28.35
34.07
36.36
35.75
32.69
27.59
20.91
13.22
5.06
-3.16
-11.17
-18.84
-26.03
-32.49
-37.85
-41.65
-43.58
-43.72
-42.59
-41.13
-40.36
-40.91
-42.64
-44.55
-45.01
-42.35
-35.44
-24.13
-9.45
6.82
22.51
35.75
45.32
50.91
53.03
52.70
51.08
49.09
47.24
45.59
43.99
42.32
40.69
39.35
38.59
38.46
38.82
39.30
39.47
38.89
37.23
34.29
30.09
25.05
20.10
16.57
15.93
19.30
27.05
38.52
52.24
66.26
78.76
88.36
94.37
96.68
95.64
91.82
85.93
78.68
70.85
63.10
55.90
49.44
43.55
37.83
31.82
25.29
18.40
11.73
6.18
2.60
1.49
2.72
5.46
8.35
9.99
9.29
5.95
0.58
-5.42
-10.24
-12.22
-10.27
-4.19
5.31
16.88
28.93
40.10
49.53
56.89
62.25
65.85
67.98
68.88
68.84
68.21
67.35
66.62
66.30
66.65
67.92
70.45
74.57
80.44
87.77
95.73
102.90
107.55
108.00
103.17
93.00
78.69
62.66
48.12
38.43
36.29
43.04
58.26
79.76
104.12
127.49
146.52
159.17
164.96
164.73
159.96
151.70
139.80
122.64
97.55
61.74
13.47
-46.95
-116.58
-189.77
-258.82
-315.37
-352.39
-366.30
-358.24
-333.76
-301.06
-268.09
-240.14
-218.83
-202.84
-189.80
-177.98
-166.90
-156.77
-147.39
-137.49
-125.12
-108.67
-87.84
-63.92
-39.24
-16.10
4.11
21.15
35.60
48.18
59.10
67.85
73.45
75.01
72.26
65.83
57.04
47.43
38.13
29.55
21.46
13.33
4.85
-3.79
-11.90
-18.68
-23.57
-26.65
-28.54
-30.23
-32.65
-36.30
-41.10
-46.39
-51.28
-54.89
-56.62
-56.17
-53.48
-48.66
-41.89
-33.48
-23.89
-13.63
-3.35
6.21
14.31
20.35
24.09
25.65
25.51
24.40
23.22
22.64
22.90
23.73
24.52
24.70
23.91
22.13
19.56
16.84
14.47
12.69
11.39
10.32
9.38
8.63
8.19
8.11
9.23
12.06
16.44
21.39
25.63
28.17
28.66
27.17
24.07
21.68
22.06
25.97
32.49
39.82
46.44
51.52
54.69
55.80
57.80
63.32
73.17
85.81
98.52
109.21
116.93
121.71
124.22
129.52
142.50
165.70
198.24
237.15
279.64
323.87
368.88
389.50
368.24
302.75
208.51
107.07
13.58
-65.64
-129.51
-178.86
-215.27
-237.09
-243.94
-238.32
-225.55
-211.33
-199.30
-190.74
-185.58
-183.64
-182.11
-178.32
-171.20
-161.46
-150.40
-138.74
-126.75
-114.84
-103.95
-93.45
-82.64
-71.81
-62.07
-54.91
-50.74
-49.33
-49.76
-50.65
-49.73
-45.27
-37.61
-28.53
-20.34
-14.47
-10.92
-8.52
-5.88
-2.37
2.45
7.30
10.50
10.59
6.60
-2.03
-15.55
-33.63
-54.67
-72.46
-81.75
-78.18
-60.52
-32.29
-0.85
25.54
41.32
45.81
42.90
37.88
34.69
34.78
37.04
39.68
41.86
44.20
48.18
54.77
63.16
71.51
77.92
81.10
81.13
79.29
77.20
75.99
75.80
75.48
73.29
68.96
62.29
53.61
43.74
33.62
24.05
15.49
7.92
1.10
-5.24
-11.53
-18.01
-24.77
-31.69
-38.59
-45.21
-51.29
-56.49
-60.54
-63.39
-65.16
-66.04
-66.32
-66.18
-65.72
-64.95
-63.89
-62.56
-61.15
-59.79
-58.54
-57.31
-55.94
-54.31
-52.41
-50.44
-48.66
-47.36
-46.56
-45.98
-45.09
-43.32
-40.30
-36.05
-30.99
-25.68
-20.69
-16.30
-12.56
-9.41
-6.86
-5.13
-4.58
-5.51
-8.04
-11.89
-16.55
-21.31
-25.49
-28.58
-30.34
-30.83
-30.43
-29.74
-29.43
-30.10
-32.12
-35.49
-39.87
-44.52
-48.49
-50.63
-49.85
-45.35
-36.88
-24.93
-10.63
4.57
19.43
33.24
45.93
57.78
69.00
79.48
88.75
96.23
101.49
104.30
104.58
102.32
97.57
90.57
81.98
72.77
64.01
56.47
50.25
44.87
39.44
33.13
25.51
16.75
7.60
-0.85
-7.44
-11.24
-11.76
-9.11
-3.93
2.76
9.76
15.89
20.12
21.63
20.02
15.40
8.49
0.53
-7.11
-13.28
-17.51
-20.10
-21.90
-23.91
-26.87
-30.98
-35.94
-41.20
-46.29
-50.98
-55.29
-59.36
-63.19
-66.57
-69.08
-70.19
-69.53
-66.97
-62.68
-57.04
-50.45
-43.27
-35.71
-27.95
-20.14
-12.54
-5.53
0.48
5.07
7.89
8.71
7.53
4.65
0.74
-3.28
-6.41
-7.94
-7.72
-6.32
-4.85
-4.54
-6.25
-10.26
-16.21
-23.39
-31.06
-38.66
-45.77
-51.94
-56.57
-58.90
-58.26
-54.40
-47.66
-39.04
-29.88
-21.51
-14.88
-10.35
-7.73
-6.55
-6.29
-6.54
-7.07
-7.69
-8.19
-8.32
-7.93
-7.13
-6.30
-5.98
-6.53
-7.91
-9.56
-10.56
-10.07
-7.66
-3.56
1.43
6.17
9.64
11.24
11.01
9.66
8.40
8.55
11.18
16.78
25.10
35.27
46.02
56.03
64.20
69.72
72.16
71.40
67.61
61.26
53.01
43.66
33.94
24.51
15.86
8.42
2.51
-1.58
-3.79
-4.33
-3.77
-2.94
-2.86
-4.45
-8.39
-14.82
-23.24
-32.46
-40.88
-46.89
-49.32
-47.87
-43.11
-36.19
-28.37
-20.65
-13.57
-7.30
-1.96
2.29
5.18
6.49
6.18
4.47
1.76
-1.54
-5.05
-8.43
-11.25
-13.08
-13.51
-12.39
-9.97
-6.85
-3.89
-1.89
-1.39
-2.52
-4.96
-8.10
-11.04
-12.81
-12.49
-9.42
-3.43
5.13
15.40
26.19
36.30
44.74
50.86
54.49
55.79
55.15
53.02
49.78
45.75
41.19
36.40
31.67
27.32
23.54
20.36
17.67
15.23
12.79
10.15
7.24
3.99
0.38
-3.65
-8.09
-12.76
-17.19
-20.61
-22.13
-21.02
-16.97
-10.27
-1.70
7.69
16.95
25.40
32.70
38.66
43.08
45.70
46.26
44.73
41.37
36.76
31.62
26.60
22.13
18.30
14.92
11.62
8.09
4.10
-0.34
-5.07
-9.93
-14.84
-19.80
-24.82
-29.70
-33.96
-36.88
-37.76
-36.23
-32.42
-26.95
-20.66
-14.31
-8.34
-2.84
2.27
7.11
11.69
15.89
19.55
22.48
24.54
25.62
25.67
24.67
22.67
19.77
16.17
12.13
7.92
3.79
-0.12
-3.85
-7.60
-11.63
-16.00
-20.46
-24.38
-26.92
-27.27
-25.04
-20.34
-13.86
-6.59
0.42
6.28
10.54
13.11
14.27
14.49
14.19
13.64
12.85
11.72
10.10
8.00
5.54
2.96
0.49
-1.78
-3.80
-5.61
-7.24
-8.78
-10.46
-12.64
-15.62
-19.55
-24.08
-28.37
-31.19
-31.24
-27.68
-20.39
-10.16
1.60
13.20
23.18
30.65
35.40
37.70
38.04
36.89
34.63
31.53
27.87
23.89
19.79
15.61
11.26
6.62
1.71
-3.26
-7.96
-12.04
-15.32
-17.91
-20.21
-22.62
-25.36
-28.23
-30.57
-31.47
-30.08
-25.97
-19.23
-10.48
-0.59
9.50
19.05
27.49
34.39
39.45
42.45
43.36
42.30
39.52
35.39
30.32
24.77
19.28
14.40
10.61
8.16
6.99
6.71
6.72
6.36
5.05
2.44
-1.53
-6.61
-12.17
-17.23
-20.58
-21.03
-17.76
-10.56
-0.01
12.63
25.80
38.01
48.26
56.16
61.86
65.79
68.38
69.87
70.20
69.10
66.23
61.41
54.70
46.49
37.46
28.39
19.96
12.61
6.39
1.07
-3.75
-8.53
-13.74
-19.70
-26.42
-33.47
-39.98
-44.87
-47.13
-46.06
-41.66
-34.59
-26.05
-17.39
-9.75
-3.90
-0.24
1.18
0.78
-0.90
-3.32
-6.09
-8.94
-11.73
-14.46
-17.26
-20.28
-22.93
-24.61
-25.10
-24.71
-24.02
-23.75
-24.57
-27.18
-32.01
-37.86
-43.30
-47.17
-48.88
-48.01
-44.10
-36.97
-27.05
-15.35
-1.14
15.85
34.89
54.37
72.89
90.14
106.68
123.21
139.99
159.11
181.21
204.76
226.53
243.72
255.29
261.91
264.72
248.81
206.78
142.63
70.49
4.63
-47.20
-83.63
-106.62
-119.60
-126.10
-126.55
-121.20
-111.26
-99.56
-88.79
-81.38
-77.20
-75.30
-74.50
-72.09
-66.54
-58.24
-49.65
-43.26
-40.95
-43.05
-49.15
-58.76
-70.59
-84.24
-96.87
-107.69
-116.50
-124.35
-132.08
-140.25
-149.13
-158.05
-165.98
-171.86
-175.45
-176.79
-176.96
-175.93
-172.27
-164.07
-149.73
-128.83
-102.10
-71.66
-33.83
8.04
46.33
74.68
91.72
100.03
103.25
104.40
105.16
106.34
107.28
107.68
108.25
109.80
112.69
116.88
122.20
128.02
133.29
137.04
136.69
131.20
120.64
105.58
86.71
65.03
41.97
19.56
-0.21
-15.15
-23.07
-22.97
-15.48
-2.51
13.70
31.41
49.59
67.47
84.39
98.61
107.92
110.25
103.84
87.60
61.10
24.76
-19.68
-68.59
-116.05
-154.90
-178.98
-185.94
-178.05
-161.42
-143.48
-130.17
-123.99
-123.45
-124.29
-121.77
-113.60
-99.78
-81.60
-60.18
-35.84
-8.37
22.20
55.04
87.92
116.00
134.18
138.88
129.32
107.30
76.27
40.41
4.12
-28.30
-54.75
-73.80
-84.60
-87.38
-84.81
-82.55
-87.38
-104.26
-122.03
-128.51
-116.34
-88.57
-54.81
-24.50
-3.08
9.41
17.28
25.82
35.98
44.95
48.46
44.26
33.75
20.74
9.68
3.41
2.16
2.67
1.33
-3.80
-12.32
-22.40
-32.42
-41.11
-47.26
-49.37
-46.83
-39.81
-29.58
-19.15
-10.30
-4.80
-3.12
-3.88
-4.33
-2.25
3.36
11.90
21.47
29.90
35.45
37.79
38.01
38.27
40.55
45.88
54.22
64.04
73.21
79.41
80.98
77.40
69.71
60.03
51.19
46.23
46.79
52.96
63.54
76.94
89.63
99.36
104.80
105.53
102.21
95.03
84.09
69.52
51.67
30.92
7.84
-17.90
-47.81
-79.99
-110.56
-135.49
-152.52
-161.47
-163.55
-159.88
-151.85
-143.99
-135.66
-126.65
-117.25
-108.18
-100.15
-93.35
-85.88
-75.04
-56.54
-27.86
10.83
57.16
107.32
153.68
187.23
203.65
205.34
198.83
190.21
181.78
172.75
161.05
149.26
136.19
122.81
110.54
99.78
89.76
78.71
64.67
45.97
20.80
-9.23
-39.73
-66.42
-87.00
-101.51
-112.00
-121.49
-132.86
-147.39
-163.81
-179.04
-190.99
-200.08
-208.40
-217.98
-229.18
-240.11
-246.31
-241.28
-219.20
-177.92
-119.68
-48.48
32.17
119.67
207.33
279.01
317.40
314.70
275.99
214.04
144.67
82.25
35.74
6.45
-10.31
-20.59
-29.34
-38.24
-46.88
-53.06
-54.90
-53.33
-52.56
-57.28
-68.42
-83.04
-94.14
-95.51
-82.74
-55.40
-17.57
24.53
66.58
110.12
156.21
205.95
245.94
259.76
237.82
183.24
109.92
34.05
-28.25
-76.84
-114.50
-145.72
-173.46
-198.04
-214.87
-219.34
-209.73
-185.90
-150.01
-104.20
-50.83
8.71
74.45
145.04
219.25
283.49
322.92
332.22
320.71
303.04
288.41
288.77
295.24
297.85
288.88
266.69
234.98
192.40
144.33
96.31
52.13
11.14
-27.92
-66.63
-103.88
-136.26
-159.87
-171.81
-172.94
-166.37
-157.22
-148.51
-141.83
-136.44
-130.60
-123.27
-114.32
-105.91
-100.55
-100.53
-105.40
-113.19
-120.85
-125.65
-126.30
-122.80
-117.04
-111.10
-106.38
-102.37
-97.67
-90.78
-80.86
-68.25
-54.02
-40.59
-29.89
-22.42
-17.19
-12.98
-9.15
-5.66
-2.82
-0.71
-0.80
-3.69
-8.16
-11.74
-12.52
-9.98
-4.81
1.59
7.72
9.93
6.12
-2.19
-10.80
-15.91
-15.93
-11.46
-4.51
2.38
3.43
-6.11
-27.16
-57.30
-93.39
-132.54
-171.52
-206.76
-214.04
-180.81
-117.16
-47.28
10.48
50.03
72.94
83.09
84.12
78.81
66.40
46.63
22.86
1.04
-14.15
-20.74
-18.81
-9.66
3.15
16.49
27.13
34.86
41.96
50.06
59.13
67.87
73.91
75.70
72.50
65.05
57.26
54.44
59.68
72.95
91.49
111.70
127.83
133.86
124.59
98.52
58.21
8.69
-42.43
-85.84
-113.34
-120.76
-106.26
-78.26
-50.55
-30.92
-23.46
-27.26
-36.62
-44.87
-47.44
-42.53
-31.11
-13.79
8.98
34.16
57.68
77.05
89.99
93.76
86.34
67.54
40.17
9.06
-19.76
-45.14
-65.53
-80.41
-89.35
-90.34
-80.51
-57.78
-22.04
24.66
78.31
135.35
191.97
244.63
291.43
330.72
359.03
371.23
362.16
331.10
283.20
224.29
157.93
86.72
12.33
-64.79
-143.73
-221.41
-290.05
-326.81
-314.37
-260.13
-191.81
-136.77
-113.95
-117.09
-134.33
-153.48
-166.24
-167.19
-159.55
-146.27
-126.22
-89.08
-34.63
25.05
75.21
107.11
121.38
117.67
97.54
65.99
28.53
-12.29
-55.25
-98.71
-139.47
-167.24
-172.78
-152.75
-113.13
-65.46
-20.99
13.45
36.93
52.16
60.49
60.48
48.92
25.70
-4.64
-34.00
-52.50
-51.29
-25.19
26.80
94.10
160.70
213.17
244.83
255.12
247.41
226.68
203.49
178.09
150.49
122.16
95.85
74.22
58.54
48.72
43.78
42.26
42.10
42.18
41.77
40.72
39.17
37.29
35.27
33.26
31.58
29.77
27.85
25.85
23.69
21.02
17.10
10.96
1.56
-12.03
-30.84
-55.02
-84.13
-117.21
-152.72
-188.58
-222.17
-250.47
-270.41
-279.80
-277.29
-263.03
-239.06
-208.93
-176.73
-145.97
-118.64
-94.98
-74.05
-53.81
-31.68
-5.24
27.09
65.31
107.52
150.37
190.12
223.55
249.70
269.85
285.98
298.72
306.54
306.36
295.79
274.89
245.22
210.66
175.94
144.20
115.51
87.82
58.44
26.21
-8.44
-47.15
-90.23
-135.77
-180.47
-221.26
-255.20
-280.70
-296.67
-303.39
-307.20
-312.55
-318.86
-321.95
-318.05
-305.48
-287.08
-267.25
-250.69
-246.84
-259.31
-283.48
-310.20
-331.86
-344.04
-347.25
-342.36
-293.13
-190.26
-57.60
68.53
167.12
230.14
269.89
291.75
297.54
288.87
261.96
219.10
170.04
127.22
99.20
89.11
93.45
107.31
125.94
140.77
146.76
144.94
137.56
127.33
117.70
109.87
104.04
99.64
93.05
82.57
69.49
56.60
45.40
35.85
25.96
14.60
1.97
-11.97
-25.75
-37.90
-45.02
-45.02
-37.72
-25.24
-10.53
3.26
12.95
17.30
16.05
11.31
6.00
2.69
2.62
5.91
11.60
18.19
24.07
27.89
28.98
27.16
22.80
16.88
11.37
8.54
10.53
18.69
32.78
50.85
69.26
84.10
91.49
91.33
85.71
77.35
67.72
56.16
40.70
19.92
-5.20
-30.92
-51.85
-64.05
-66.73
-62.54
-56.01
-51.29
-50.16
-51.59
-52.90
-51.22
-45.56
-37.01
-28.03
-21.26
-18.37
-19.56
-23.66
-28.94
-33.75
-37.32
-39.73
-41.40
-42.63
-43.26
-42.67
-40.13
-35.61
-28.89
-20.57
-11.62
-2.83
5.20
12.09
17.52
21.04
22.05
20.21
15.59
9.07
2.35
-2.57
-3.91
-0.80
6.44
16.30
26.65
35.37
40.71
41.55
37.41
28.36
14.77
-2.72
-23.29
-45.87
-68.85
-90.37
-108.62
-122.11
-130.04
-132.50
-130.50
-125.77
-120.37
-115.97
-114.10
-116.08
-122.85
-134.62
-150.55
-168.52
-185.46
-198.03
-203.06
-199.05
-186.57
-168.00
-146.51
-124.80
-104.03
-83.27
-64.11
-46.50
-30.19
-15.10
-1.36
10.91
21.86
31.97
42.01
52.79
65.76
82.27
103.20
128.43
156.27
183.40
205.48
218.41
219.64
209.32
189.64
163.82
135.02
105.84
78.39
54.72
37.00
27.14
26.45
34.81
50.63
71.51
94.89
118.51
140.25
157.92
169.16
172.12
165.95
151.33
130.41
106.10
81.14
57.40
35.69
16.05
-1.83
-18.46
-34.53
-50.87
-68.18
-86.43
-104.32
-119.38
-128.66
-129.96
-122.98
-109.65
-93.48
-78.29
-66.72
-59.46
-55.41
-52.51
-48.86
-43.47
-36.25
-27.64
-17.99
-7.50
3.53
14.22
22.97
27.88
27.52
21.70
11.61
-0.60
-12.64
-22.71
-29.67
-32.82
-31.55
-25.48
-14.74
-0.57
14.55
27.45
35.37
37.03
33.32
27.04
21.89
21.08
26.27
37.08
51.41
66.40
79.34
88.38
92.71
92.36
88.08
81.12
73.20
66.32
62.35
62.42
66.37
72.78
79.34
83.74
84.61
81.88
76.77
71.09
66.41
63.52
62.29
62.02
62.06
62.34
63.51
66.73
73.23
83.69
97.86
114.48
131.44
146.37
157.26
162.99
163.56
159.93
153.48
145.49
136.68
127.13
116.43
103.95
89.01
71.00
49.42
23.99
-5.11
-37.07
-70.51
-103.61
-134.57
-161.94
-184.86
-203.01
-216.42
-225.19
-229.20
-228.11
-221.38
-208.54
-189.50
-164.84
-136.01
-105.19
-74.93
-47.66
-25.21
-8.56
2.14
7.35
7.80
4.26
-2.61
-12.13
-23.46
-35.47
-46.78
-56.02
-62.18
-64.98
-65.01
-63.50
-61.90
-61.29
-62.00
-63.55
-64.90
-64.99
-63.08
-58.89
-52.53
-44.21
-34.16
-22.62
-9.99
3.05
15.59
26.68
35.55
41.79
45.47
47.04
47.17
46.61
45.97
45.60
45.50
45.37
44.79
43.41
41.11
38.04
34.43
30.37
25.72
20.18
13.57
5.99
-2.18
-10.34
-17.93
-24.47
-29.44
-32.31
-32.43
-29.38
-23.09
-14.05
-3.12
8.77
20.84
32.56
43.39
52.66
59.47
63.02
62.97
59.78
54.51
48.47
42.61
37.19
31.83
25.92
19.15
11.79
4.65
-1.33
-5.59
-8.21
-9.97
-11.85
-14.62
-18.39
-22.49
-25.67
-26.49
-23.76
-16.92
-6.14
7.64
22.95
38.02
51.18
61.03
66.75
68.09
65.42
59.59
51.86
43.52
35.70
28.99
23.46
18.75
14.44
10.29
6.33
2.74
-0.42
-3.35
-6.43
-10.04
-14.31
-19.08
-24.06
-29.02
-33.83
-38.27
-41.75
-43.25
-41.67
-36.26
-27.20
-15.69
-3.60
7.18
15.36
20.50
22.84
22.94
21.25
18.10
13.75
8.65
3.42
-1.35
-5.37
-8.83
-12.31
-16.41
-21.40
-27.02
-32.57
-37.22
-40.31
-41.68
-41.71
-41.15
-40.95
-41.87
-44.25
-47.84
-51.80
-54.90
-55.79
-53.37
-47.10
-37.21
-24.69
-11.15
1.53
11.69
18.26
21.12
21.08
19.68
18.70
19.63
23.14
28.84
35.32
40.58
42.64
40.16
32.81
21.25
6.75
-9.31
-25.81
-42.05
-57.63
-72.27
-85.63
-97.33
-106.89
-113.78
-117.35
-116.91
-111.95
-102.38
-88.82
-72.45
-54.75
-36.96
-19.74
-3.15
13.01
28.75
43.65
56.93
67.83
76.02
81.79
85.86
88.91
91.15
92.20
91.27
87.60
80.85
71.43
60.46
49.46
39.94
32.94
28.76
26.95
26.51
26.25
25.17
22.70
18.73
13.50
7.40
0.93
-5.36
-10.90
-15.07
-17.41
-17.81
-16.70
-14.88
-13.29
-12.54
-12.54
-12.60
-11.63
-8.72
-3.54
3.41
11.07
18.18
23.75
27.28
28.78
28.57
27.08
24.72
21.86
18.84
16.00
13.60
11.87
11.05
11.48
13.61
17.91
24.67
33.79
44.64
56.21
67.41
77.37
85.70
92.52
98.26
103.51
108.79
114.50
120.75
127.19
132.78
135.77
133.89
125.06
108.21
83.79
53.81
21.21
-11.13
-41.20
-68.29
-92.76
-115.45
-137.12
-157.98
-177.56
-194.62
-207.34
-213.55
-211.28
-199.46
-178.65
-151.28
-121.20
-92.64
-68.89
-51.29
-38.99
-29.51
-19.94
-8.22
6.01
21.36
35.40
45.78
51.28
52.23
50.18
47.09
44.46
42.90
42.23
41.99
41.81
41.36
40.08
36.91
30.55
20.16
6.15
-9.61
-24.25
-34.97
-40.04
-39.28
-33.74
-24.92
-14.14
-2.38
9.51
20.51
29.48
35.62
38.97
40.54
41.99
44.67
48.83
53.46
56.66
56.54
51.97
42.97
30.79
17.63
6.10
-1.48
-3.72
-0.70
6.03
13.89
20.06
22.43
20.46
15.01
7.91
1.44
-2.20
-1.16
5.72
18.48
35.87
56.02
76.20
92.91
102.18
100.25
84.44
54.18
11.48
-39.02
-89.63
-132.52
-162.19
-177.11
-179.38
-173.00
-161.96
-149.06
-135.58
-119.54
-98.64
-71.90
-40.60
-7.38
25.28
55.91
83.80
108.28
131.14
154.05
177.92
202.72
228.48
256.16
287.30
322.58
343.66
334.64
288.97
215.01
130.04
50.11
-15.17
-62.28
-92.35
-109.76
-117.56
-118.39
-114.24
-106.79
-97.26
-86.55
-75.86
-66.24
-58.95
-52.83
-46.03
-37.08
-26.10
-14.69
-5.27
0.49
2.22
0.77
-0.99
-0.37
3.49
8.54
13.41
15.14
11.97
4.43
-5.00
-12.28
-14.02
-9.06
0.94
12.35
20.78
23.09
18.05
6.28
-10.05
-28.03
-44.76
-57.86
-65.75
-68.19
-65.88
-60.38
-53.83
-48.48
-46.18
-48.01
-54.11
-63.65
-75.22
-86.91
-96.76
-103.28
-105.84
-104.71
-100.82
-95.35
-89.22
-83.05
-77.04
-71.22
-65.65
-60.45
-55.73
-51.43
-47.25
-42.76
-37.56
-31.44
-24.54
-17.25
-10.13
-3.69
1.78
6.19
9.62
12.14
13.73
14.28
13.74
12.24
10.13
7.89
5.95
4.49
3.47
2.71
2.12
1.75
1.82
2.51
3.89
5.78
7.84
9.70
11.00
11.48
10.98
9.38
6.71
3.12
-1.08
-5.46
-9.53
-12.86
-15.13
-16.24
-16.30
-15.61
-14.62
-13.78
-13.43
-13.70
-14.58
-15.95
-17.68
-19.70
-21.91
-24.21
-26.28
-27.73
-28.09
-27.03
-24.49
-20.73
-16.32
-11.92
-8.16
-5.41
-3.77
-3.08
-3.10
-3.62
-4.46
-5.54
-6.76
-7.98
-9.07
-9.93
-10.56
-11.00
-11.32
-11.56
-11.70
-11.69
-11.44
-10.96
-10.29
-9.64
-9.35
-9.84
-11.68
-15.06
-19.63
-24.47
-28.49
-30.83
-31.17
-29.81
-27.47
-25.15
-23.59
-23.03
-23.36
-24.38
-25.97
-28.17
-30.98
-34.25
-38.06
-42.20
-46.17
-49.34
-51.32
-52.06
-51.67
-50.21
-47.50
-44.23
-40.53
-35.66
-28.37
-17.71
-3.49
13.86
33.68
55.19
75.23
91.29
102.61
110.01
114.41
115.97
114.23
108.60
98.64
80.70
52.96
17.19
-22.00
-59.98
-94.08
-123.76
-149.57
-172.65
-198.58
-230.48
-266.62
-301.51
-329.60
-348.07
-357.04
-358.37
-326.09
-250.25
-142.99
-30.97
64.65
137.21
189.27
225.89
251.81
270.47
279.86
279.08
270.45
258.07
245.05
232.76
219.81
205.09
188.15
166.20
139.02
110.11
84.76
67.32
59.02
58.27
61.98
65.59
62.95
50.93
34.08
18.48
9.71
10.49
20.01
34.75
48.22
53.51
47.66
32.90
14.19
-3.58
-17.26
-25.62
-28.80
-30.17
-34.30
-44.61
-62.52
-88.43
-121.97
-161.08
-201.64
-224.97
-217.31
-180.00
-129.19
-82.29
-48.05
-26.49
-12.87
-1.91
9.45
19.60
25.73
27.06
24.52
22.54
23.83
28.86
36.45
44.46
49.26
48.10
40.79
29.86
19.09
11.25
7.87
10.24
18.21
29.70
42.21
54.07
64.91
75.05
84.20
91.61
96.29
97.28
93.65
85.32
73.39
59.96
47.28
36.64
28.29
21.75
16.11
10.49
4.41
-2.05
-8.51
-14.63
-20.53
-26.70
-33.80
-42.49
-53.08
-65.32
-78.36
-90.90
-101.48
-108.98
-112.83
-113.13
-110.50
-105.74
-99.48
-92.09
-83.66
-74.24
-63.97
-53.14
-42.20
-31.64
-21.91
-13.38
-6.29
-0.73
3.44
6.63
9.47
12.75
17.10
22.80
29.58
36.63
42.90
47.50
49.99
50.67
50.46
50.57
51.98
55.16
59.78
65.10
70.20
74.31
77.06
78.44
78.59
77.67
75.74
72.76
69.04
64.99
60.98
57.34
54.49
52.71
51.92
51.84
51.75
51.38
50.35
48.27
44.72
39.60
32.94
24.80
15.52
5.26
-4.90
-14.23
-22.67
-30.58
-37.68
-42.84
-44.20
-39.29
-27.01
-6.88
18.63
44.42
64.41
75.05
75.47
66.97
51.83
25.62
-12.17
-58.77
-108.98
-158.10
-200.73
-232.28
-253.73
-263.29
-259.09
-237.48
-198.25
-145.39
-86.37
-23.87
39.04
100.17
159.36
217.57
279.69
348.13
420.18
486.93
540.03
570.70
571.01
536.82
453.16
325.73
178.45
48.62
-57.95
-147.13
-225.08
-295.46
-359.77
-417.75
-465.02
-498.63
-518.62
-528.24
-527.09
-513.37
-485.83
-444.48
-391.34
-328.45
-260.85
-196.08
-142.71
-104.01
-79.27
-65.87
-60.69
-61.08
-63.98
-67.80
-72.27
-78.33
-85.44
-93.03
-101.58
-112.06
-124.65
-137.03
-145.54
-146.69
-139.10
-123.40
-103.00
-83.09
-68.50
-61.39
-60.23
-60.85
-58.42
-49.43
-32.35
-7.95
21.29
52.27
82.14
108.72
130.55
146.76
157.03
161.83
162.44
160.80
159.05
158.80
160.57
163.61
166.31
166.82
163.88
157.13
147.16
135.02
121.76
108.20
94.88
82.22
70.58
60.21
51.07
42.83
34.87
26.59
17.55
7.64
-2.97
-13.90
-24.63
-34.42
-42.30
-47.12
-47.81
-43.81
-35.27
-23.22
-9.27
4.89
17.88
29.06
38.50
46.80
54.74
62.89
71.39
79.93
87.99
94.99
100.58
104.63
107.19
108.37
108.24
106.93
104.64
101.69
98.46
95.14
91.67
87.69
82.73
76.47
68.95
60.51
51.66
42.75
33.87
24.78
15.17
4.88
-5.95
-16.90
-27.44
-37.16
-45.85
-53.42
-59.65
-64.12
-66.13
-64.97
-60.21
-51.93
-40.70
-27.46
-13.21
1.18
15.14
28.30
40.49
51.55
61.27
69.29
75.22
78.68
79.45
77.64
73.57
67.71
60.58
52.64
44.40
36.53
29.78
24.89
22.30
21.92
23.18
25.13
26.81
27.54
27.05
25.55
23.40
20.96
18.24
14.85
10.11
3.34
-5.75
-16.68
-28.11
-38.03
-44.40
-45.73
-41.59
-32.72
-20.69
-7.30
5.95
18.16
28.98
38.35
46.14
52.13
56.03
57.71
57.28
55.06
51.40
46.51
40.46
33.27
25.19
16.80
9.01
2.78
-1.23
-2.86
-2.44
-0.55
2.26
5.60
9.14
12.37
14.55
14.81
12.52
7.54
0.29
-8.49
-17.87
-26.69
-33.17
-34.84
-29.17
-14.71
7.73
34.68
60.96
81.55
93.48
96.64
93.23
86.31
78.28
70.33
62.69
55.39
48.73
43.14
38.71
34.83
30.30
23.99
15.42
5.11
-5.58
-15.09
-22.29
-26.91
-29.58
-31.38
-33.27
-35.62
-38.00
-39.55
-39.61
-38.19
-36.14
-34.60
-34.20
-34.49
-33.91
-30.67
-23.69
-13.43
-1.69
9.30
18.12
25.13
32.57
43.70
61.37
86.81
118.83
153.93
187.19
213.45
228.37
229.10
214.68
186.34
147.63
104.16
62.61
28.97
6.64
-4.77
-9.23
-12.49
-19.73
-33.56
-53.54
-77.03
-100.86
-122.58
-140.91
-155.30
-165.42
-170.86
-171.35
-167.20
-159.49
-149.91
-140.22
-131.71
-124.69
-118.55
-112.15
-104.45
-95.08
-84.63
-74.43
-65.94
-60.08
-56.79
-55.08
-53.58
-51.18
-47.52
-42.99
-38.41
-34.50
-31.57
-29.51
-27.99
-26.71
-25.49
-24.18
-22.66
-20.80
-18.69
-16.80
-15.95
-17.10
-20.84
-26.95
-34.31
-41.10
-45.37
-45.57
-41.06
-32.23
-20.46
-7.75
3.79
12.45
17.40
18.82
17.73
15.50
13.26
11.49
10.03
8.39
6.22
3.71
1.46
0.25
0.53
2.17
4.54
6.78
8.21
8.62
8.14
7.09
5.69
3.98
1.83
-0.80
-3.78
-6.77
-9.36
-11.28
-12.52
-13.28
-13.77
-14.01
-13.69
-12.30
-9.38
-4.69
1.58
8.98
16.95
24.94
32.48
39.15
44.51
48.18
49.96
49.93
48.45
45.99
42.96
39.64
36.12
32.45
28.71
25.00
21.41
17.98
14.70
11.54
8.53
5.73
3.17
0.76
-1.73
-4.57
-7.92
-11.78
-15.92
-19.97
-23.53
-26.24
-27.80
-27.96
-26.51
-23.36
-18.62
-12.59
-5.82
1.11
7.74
13.86
19.47
24.62
29.20
32.77
34.77
34.72
32.58
28.85
24.41
20.13
16.50
13.55
10.94
8.35
5.77
3.53
2.17
2.10
3.46
6.09
9.71
14.04
18.90
24.20
29.84
35.67
41.50
47.10
52.28
56.86
60.67
63.64
65.77
67.30
68.69
70.50
73.15
76.60
80.20
82.80
83.10
80.23
74.12
65.69
56.47
48.01
41.24
36.15
32.07
28.22
24.27
20.51
17.51
15.57
14.35
12.92
10.12
5.01
-3.02
-14.44
-29.91
-50.19
-75.80
-106.27
-139.69
-172.84
-201.95
-223.74
-236.42
-240.07
-236.37
-227.85
-217.04
-205.83
-195.28
-185.63
-176.55
-167.33
-156.91
-143.92
-126.91
-104.65
-76.61
-43.30
-6.21
32.59
71.01
107.21
139.61
166.71
187.06
199.77
205.22
205.49
203.95
203.96
207.34
213.39
219.18
220.96
215.82
202.97
183.65
160.29
135.39
110.79
87.69
67.10
49.96
37.01
28.21
22.43
17.66
11.74
3.28
-7.87
-20.70
-33.66
-45.41
-55.29
-63.33
-70.00
-75.94
-81.70
-87.62
-93.74
-99.61
-104.21
-105.97
-103.20
-94.68
-80.31
-61.24
-39.57
-17.52
3.37
22.73
41.31
60.32
80.57
101.61
121.34
136.30
142.52
136.80
118.01
87.70
50.02
10.59
-25.11
-53.30
-72.84
-85.19
-93.42
-100.66
-108.83
-117.93
-126.47
-132.48
-134.83
-133.94
-131.49
-129.43
-128.66
-128.37
-126.31
-119.94
-107.84
-90.65
-70.85
-51.77
-36.12
-24.98
-17.72
-12.66
-8.22
-3.92
-0.66
-0.20
-4.34
-13.91
-28.42
-46.23
-65.09
-82.88
-97.89
-108.90
-114.96
-115.41
-110.00
-99.16
-84.21
-67.08
-49.85
-34.09
-20.43
-8.53
2.61
14.05
26.41
39.56
52.64
64.40
73.60
79.45
81.83
81.17
78.25
73.82
68.32
61.88
54.37
45.57
35.25
23.21
9.23
-6.94
-25.43
-46.11
-68.54
-91.95
-115.35
-137.72
-157.95
-174.74
-186.53
-191.51
-187.96
-174.69
-151.57
-119.80
-81.79
-40.83
-0.32
36.72
68.15
92.91
110.97
123.15
130.72
135.11
137.52
138.69
138.85
137.78
134.96
129.84
122.14
111.98
100.05
87.44
75.34
64.66
55.74
48.31
41.74
35.44
29.08
22.82
17.03
12.04
7.89
4.26
0.70
-3.14
-7.29
-11.51
-15.39
-18.65
-21.24
-23.29
-25.00
-26.45
-27.60
-28.34
-28.65
-28.64
-28.61
-28.75
-28.98
-28.83
-27.65
-24.99
-20.95
-16.40
-12.71
-11.17
-12.53
-16.67
-22.71
-29.45
-35.84
-41.27
-45.59
-48.88
-51.32
-53.03
-54.12
-54.67
-54.68
-54.00
-52.30
-49.15
-44.23
-37.47
-29.18
-20.01
-10.72
-2.08
5.40
11.47
16.13
19.53
21.90
23.42
24.26
24.51
24.26
23.53
22.33
20.81
19.34
18.69
19.90
24.04
31.73
42.70
55.69
68.68
79.61
87.02
90.48
90.55
88.25
84.50
79.77
73.99
66.97
58.72
49.62
40.26
31.02
21.74
11.55
-0.81
-16.56
-36.39
-60.06
-86.43
-113.59
-139.11
-160.40
-175.02
-181.14
-177.98
-166.11
-147.38
-124.51
-100.31
-76.97
-55.60
-36.27
-18.44
-1.52
14.81
30.46
45.17
58.76
71.16
82.37
92.18
100.10
105.44
107.71
106.94
103.90
100.04
97.09
96.53
99.10
104.43
110.99
116.36
117.84
113.27
101.77
84.20
62.99
41.35
22.11
6.81
-4.71
-13.91
-22.73
-32.59
-43.83
-55.54
-66.07
-73.69
-77.26
-76.52
-72.13
-65.37
-57.79
-50.81
-45.44
-42.13
-40.69
-40.40
-40.14
-38.80
-35.97
-32.30
-29.14
-27.49
-26.72
-24.08
-15.27
3.76
34.79
75.57
119.83
159.11
185.50
193.83
182.72
154.33
113.45
66.26
18.87
-23.90
-58.87
-84.41
-100.40
-108.06
-109.36
-105.94
-98.24
-85.63
-67.35
-43.44
-15.58
12.54
35.84
48.86
47.34
33.22
15.51
4.96
7.33
21.29
40.79
59.17
72.18
80.00
84.55
86.74
85.65
79.42
66.88
48.77
27.84
7.82
-7.93
-16.10
-15.85
-8.79
2.10
13.87
24.60
33.64
41.19
47.96
54.80
62.16
70.01
78.00
85.55
92.04
96.76
99.00
98.26
94.35
87.33
77.57
65.75
52.94
40.32
29.03
19.85
13.13
8.76
6.10
4.26
2.20
-1.03
-6.13
-13.44
-22.87
-33.94
-45.94
-58.30
-70.63
-82.87
-95.18
-107.79
-120.82
-134.26
-147.91
-161.46
-174.60
-187.07
-198.72
-209.54
-219.61
-228.91
-237.20
-243.89
-247.99
-248.30
-243.62
-232.96
-215.90
-192.62
-164.02
-131.60
-97.28
-63.18
-31.25
-3.03
20.62
39.50
54.04
65.02
73.26
79.44
83.92
86.87
88.37
88.62
88.04
87.16
86.42
85.97
85.60
84.78
82.90
79.47
74.28
67.49
59.46
50.64
41.35
31.77
22.00
12.20
2.74
-5.72
-12.41
-16.68
-18.30
-17.65
-15.63
-13.45
-12.15
-12.36
-14.12
-17.14
-21.00
-25.39
-30.07
-34.74
-38.96
-42.15
-43.92
-44.31
-43.92
-43.76
-44.90
-48.08
-53.44
-60.67
-69.19
-78.40
-87.82
-96.86
-104.74
-110.36
-112.56
-110.40
-103.60
-92.56
-78.29
-61.78
-43.62
-23.65
-1.30
23.78
51.04
78.74
104.29
125.09
139.45
147.14
149.31
147.90
144.82
141.35
138.01
134.73
131.36
127.85
124.45
121.41
118.83
116.45
113.71
110.09
105.33
99.65
93.61
87.88
82.85
78.60
74.98
71.91
69.50
68.09
67.92
68.75
69.80
69.86
67.84
63.10
55.73
46.35
35.86
25.09
14.64
4.95
-3.60
-10.65
-15.96
-19.50
-21.50
-22.40
-22.58
-22.25
-21.38
-19.87
-17.73
-15.23
-12.82
-11.04
-10.23
-10.45
-11.51
-12.99
-14.40
-15.20
-14.88
-13.03
-9.49
-4.46
1.46
7.39
12.37
15.71
17.06
16.49
14.27
10.73
6.13
0.69
-5.37
-11.70
-17.95
-23.81
-29.15
-34.06
-38.74
-43.31
-47.75
-51.80
-55.18
-57.70
-59.35
-60.35
-61.00
-61.52
-61.95
-62.18
-61.93
-60.92
-58.87
-55.52
-50.67
-44.20
-36.16
-26.82
-16.61
-6.06
4.37
14.35
23.67
32.11
39.41
45.27
49.48
52.04
53.15
53.09
52.07
50.15
47.29
43.45
38.85
33.92
29.18
24.94
21.18
17.66
14.10
10.37
6.47
2.61
-0.87
-3.66
-5.54
-6.36
-6.07
-4.72
-2.46
0.27
3.06
5.62
7.80
9.43
10.30
10.25
9.19
7.24
4.21
0.38
-3.56
-6.81
-9.00
-10.34
-11.42
-12.85
-14.98
-18.70
-23.87
-29.46
-34.27
-38.06
-41.86
-47.40
-56.33
-69.53
-88.35
-111.96
-137.51
-161.15
-179.95
-192.82
-200.37
-204.24
-206.42
-210.42
-217.09
-223.79
-225.19
-216.15
-194.06
-159.62
-116.52
-57.70
12.97
83.23
139.36
175.41
193.53
199.11
197.01
190.64
182.29
171.21
157.06
139.84
121.06
102.50
85.84
72.87
65.18
63.48
65.10
69.54
73.13
73.02
68.16
59.33
48.23
36.43
24.70
11.72
-3.32
-20.19
-36.86
-51.06
-61.50
-68.18
-72.03
-74.30
-76.53
-79.04
-81.16
-81.18
-77.76
-70.77
-61.39
-52.46
-44.71
-38.65
-33.94
-29.68
-24.66
-18.19
-10.57
-2.90
3.59
8.20
10.76
11.73
11.69
11.16
10.41
9.35
7.72
5.31
2.09
-1.86
-6.48
-11.66
-17.16
-22.65
-27.75
-32.17
-35.69
-39.32
-43.54
-48.49
-53.91
-59.18
-63.54
-66.33
-67.17
-65.97
-62.90
-58.30
-52.75
-46.95
-41.52
-36.68
-32.14
-27.11
-20.63
-11.93
-0.74
12.50
26.73
40.67
53.13
63.18
70.21
73.91
74.22
71.47
66.32
59.67
52.51
45.69
39.65
34.40
29.66
25.13
20.77
16.75
13.30
10.49
8.09
5.57
2.33
-2.13
-7.98
-14.95
-22.35
-29.12
-33.98
-35.64
-33.15
-26.24
-15.51
-2.32
11.50
24.14
34.27
41.21
44.96
45.91
44.64
41.75
37.71
33.01
28.11
23.51
19.56
16.44
14.01
11.90
9.64
6.94
3.80
0.57
-2.27
-4.44
-6.08
-7.73
-10.05
-13.42
-17.51
-21.28
-23.22
-21.94
-16.67
-7.63
4.16
17.28
30.41
42.67
53.64
63.19
71.21
77.56
82.15
85.02
86.50
87.12
87.34
87.39
87.11
85.97
83.25
78.27
70.62
60.27
47.70
33.72
19.29
5.21
-8.30
-21.64
-35.81
-52.00
-71.05
-92.95
-116.50
-139.44
-158.82
-171.74
-176.01
-170.68
-156.24
-134.37
-107.50
-78.24
-48.96
-21.58
2.61
22.96
39.44
52.46
62.65
70.54
76.28
79.63
80.15
77.50
71.71
63.27
52.91
41.47
29.62
18.01
7.31
-1.63
-7.95
-10.94
-10.42
-6.91
-1.50
4.47
9.81
14.00
17.21
20.25
24.08
29.43
36.42
44.58
52.99
60.67
66.89
71.22
73.59
74.10
72.95
70.46
67.05
63.31
59.79
56.83
54.37
51.93
48.77
44.24
38.13
30.89
23.42
16.71
11.35
7.23
3.59
-0.60
-6.18
-13.29
-21.24
-28.73
-34.25
-36.52
-34.86
-29.34
-20.75
-10.47
-0.27
8.08
13.01
13.59
9.65
1.81
-8.79
-20.75
-32.85
-44.27
-54.63
-63.98
-72.57
-80.69
-88.48
-95.84
-102.45
-107.89
-111.78
-113.91
-114.27
-113.02
-110.34
-106.28
-100.66
-93.03
-82.78
-69.32
-52.34
-32.02
-9.18
14.86
38.52
60.35
79.34
95.00
107.27
116.34
122.40
125.63
126.25
124.61
121.23
116.86
112.35
108.71
106.96
108.02
112.34
119.64
128.74
137.78
144.71
147.95
146.82
141.56
132.96
121.87
108.92
94.55
79.23
63.82
49.62
38.20
30.99
28.95
32.21
40.08
51.13
63.51
75.26
84.67
90.47
91.97
89.03
81.95
71.41
58.37
43.90
29.05
14.56
0.80
-12.25
-24.85
-37.33
-49.95
-62.80
-75.79
-88.65
-100.96
-112.26
-122.22
-130.81
-138.31
-145.07
-151.22
-156.38
-159.64
-160.02
-156.92
-150.58
-141.89
-131.78
-120.30
-106.27
-87.47
-61.74
-28.35
11.12
52.66
90.81
120.24
137.35
141.41
134.80
122.39
110.03
102.85
103.86
113.19
128.40
145.49
160.16
169.00
169.93
162.23
146.25
123.09
94.60
63.37
32.65
5.84
-14.19
-25.96
-29.91
-28.19
-24.15
-21.04
-21.06
-24.72
-31.10
-38.67
-46.27
-53.61
-61.06
-69.00
-77.05
-83.79
-87.14
-85.09
-76.49
-61.42
-41.16
-17.70
6.73
30.15
51.13
68.90
83.35
94.93
104.35
112.12
118.22
122.10
123.25
121.76
118.66
115.58
113.99
114.32
115.60
115.80
112.68
104.68
91.46
73.87
53.48
32.02
11.05
-8.24
-25.11
-39.29
-51.08
-61.15
-70.16
-78.46
-85.82
-91.47
-94.33
-93.39
-88.01
-78.26
-65.08
-50.26
-36.33
-26.14
-22.26
-26.38
-38.80
-58.31
-82.43
-108.04
-132.13
-152.41
-167.59
-177.31
-181.60
-180.60
-174.31
-162.93
-147.25
-129.07
-111.04
-96.02
-86.33
-83.06
-86.09
-94.27
-105.97
-119.40
-132.69
-143.80
-150.59
-151.15
-144.36
-130.52
-111.63
-91.19
-73.45
-62.44
-61.00
-70.13
-88.76
-114.04
-141.89
-167.81
-187.79
-199.06
-200.56
-193.09
-178.83
-160.58
-140.80
-120.87
-100.95
-80.43
-58.68
-35.69
-12.38
9.73
29.16
45.02
57.26
66.50
73.54
78.88
82.44
83.72
81.97
76.64
67.54
54.85
39.09
21.03
1.62
-18.00
-36.57
-52.89
-65.90
-74.83
-79.23
-78.89
-73.90
-64.66
-51.92
-36.70
-20.03
-2.70
14.94
32.88
51.28
70.16
89.22
107.79
124.85
139.13
149.18
153.58
151.30
142.09
126.85
107.53
86.74
67.05
50.31
37.41
28.32
22.53
19.46
18.64
19.75
22.44
26.18
30.29
34.07
37.01
39.02
40.42
41.84
43.88
46.85
50.57
54.31
57.10
57.97
56.28
51.76
44.50
34.84
23.30
10.54
-2.66
-15.50
-27.36
-37.91
-47.23
-55.70
-63.82
-71.89
-79.90
-87.37
-93.50
-97.39
-98.37
-96.18
-91.14
-84.01
-75.82
-67.58
-60.04
-53.52
-47.94
-42.84
-37.47
-30.99
-22.61
-11.89
1.09
15.60
30.36
43.83
54.71
62.28
66.57
68.28
68.44
68.06
67.78
67.81
67.95
67.80
66.97
65.24
62.64
59.36
55.67
51.72
47.48
42.82
37.66
32.19
26.85
22.22
18.84
17.02
16.82
18.07
20.36
22.93
24.53
23.52
18.24
7.60
-8.19
-27.50
-47.57
-65.40
-78.67
-86.39
-88.92
-87.55
-83.84
-79.08
-74.18
-69.75
-66.25
-64.00
-62.99
-62.64
-61.79
-59.07
-53.55
-45.32
-35.69
-26.89
-21.16
-19.86
-22.81
-28.38
-34.03
-37.31
-36.62
-31.58
-22.90
-11.81
0.42
12.88
24.99
36.40
46.70
55.51
62.55
67.81
71.62
74.48
76.86
78.90
80.57
81.66
82.08
81.98
81.55
80.90
79.89
78.19
75.48
71.57
66.57
60.71
54.30
47.49
40.38
33.08
25.86
19.25
13.95
10.72
10.10
12.29
17.06
23.78
31.59
39.54
46.73
52.42
56.05
57.34
56.28
53.20
48.67
43.35
37.74
32.09
26.43
20.63
14.69
8.72
2.97
-2.30
-6.93
-10.92
-14.41
-17.61
-20.72
-23.93
-27.29
-30.80
-34.27
-37.39
-39.66
-40.45
-39.09
-35.08
-28.31
-19.15
-8.48
2.54
12.78
21.57
28.75
34.60
39.52
43.71
47.04
49.14
49.67
48.55
46.04
42.66
38.87
34.93
30.83
26.36
21.38
15.95
10.42
5.24
0.78
-2.83
-5.71
-8.15
-10.44
-12.77
-15.21
-17.71
-20.13
-22.18
-23.47
-23.53
-22.02
-18.83
-14.21
-8.68
-2.86
2.67
7.45
11.12
13.35
13.94
12.88
10.48
7.40
4.39
2.10
0.80
0.35
0.35
0.34
0.01
-0.72
-1.80
-3.17
-4.84
-6.85
-9.28
-12.20
-15.62
-19.56
-23.92
-28.42
-32.52
-35.43
-36.31
-34.55
-30.05
-23.29
-15.26
-7.11
0.19
6.08
10.44
13.40
15.20
15.99
15.83
14.78
12.93
10.48
7.65
4.56
1.23
-2.37
-6.23
-10.16
-13.79
-16.71
-18.64
-19.66
-20.12
-20.56
-21.52
-23.29
-25.88
-28.99
-32.07
-34.45
-35.47
-34.55
-31.40
-26.02
-18.74
-10.08
-0.65
9.01
18.40
27.10
34.70
40.83
45.17
47.64
48.34
47.63
46.01
43.97
41.88
40.00
38.41
37.22
36.48
36.23
36.40
36.73
36.78
36.06
34.12
30.69
25.77
19.60
12.64
5.50
-1.18
-6.81
-10.94
-13.32
-13.96
-13.13
-11.30
-9.16
-7.48
-6.97
-8.18
-11.23
-15.80
-21.24
-26.68
-31.44
-35.08
-37.46
-38.61
-38.69
-37.89
-36.52
-35.06
-34.05
-33.90
-34.72
-36.29
-38.21
-40.20
-42.21
-44.42
-46.96
-49.65
-51.94
-53.12
-52.68
-50.56
-47.11
-42.83
-37.91
-32.07
-24.71
-15.38
-4.24
7.75
19.09
28.19
33.94
36.04
34.95
31.59
26.90
21.60
16.12
10.74
5.70
1.28
-2.33
-5.15
-7.53
-10.07
-13.42
-17.96
-23.61
-29.74
-35.21
-38.66
-38.86
-35.13
-27.69
-17.60
-6.53
3.95
12.89
20.37
27.25
34.54
42.71
51.23
58.72
63.50
64.39
61.10
54.26
45.01
34.60
24.17
14.66
7.03
2.16
0.71
2.68
7.15
12.33
15.95
15.99
11.27
1.91
-10.77
-24.62
-37.32
-46.88
-52.00
-52.17
-47.52
-38.70
-26.62
-12.33
3.07
18.51
33.04
45.85
56.23
63.65
67.73
68.37
65.76
60.45
53.27
45.17
37.12
29.84
23.75
18.94
15.15
11.91
8.64
4.87
0.29
-5.09
-11.11
-17.52
-24.19
-31.06
-38.05
-44.91
-51.06
-55.65
-57.77
-56.79
-52.68
-46.04
-37.92
-29.52
-21.71
-14.85
-8.83
-3.19
2.48
8.44
14.68
20.98
27.12
32.95
38.54
44.06
49.75
55.81
62.30
69.08
75.95
82.63
88.86
94.47
99.36
103.44
106.72
109.34
111.51
113.22
113.84
111.77
104.57
89.63
65.14
31.07
-10.54
-56.04
-101.25
-142.55
-177.59
-205.36
-225.78
-239.22
-246.11
-246.83
-241.58
-230.32
-212.71
-188.25
-156.65
-118.40
-75.24
-30.10
13.43
52.10
83.85
108.15
125.71
137.73
145.07
148.12
146.94
142.01
134.64
127.09
121.98
121.63
127.32
138.77
153.86
168.48
177.10
174.16
155.99
122.70
78.96
32.93
-6.41
-32.46
-43.30
-41.72
-33.31
-23.82
-17.10
-14.40
-15.05
-17.56
-20.38
-22.61
-23.51
-22.38
-18.79
-13.09
-6.58
-1.24
0.98
-1.13
-8.42
-20.53
-35.90
-52.09
-66.72
-78.18
-86.06
-90.79
-92.91
-93.61
-93.17
-90.92
-85.75
-77.26
-66.56
-56.09
-48.86
-47.39
-54.68
-71.95
-97.87
-128.56
-159.10
-185.48
-206.11
-222.00
-226.11
-214.44
-187.11
-148.82
-105.88
-63.15
-23.69
10.49
38.19
59.50
73.92
81.57
83.06
79.64
73.16
65.98
60.79
59.77
64.80
74.60
85.77
94.07
96.30
91.46
80.81
66.98
52.92
41.18
32.06
24.38
16.53
7.47
-3.01
-14.79
-26.68
-37.72
-46.37
-51.50
-52.30
-48.31
-39.50
-26.33
-7.85
13.85
34.86
52.47
66.20
77.26
87.02
95.82
102.81
106.54
107.05
103.52
96.45
87.26
77.63
69.01
62.27
57.70
54.98
52.94
50.14
45.55
38.40
28.45
16.12
2.42
-11.38
-24.22
-35.71
-46.11
-55.66
-64.61
-73.21
-81.72
-90.36
-99.33
-108.64
-118.16
-127.44
-135.66
-141.84
-145.26
-145.62
-143.08
-138.21
-131.80
-124.65
-117.38
-110.13
-102.67
-94.64
-85.74
-75.83
-65.06
-53.73
-42.28
-31.24
-21.28
-13.23
-8.07
-6.63
-9.27
-15.52
-23.91
-32.36
-38.70
-41.41
-39.92
-34.54
-25.83
-13.96
1.56
21.60
46.68
76.27
108.44
140.32
168.81
191.32
206.15
212.45
210.11
199.68
182.45
160.54
136.73
114.00
94.84
80.79
72.31
69.12
70.65
76.38
85.81
98.23
112.55
127.30
141.08
152.98
162.84
171.02
177.78
182.75
184.66
181.73
172.39
155.92
132.75
104.30
72.61
39.99
8.83
-18.43
-39.41
-52.10
-55.38
-49.48
-35.97
-17.29
4.02
26.06
47.78
68.75
88.46
105.90
119.51
127.65
129.33
124.72
115.29
103.31
91.20
80.87
73.55
69.89
70.06
73.82
80.30
87.90
94.48
97.69
95.79
88.13
75.36
59.11
41.41
23.98
7.87
-6.56
-19.44
-31.14
-42.13
-52.93
-64.25
-76.93
-91.72
-108.83
-127.60
-146.32
-162.61
-174.13
-179.39
-178.34
-172.30
-163.56
-154.51
-147.06
-142.19
-140.01
-139.95
-141.08
-142.35
-142.73
-141.35
-137.58
-131.17
-122.29
-111.51
-99.72
-87.99
-77.41
-68.85
-62.80
-59.30
-57.96
-58.07
-58.82
-59.49
-59.51
-58.62
-56.75
-53.96
-50.41
-46.20
-41.49
-36.49
-31.61
-27.46
-24.77
-24.29
-26.47
-31.36
-38.51
-47.13
-56.26
-65.04
-72.83
-79.32
-84.50
-88.79
-93.16
-99.09
-108.29
-121.97
-140.13
-161.04
-181.45
-197.57
-206.26
-206.16
-197.87
-183.36
-164.94
-144.34
-122.37
-99.28
-75.30
-51.03
-27.43
-5.40
14.49
32.15
47.63
60.83
71.35
78.64
82.45
83.11
81.53
78.86
76.05
73.59
71.54
69.79
68.28
67.16
66.60
66.79
67.79
69.57
72.07
75.11
78.36
81.27
83.27
84.07
83.95
83.89
85.05
88.16
92.67
96.70
97.45
92.42
80.62
63.22
43.33
24.46
9.76
0.93
-2.29
-1.92
-0.39
0.97
2.57
6.34
14.23
27.52
45.88
67.03
87.13
101.91
107.96
103.56
89.00
65.59
36.71
7.32
-18.02
-37.29
-51.60
-63.95
-77.54
-93.71
-114.14
-136.80
-156.10
-166.11
-163.82
-150.17
-128.98
-106.88
-91.16
-93.94
-120.66
-166.22
-218.76
-266.34
-300.92
-318.63
-321.20
-312.85
-307.64
-313.01
-325.19
-335.63
-338.74
-333.96
-322.58
-308.78
-296.05
-298.93
-323.44
-361.72
-400.32
-429.97
-448.55
-456.97
-460.19
-385.22
-215.78
-3.44
181.85
306.70
374.77
394.42
390.77
377.68
363.27
339.72
302.85
266.17
241.97
235.28
243.63
263.13
288.13
315.42
333.91
337.81
330.92
320.34
310.76
303.39
299.72
300.29
306.90
315.17
321.60
327.45
335.13
344.48
351.58
351.76
340.08
314.06
270.95
210.15
137.26
62.03
-5.62
-59.00
-95.10
-115.15
-123.30
-126.68
-134.53
-151.80
-177.34
-205.93
-231.51
-248.78
-254.58
-248.43
-217.71
-164.26
-104.88
-57.11
-27.07
-11.02
-2.40
3.76
9.87
16.68
21.93
25.75
31.65
42.96
60.05
80.36
100.29
117.03
129.37
135.99
133.71
123.42
107.03
86.31
63.36
41.49
24.68
15.88
14.17
16.21
18.38
17.27
10.73
-1.19
-16.27
-31.14
-43.17
-51.91
-57.99
-61.57
-62.20
-59.14
-51.81
-40.46
-26.65
-13.16
-3.05
1.96
2.66
1.59
1.50
3.96
8.78
14.18
17.62
17.07
11.91
3.06
-6.44
-13.09
-15.17
-13.33
-9.58
-5.96
-3.92
-4.15
-6.80
-11.70
-18.74
-27.56
-37.12
-45.71
-51.42
-53.06
-50.82
-46.26
-41.56
-38.74
-38.74
-41.04
-44.03
-45.78
-45.17
-41.68
-35.71
-28.30
-20.89
-15.02
-11.82
-11.89
-14.98
-20.32
-26.88
-33.76
-40.33
-46.34
-51.85
-56.94
-61.72
-66.14
-70.41
-74.98
-80.26
-86.37
-92.91
-99.01
-103.41
-106.38
-107.53
-106.45
-102.58
-95.18
-83.52
-67.22
-46.66
-23.15
1.21
24.37
44.49
60.38
71.61
78.26
80.64
79.13
74.11
66.07
55.84
44.38
32.63
21.44
11.43
3.02
-3.52
-8.10
-10.78
-11.77
-11.55
-10.84
-10.36
-10.57
-11.52
-12.75
-13.48
-13.01
-10.89
-7.32
-2.92
1.52
5.58
9.38
13.60
19.05
26.19
34.76
43.77
51.77
57.45
60.16
60.11
58.27
55.94
54.27
53.77
54.33
55.39
56.51
57.69
59.19
61.27
63.65
65.69
67.04
68.28
70.99
77.09
87.60
101.92
117.94
133.17
146.11
156.78
166.22
175.04
182.27
185.29
180.91
167.21
144.79
116.88
88.19
63.21
44.65
32.98
26.73
23.57
21.53
19.61
17.92
17.10
17.61
19.37
21.63
23.27
23.21
20.72
15.50
7.61
-2.72
-15.27
-29.93
-46.68
-65.36
-85.47
-105.95
-125.24
-141.57
-153.37
-159.78
-160.88
-157.59
-151.26
-143.22
-134.31
-124.87
-114.78
-103.73
-91.44
-77.61
-62.07
-44.78
-25.89
-5.87
14.48
34.14
52.05
67.27
79.10
87.08
90.89
90.44
85.88
77.66
66.57
53.60
39.66
25.44
11.39
-2.13
-14.52
-24.90
-32.21
-35.66
-35.08
-31.21
-25.55
-19.98
-16.25
-15.64
-18.83
-26.02
-36.98
-51.09
-67.29
-83.95
-99.06
-110.54
-116.87
-117.43
-112.73
-104.01
-92.81
-80.37
-67.45
-54.45
-41.63
-29.45
-18.46
-9.13
-1.56
4.55
9.84
14.82
19.69
24.21
27.92
30.44
31.72
32.01
31.77
31.37
30.94
30.37
29.42
27.86
25.56
22.48
18.62
13.95
8.43
2.18
-4.39
-10.36
-14.58
-15.85
-13.43
-7.36
1.53
11.83
21.99
30.76
37.46
41.86
44.12
44.46
43.15
40.42
36.66
32.35
28.04
24.20
21.06
18.53
16.37
14.25
12.02
9.67
7.39
5.32
3.53
1.90
0.13
-2.08
-5.02
-8.79
-13.29
-18.20
-22.94
-26.79
-28.96
-28.82
-26.01
-20.61
-13.08
-4.17
5.25
14.36
22.46
28.98
33.53
35.94
36.31
35.07
32.92
30.61
28.81
27.86
27.79
28.33
29.11
29.82
30.30
30.55
30.62
30.58
30.40
29.94
29.07
27.63
25.49
22.65
19.23
15.55
12.16
9.78
9.19
10.95
15.24
21.60
29.05
36.31
42.10
45.49
46.01
43.69
38.89
32.18
24.24
15.85
7.72
0.44
-5.71
-10.80
-15.18
-19.29
-23.44
-27.66
-31.65
-34.97
-37.25
-38.37
-38.64
-38.67
-39.22
-40.90
-43.91
-47.89
-51.94
-54.81
-55.23
-52.23
-45.46
-35.29
-22.68
-8.93
4.62
16.90
27.27
35.45
41.43
45.29
47.11
46.97
45.08
41.76
37.57
33.19
29.35
26.65
25.48
25.85
27.47
29.83
32.35
34.58
36.30
37.54
38.47
39.34
40.30
41.44
42.74
44.13
45.50
46.75
47.76
48.48
48.98
49.45
50.19
51.50
53.53
56.17
58.97
61.17
61.93
60.53
56.68
50.59
42.91
34.49
26.05
18.02
10.48
3.34
-3.42
-9.70
-15.21
-19.67
-22.88
-24.86
-25.75
-25.80
-25.26
-24.48
-23.93
-24.14
-25.51
-28.06
-31.23
-33.96
-34.87
-32.85
-27.41
-18.98
-8.75
1.60
10.46
16.65
19.57
19.24
16.08
10.78
4.10
-3.25
-10.61
-17.49
-23.55
-28.61
-32.69
-35.91
-38.45
-40.41
-41.91
-42.98
-43.77
-44.54
-45.64
-47.42
-50.09
-53.51
-57.20
-60.37
-62.14
-61.71
-58.59
-52.64
-44.12
-33.66
-22.17
-10.68
-0.14
8.80
15.87
21.19
25.10
28.00
30.13
31.60
32.40
32.56
32.18
31.31
29.82
27.44
23.77
18.52
11.71
3.68
-5.04
-13.98
-22.88
-31.73
-40.69
-49.86
-59.12
-68.00
-75.75
-81.44
-84.14
-83.10
-77.97
-68.88
-56.44
-41.71
-25.95
-10.41
3.84
16.03
25.69
32.56
36.53
37.73
36.51
33.50
29.50
25.38
21.79
19.13
17.48
16.75
16.77
17.29
18.00
18.51
18.37
17.29
15.17
12.12
8.25
3.55
-2.12
-8.82
-16.27
-23.56
-29.30
-31.92
-30.22
-23.73
-12.85
1.30
17.31
33.80
49.65
64.00
76.26
86.08
93.29
97.96
100.27
100.48
98.91
95.88
91.74
86.92
82.00
77.63
74.45
72.83
72.76
73.81
75.16
75.62
73.99
69.40
61.61
51.02
38.41
24.48
9.72
-5.92
-22.93
-41.89
-62.84
-84.91
-106.31
-124.66
-137.61
-142.78
-138.82
-125.92
-106.02
-82.15
-57.61
-35.04
-15.98
-0.68
12.57
25.86
40.21
54.64
66.43
72.43
70.35
59.82
42.48
22.65
5.07
-6.90
-12.15
-11.26
-5.24
5.22
19.65
30.96
33.48
25.36
9.84
-8.08
-25.34
-41.26
-56.04
-69.46
-80.20
-84.65
-79.25
-62.69
-37.33
-8.81
16.17
32.34
38.96
37.05
30.63
24.08
19.97
18.21
16.90
13.95
8.46
0.76
-7.99
-15.88
-21.80
-26.06
-30.33
-36.58
-46.47
-58.18
-69.41
-77.86
-81.89
-81.55
-78.50
-74.82
-71.87
-70.16
-69.20
-68.46
-67.67
-66.74
-65.43
-62.72
-56.81
-45.82
-29.99
-11.15
7.66
23.77
35.57
42.65
45.55
45.32
42.84
37.23
27.29
12.28
-7.26
-30.03
-54.69
-80.18
-105.75
-123.02
-125.98
-114.33
-94.02
-71.68
-51.08
-33.45
-19.27
-9.30
-4.36
-5.87
-13.59
-25.21
-36.55
-43.54
-44.01
-38.23
-28.32
-17.02
-8.52
-3.71
-2.14
-2.18
-2.04
-0.86
1.27
3.72
5.93
7.18
7.40
6.92
6.43
6.38
6.66
6.76
6.27
5.12
3.41
1.18
-1.38
-3.88
-6.01
-7.83
-9.70
-12.13
-15.58
-20.44
-26.69
-33.85
-40.93
-46.55
-49.30
-48.07
-42.34
-32.32
-18.83
-3.14
13.39
29.46
43.93
55.88
64.57
69.50
70.57
68.07
62.68
55.25
46.57
37.27
27.82
18.61
9.99
2.30
-4.28
-9.78
-14.49
-18.80
-23.17
-27.89
-33.06
-38.56
-44.10
-49.28
-53.62
-56.53
-57.39
-55.55
-50.52
-42.09
-30.42
-16.13
-0.12
16.53
32.83
47.97
61.40
72.74
81.71
88.14
91.90
93.01
91.66
88.27
83.41
77.69
71.58
65.35
59.01
52.47
45.68
38.73
31.91
25.64
20.25
15.86
12.28
9.01
5.35
0.64
-5.47
-12.80
-20.62
-27.76
-32.93
-35.15
-33.93
-29.44
-22.34
-13.54
-4.06
5.13
13.20
19.45
23.41
24.92
24.22
21.85
18.51
14.85
11.32
8.12
5.28
2.82
0.79
-0.74
-1.69
-2.11
-2.16
-2.04
-1.92
-1.91
-2.05
-2.42
-3.22
-4.68
-7.05
-10.34
-14.20
-17.82
-20.08
-19.85
-16.43
-9.84
-0.86
9.14
18.64
26.37
31.61
34.07
33.82
31.05
26.06
19.27
11.36
3.19
-4.34
-10.53
-15.12
-18.24
-20.28
-21.56
-22.21
-22.13
-21.25
-19.71
-17.94
-16.60
-16.31
-17.45
-19.99
-23.63
-27.86
-32.11
-35.74
-38.05
-38.24
-35.63
-29.86
-21.08
-9.99
2.29
14.48
25.40
34.24
40.58
44.38
45.93
45.69
44.17
41.77
38.67
34.87
30.26
24.81
18.66
12.12
5.57
-0.68
-6.47
-11.80
-16.75
-21.46
-26.09
-30.82
-35.87
-41.37
-47.23
-53.02
-57.91
-60.87
-60.90
-57.32
-50.00
-39.42
-26.60
-12.78
0.73
12.88
22.97
30.59
35.63
38.20
38.52
37.01
34.20
30.69
27.06
23.66
20.64
17.97
15.52
13.23
11.08
9.14
7.43
5.89
4.36
2.55
0.18
-2.99
-6.97
-11.42
-15.60
-18.41
-18.77
-15.89
-9.63
-0.60
10.03
20.94
31.04
39.66
46.45
51.30
54.10
54.74
53.24
49.92
45.39
40.42
35.64
31.33
27.31
23.15
18.45
13.13
7.49
2.10
-2.43
-5.81
-8.12
-9.80
-11.53
-13.93
-17.44
-22.09
-27.49
-32.78
-36.79
-38.28
-36.24
-30.32
-20.90
-9.05
3.79
16.17
26.97
35.52
41.51
44.90
45.85
44.58
41.49
37.13
32.12
27.00
22.17
17.76
13.73
10.00
6.56
3.53
1.11
-0.58
-1.60
-2.26
-3.05
-4.52
-7.14
-11.13
-16.47
-22.72
-29.03
-34.28
-37.21
-36.81
-32.60
-24.82
-14.40
-2.70
8.86
19.14
27.39
33.28
36.79
38.04
37.26
34.74
30.88
26.20
21.22
16.42
12.09
8.27
4.81
1.47
-1.90
-5.27
-8.42
-11.08
-13.11
-14.62
-15.95
-17.59
-19.98
-23.34
-27.57
-32.16
-36.24
-38.71
-38.52
-34.97
-27.96
-18.11
-6.65
4.93
15.30
23.56
29.34
32.64
33.68
32.69
30.00
26.00
21.22
16.27
11.58
7.32
3.35
-0.64
-4.92
-9.50
-14.12
-18.34
-21.79
-24.31
-26.06
-27.44
-28.90
-30.82
-33.33
-36.27
-39.13
-41.18
-41.54
-39.43
-34.35
-26.34
-16.02
-4.47
7.03
17.33
25.62
31.50
34.83
35.69
34.20
30.60
25.28
18.87
12.13
5.85
0.59
-3.33
-5.85
-7.07
-7.14
-6.21
-4.47
-2.20
0.19
2.18
3.20
2.78
0.61
-3.36
-8.88
-15.42
-22.10
-27.80
-31.32
-31.64
-28.25
-21.36
-11.88
-1.24
9.03
17.71
24.11
28.12
29.91
29.63
27.25
22.57
15.52
6.56
-3.17
-12.06
-18.53
-21.65
-21.56
-19.30
-16.26
-13.49
-11.20
-8.83
-5.49
-0.57
5.83
12.93
19.64
25.01
28.60
30.55
31.54
32.58
34.86
39.57
47.58
59.26
74.23
91.48
109.56
127.02
142.72
156.01
166.77
175.48
183.20
191.44
201.61
214.30
228.59
241.88
250.63
251.65
243.39
226.37
202.69
174.72
144.00
110.85
74.97
36.47
-3.53
-43.22
-80.99
-116.28
-149.55
-181.42
-211.57
-238.36
-259.07
-271.11
-273.47
-267.30
-255.50
-241.34
-227.14
-213.62
-200.45
-186.68
-171.59
-155.31
-138.84
-123.52
-110.31
-99.28
-89.73
-81.29
-73.55
-66.17
-59.11
-52.67
-47.50
-44.14
-42.72
-42.85
-44.87
-48.57
-53.18
-57.89
-62.53
-67.63
-73.91
-81.63
-90.27
-100.02
-110.06
-118.50
-123.02
-121.98
-115.26
-104.23
-91.50
-70.98
-42.02
-8.69
22.90
49.05
69.89
87.01
101.50
113.35
122.24
127.00
127.90
126.57
124.88
123.54
121.50
116.87
108.40
95.70
78.14
56.27
32.10
8.76
-10.28
-22.77
-27.92
-26.87
-22.50
-19.04
-19.59
-25.10
-34.63
-43.59
-49.22
-50.29
-47.27
-41.64
-35.09
-28.31
-20.82
-11.79
-1.01
10.29
20.34
27.77
32.32
35.09
38.06
43.04
50.72
60.33
69.61
76.34
79.18
78.20
74.65
70.27
66.61
64.59
64.41
65.61
67.55
69.58
71.15
71.91
71.62
70.13
67.36
63.32
57.98
51.41
43.67
34.84
25.10
14.78
4.41
-5.28
-13.48
-19.49
-22.84
-23.28
-20.74
-15.32
-7.33
2.56
13.26
23.35
31.49
36.82
39.28
39.52
38.67
37.82
37.75
38.73
40.65
43.22
46.16
49.15
51.88
53.94
54.87
54.45
52.99
51.39
50.96
52.73
56.83
62.14
66.60
67.97
64.64
56.13
43.00
26.26
6.80
-14.81
-38.25
-63.00
-88.16
-112.48
-134.69
-153.94
-169.99
-183.11
-193.84
-202.64
-209.75
-215.14
-218.63
-220.08
-219.51
-217.15
-213.40
-208.75
-203.72
-198.81
-194.49
-191.18
-189.23
-188.87
-190.12
-192.76
-196.53
-201.42
-207.72
-215.84
-225.57
-235.32
-241.79
-240.33
-226.34
-197.33
-154.37
-102.14
-47.32
3.75
47.11
82.04
110.47
135.34
158.61
180.24
198.71
212.45
220.88
224.39
223.66
219.10
210.76
198.36
181.66
161.07
137.98
114.38
91.89
71.59
54.44
42.02
36.26
38.69
49.73
68.54
92.92
119.47
141.91
152.37
146.48
127.31
103.20
81.95
67.27
58.89
54.35
51.31
48.95
48.09
49.64
52.97
55.73
55.23
50.92
42.95
33.52
26.01
23.77
28.28
38.14
49.55
57.98
60.00
54.33
42.15
26.17
9.66
-5.21
-18.37
-30.96
-44.28
-59.47
-74.77
-87.58
-95.41
-95.83
-87.10
-69.34
-45.33
-20.50
-1.54
5.91
-0.42
-19.13
-45.45
-73.31
-97.72
-115.90
-127.10
-131.42
-131.09
-124.29
-109.87
-88.04
-60.90
-31.98
-5.28
16.14
30.73
38.57
41.18
40.00
36.48
31.89
27.31
23.78
22.71
25.42
32.07
41.72
51.36
56.83
53.90
39.73
14.29
-18.38
-51.39
-77.49
-91.57
-92.70
-83.68
-69.40
-54.83
-43.46
-35.81
-30.73
-27.06
-24.24
-22.09
-19.82
-15.78
-8.18
3.96
21.82
45.99
76.19
111.46
150.69
193.03
237.65
283.10
317.03
327.45
308.14
262.72
201.72
136.29
74.25
19.85
-24.92
-58.06
-79.83
-90.10
-89.49
-80.81
-68.44
-57.26
-51.43
-54.62
-68.36
-90.97
-119.19
-149.01
-178.50
-205.29
-226.25
-238.14
-239.02
-229.17
-206.81
-173.86
-133.71
-89.93
-45.09
-0.93
40.90
78.39
109.54
133.35
149.70
159.67
164.44
164.74
160.38
150.76
135.68
115.91
93.28
69.69
47.05
26.79
9.99
-2.70
-11.03
-15.35
-16.61
-16.29
-16.49
-19.26
-26.28
-38.32
-55.08
-75.09
-95.88
-114.48
-128.24
-135.54
-135.81
-129.48
-117.57
-101.64
-83.60
-65.66
-49.82
-37.24
-27.64
-19.03
-8.46
6.63
27.10
51.59
76.92
99.43
116.31
126.41
130.15
128.85
123.92
116.39
107.07
96.83
86.89
78.60
72.91
69.69
67.47
63.85
56.40
43.76
26.29
5.95
-14.48
-32.48
-46.73
-57.09
-64.12
-68.26
-69.34
-66.70
-59.62
-47.77
-31.15
-10.07
14.87
42.40
70.37
95.80
115.74
128.26
133.21
132.08
126.89
119.05
108.82
95.87
80.52
64.53
50.96
42.85
41.63
46.28
53.70
59.95
61.85
58.01
48.94
36.48
22.88
10.01
-1.04
-9.98
-17.21
-23.66
-30.70
-39.94
-52.65
-69.14
-88.12
-106.76
-121.39
-129.02
-128.75
-122.43
-114.20
-109.16
-111.63
-123.94
-145.87
-174.69
-205.83
-233.71
-252.89
-259.26
-251.11
-229.55
-198.03
-161.08
-122.94
-86.50
-53.23
-23.66
1.96
23.35
40.41
53.51
63.58
71.77
78.92
85.12
89.67
91.60
90.27
85.84
79.23
71.70
64.34
57.63
51.45
45.28
38.58
31.07
22.79
14.07
5.35
-3.02
-10.83
-18.06
-24.78
-30.93
-36.18
-39.82
-40.88
-38.47
-32.16
-22.33
-10.12
2.81
14.70
24.25
30.77
34.19
34.92
33.51
30.55
26.56
22.06
17.54
13.42
10.03
7.46
5.62
4.25
3.11
2.10
1.31
0.96
1.18
1.93
2.90
3.62
3.63
2.64
0.66
-2.06
-5.01
-7.68
-9.65
-10.75
-11.09
-11.02
-10.95
-11.25
-12.01
-12.98
-13.53
-12.83
-10.01
-4.51
3.77
14.42
26.59
39.22
51.32
62.11
71.16
78.35
83.86
88.00
91.19
93.77
95.91
97.59
98.61
98.67
97.43
94.58
89.80
82.88
73.79
62.81
50.50
37.66
25.00
13.01
1.75
-8.99
-19.52
-30.12
-40.84
-51.47
-61.53
-70.28
-76.83
-80.38
-80.43
-77.03
-70.75
-62.43
-53.02
-43.36
-34.22
-26.44
-20.91
-18.42
-19.40
-23.70
-30.51
-38.57
-46.39
-52.51
-55.68
-54.92
-49.72
-40.18
-27.07
-11.68
4.41
19.66
32.90
43.46
51.13
56.14
59.02
60.44
61.05
61.35
61.63
62.00
62.37
62.46
61.82
59.99
56.79
52.71
48.98
47.35
49.34
55.48
64.84
75.31
84.39
90.08
91.46
88.72
82.63
74.03
63.59
51.93
39.78
28.08
17.61
8.60
0.46
-8.18
-18.83
-32.52
-49.23
-67.88
-86.70
-103.92
-118.27
-129.34
-137.50
-143.56
-148.28
-152.04
-154.60
-155.14
-152.59
-146.00
-134.94
-119.75
-101.46
-81.55
-61.52
-42.64
-25.77
-11.43
0.08
8.61
14.30
17.57
19.12
19.78
20.16
20.53
20.68
20.20
18.74
16.28
13.15
9.95
7.19
5.12
3.62
2.28
0.59
-1.85
-5.25
-9.57
-14.55
-19.76
-24.62
-28.45
-30.53
-30.29
-27.51
-22.42
-15.72
-8.35
-1.22
5.06
10.22
14.27
17.33
19.47
20.63
20.81
20.07
18.67
16.90
15.03
13.14
11.13
8.85
6.22
3.36
0.49
-2.10
-4.28
-6.08
-7.79
-9.79
-12.46
-16.02
-20.49
-25.66
-31.01
-35.86
-39.38
-40.81
-39.59
-35.57
-29.06
-20.80
-11.78
-3.02
4.68
10.84
15.34
18.27
19.86
20.28
19.70
18.25
16.10
13.45
10.50
7.40
4.25
1.28
-1.08
-2.15
-1.15
2.43
8.55
16.55
25.24
33.30
39.58
43.31
44.17
42.24
38.03
32.45
26.77
22.32
20.17
20.74
23.75
28.35
33.55
38.50
42.66
45.66
47.05
46.25
42.74
36.36
27.61
17.68
8.14
0.47
-4.39
-6.29
-5.74
-3.68
-1.04
1.44
3.37
4.62
5.19
5.15
4.53
3.27
1.19
-1.92
-6.17
-11.35
-16.79
-21.45
-24.13
-23.87
-20.33
-13.94
-5.72
3.09
11.45
18.75
24.80
29.61
33.19
35.42
36.13
35.33
33.29
30.54
27.77
25.50
23.94
22.88
21.87
20.47
18.51
16.14
13.73
11.62
9.86
8.13
5.94
2.85
-1.26
-6.10
-11.15
-15.78
-19.46
-21.83
-22.65
-21.75
-19.13
-14.98
-9.72
-3.94
1.75
6.90
11.28
14.87
17.72
19.93
21.63
22.94
24.02
24.93
25.57
25.68
24.84
22.68
19.01
13.94
7.87
1.36
-5.07
-11.01
-16.25
-20.75
-24.57
-27.84
-30.66
-33.08
-34.97
-35.93
-35.41
-32.79
-27.68
-20.13
-10.76
-0.62
9.07
17.23
23.18
26.67
27.82
26.93
24.39
20.63
16.07
11.22
6.61
2.75
-0.00
-1.55
-2.10
-2.12
-2.15
-2.68
-3.94
-5.92
-8.40
-11.11
-13.87
-16.70
-19.79
-23.44
-27.82
-32.80
-37.84
-41.97
-44.02
-42.97
-38.34
-30.41
-20.14
-8.93
1.87
11.22
18.55
23.70
26.65
27.44
26.15
22.98
18.40
13.09
7.75
2.94
-1.05
-4.25
-6.78
-8.79
-10.32
-11.36
-11.92
-12.06
-11.93
-11.68
-11.46
-11.42
-11.72
-12.53
-13.96
-15.90
-18.03
-19.73
-20.26
-18.92
-15.28
-9.27
-1.29
7.87
17.20
25.69
32.50
37.15
39.59
40.04
38.99
36.95
34.39
31.70
29.11
26.69
24.34
21.78
18.68
14.71
9.76
4.01
-2.02
-7.65
-12.21
-15.30
-16.91
-17.46
-17.61
-18.03
-19.20
-21.21
-23.71
-26.00
-27.26
-26.69
-23.83
-18.66
-11.68
-3.71
4.33
11.60
17.60
22.05
24.95
26.32
26.29
25.00
22.73
19.91
17.04
14.52
12.54
10.99
9.53
7.80
5.54
2.76
-0.35
-3.46
-6.36
-8.99
-11.46
-13.99
-16.74
-19.77
-22.89
-25.76
-27.88
-28.73
-27.86
-25.03
-20.25
-13.82
-6.21
1.97
10.08
17.54
23.82
28.44
31.03
31.35
29.44
25.65
20.62
15.08
9.69
4.84
0.56
-3.33
-7.06
-10.81
-14.53
-18.04
-21.06
-23.30
-24.57
-24.83
-24.24
-23.21
-22.32
-22.09
-22.78
-24.15
-25.55
-26.03
-24.81
-21.48
-16.24
-9.71
-2.68
4.17
10.43
15.93
20.57
24.24
26.77
28.04
28.02
26.97
25.26
23.33
21.49
19.87
18.40
16.91
15.30
13.60
11.98
10.60
9.59
8.94
8.53
8.16
7.64
6.78
5.46
3.64
1.42
-0.89
-2.76
-3.59
-2.85
-0.39
3.52
8.24
13.02
17.25
20.63
23.11
24.74
25.49
25.14
23.40
20.04
15.13
9.08
2.59
-3.53
-8.59
-12.26
-14.63
-16.11
-17.32
-18.78
-20.68
-22.86
-24.81
-25.99
-25.99
-24.81
-22.81
-20.68
-19.23
-19.05
-20.40
-23.02
-26.21
-28.96
-30.27
-29.41
-26.14
-20.74
-13.92
-6.59
0.37
6.28
10.71
13.46
14.58
14.24
12.74
10.43
7.63
4.64
1.65
-1.19
-3.78
-6.04
-7.93
-9.40
-10.46
-11.05
-11.19
-10.99
-10.73
-10.92
-12.22
-15.25
-20.38
-27.48
-35.94
-44.75
-52.70
-58.72
-62.04
-62.34
-59.78
-54.91
-48.46
-41.26
-34.04
-27.38
-21.65
-17.02
-13.50
-10.89
-8.86
-7.02
-5.04
-2.78
-0.28
2.29
4.71
6.89
8.83
10.60
12.24
13.70
14.89
15.74
16.27
16.56
16.67
16.65
16.51
16.34
16.33
16.77
18.04
20.43
24.03
28.66
33.95
39.38
44.48
48.91
52.47
55.06
56.55
56.81
55.71
53.26
49.71
45.52
41.25
37.32
33.89
30.84
27.90
24.82
21.50
17.94
14.13
10.02
5.43
0.21
-5.72
-12.28
-19.23
-26.27
-32.96
-38.81
-43.22
-45.58
-45.45
-42.75
-37.78
-31.22
-23.86
-16.37
-9.25
-2.83
2.67
6.99
9.91
11.37
11.51
10.74
9.58
8.46
7.65
7.13
6.76
6.39
5.94
5.52
5.30
5.41
5.88
6.58
7.26
7.63
7.47
6.66
5.18
3.17
0.85
-1.40
-3.14
-3.89
-3.24
-1.04
2.54
6.96
11.44
15.14
17.38
17.83
16.53
13.87
10.39
6.68
3.17
0.10
-2.49
-4.74
-6.88
-9.13
-11.61
-14.30
-17.02
-19.52
-21.61
-23.27
-24.70
-26.23
-28.21
-30.83
-34.02
-37.33
-40.06
-41.42
-40.74
-37.75
-32.63
-25.97
-18.64
-11.50
-5.19
-0.09
3.77
6.55
8.51
9.88
10.78
11.18
10.94
9.91
8.02
5.39
2.32
-0.78
-3.55
-5.78
-7.45
-8.68
-9.68
-10.66
-11.84
-13.40
-15.47
-18.04
-20.84
-23.29
-24.61
-24.02
-21.10
-15.91
-9.03
-1.35
6.20
12.89
18.31
22.28
24.81
25.98
25.90
24.76
22.79
20.29
17.52
14.67
11.87
9.18
6.63
4.27
2.14
0.29
-1.28
-2.62
-3.87
-5.23
-6.95
-9.18
-11.94
-15.00
-17.88
-19.94
-20.57
-19.31
-16.05
-11.04
-4.82
1.98
8.74
14.98
20.29
24.36
26.85
27.54
26.35
23.48
19.38
14.72
10.17
6.26
3.25
1.08
-0.48
-1.70
-2.79
-3.84
-4.84
-5.77
-6.72
-7.83
-9.33
-11.42
-14.16
-17.29
-20.33
-22.53
-23.19
-21.78
-18.19
-12.71
-5.98
1.25
8.23
14.35
19.21
22.54
24.23
24.34
23.05
20.72
17.80
14.74
11.88
9.43
7.43
5.80
4.42
3.13
1.84
0.53
-0.79
-2.11
-3.48
-5.07
-7.10
-9.71
-12.89
-16.32
-19.39
-21.35
-21.48
-19.32
-14.84
-8.44
-0.83
7.06
14.35
20.32
24.57
26.94
27.58
26.79
24.95
22.45
19.62
16.71
13.88
11.24
8.90
6.91
5.37
4.28
3.57
3.08
2.57
1.80
0.56
-1.25
-3.66
-6.63
-10.01
-13.44
-16.36
-18.03
-17.77
-15.18
-10.37
-3.91
3.30
10.33
16.42
21.10
24.18
25.64
25.62
24.33
22.06
19.17
16.02
12.94
10.18
7.91
6.18
4.94
4.01
3.17
2.22
1.05
-0.33
-1.84
-3.42
-5.11
-6.99
-9.12
-11.37
-13.38
-14.61
-14.47
-12.58
-8.85
-3.57
2.68
9.14
15.08
19.86
23.09
24.60
24.45
22.91
20.33
17.15
13.76
10.51
7.63
5.28
3.49
2.16
1.16
0.34
-0.41
-1.11
-1.75
-2.39
-3.15
-4.24
-5.81
-7.91
-10.32
-12.58
-14.10
-14.31
-12.88
-9.80
-5.45
-0.44
4.49
8.70
11.74
13.44
13.88
13.30
11.99
10.24
8.30
6.38
4.66
3.25
2.20
1.44
0.82
0.15
-0.74
-1.84
-3.03
-4.14
-5.01
-5.66
-6.25
-7.01
-8.05
-9.27
-10.33
-10.70
-9.96
-7.94
-4.83
-1.11
2.62
5.84
8.19
9.51
9.73
8.90
7.14
4.64
1.73
-1.18
-3.73
-5.67
-6.91
-7.46
-7.44
-6.93
-6.05
-4.91
-3.65
-2.46
-1.54
-1.08
-1.24
-2.06
-3.40
-4.93
-6.14
-6.46
-5.44
-2.95
0.71
4.92
8.91
12.00
13.77
14.09
13.09
11.04
8.27
5.13
1.95
-0.99
-3.52
-5.59
-7.29
-8.77
-10.15
-11.43
-12.54
-13.35
-13.78
-13.87
-13.71
-13.49
-13.34
-13.35
-13.45
-13.45
-13.03
-11.81
-9.52
-6.10
-1.80
2.93
7.51
11.47
14.49
16.49
17.52
17.65
16.95
15.51
13.44
10.99
8.43
6.07
4.08
2.50
1.23
0.14
-0.92
-2.03
-3.23
-4.57
-6.13
-7.98
-10.14
-12.50
-14.75
-16.45
-17.12
-16.37
-14.05
-10.34
-5.74
-0.94
3.31
6.45
8.23
8.74
8.35
7.42
6.26
5.00
3.66
2.23
0.77
-0.59
-1.70
-2.45
-2.85
-2.95
-2.90
-2.86
-3.01
-3.50
-4.49
-6.03
-8.02
-10.21
-12.14
-13.30
-13.25
-11.79
-9.04
-5.44
-1.61
1.83
4.42
6.00
6.63
6.54
5.98
5.20
4.37
3.63
3.07
2.75
2.65
2.71
2.79
2.76
2.49
1.92
1.07
0.01
-1.19
-2.47
-3.86
-5.40
-7.07
-8.66
-9.79
-9.95
-8.75
-6.10
-2.27
2.12
6.35
9.85
12.44
14.24
15.59
16.80
18.02
19.17
20.07
20.53
20.49
19.98
19.14
18.07
16.89
15.60
14.14
12.37
10.10
7.21
3.76
0.03
-3.50
-6.30
-7.93
-8.20
-7.14
-4.88
-1.52
2.88
8.32
14.63
21.48
28.39
34.83
40.25
44.15
45.91
44.99
41.06
34.45
26.43
19.22
15.32
16.67
23.73
35.22
48.52
60.64
69.22
73.13
72.42
67.80
60.15
50.19
38.55
25.94
13.28
1.58
-8.39
-16.28
-22.29
-27.02
-31.17
-35.28
-39.53
-43.78
-47.58
-50.51
-52.33
-53.11
-53.24
-53.21
-53.30
-53.32
-52.59
-50.25
-45.77
-39.25
-31.48
-23.54
-16.17
-9.28
-1.89
7.38
19.61
34.90
52.24
69.86
85.85
98.85
108.35
114.76
119.14
122.82
126.86
131.54
136.06
138.52
136.46
127.67
111.04
87.00
57.41
24.94
-7.67
-38.18
-65.15
-87.87
-106.31
-120.92
-132.51
-141.98
-149.97
-156.49
-160.84
-161.80
-158.13
-149.02
-134.46
-115.21
-92.50
-67.77
-42.40
-17.71
5.06
24.76
40.57
52.00
59.39
63.83
66.72
69.22
71.82
74.32
76.29
77.43
77.76
77.79
78.27
79.92
83.03
87.23
91.41
93.99
93.39
88.18
78.17
64.49
49.16
33.96
19.28
3.83
-14.67
-38.25
-68.50
-104.72
-143.84
-181.37
-212.97
-235.57
-247.67
-248.93
-239.95
-224.32
-205.81
-187.33
-170.37
-155.46
-142.83
-132.55
-124.51
-118.49
-117.63
-124.03
-137.44
-155.18
-174.00
-191.98
-208.85
-225.13
-241.12
-260.62
-285.06
-312.25
-336.96
-353.91
-360.49
-357.15
-346.22
-303.34
-217.52
-95.76
38.52
160.45
256.48
325.18
371.88
403.68
426.67
440.44
443.93
438.51
427.76
415.67
404.67
395.23
386.51
377.36
363.38
341.74
312.38
278.81
245.63
216.13
191.55
171.47
154.69
137.54
117.62
94.80
70.94
48.23
27.65
8.77
-9.50
-27.97
-48.20
-70.16
-92.23
-112.12
-128.26
-140.52
-149.74
-156.84
-162.40
-168.04
-174.23
-180.54
-186.47
-192.43
-199.73
-209.57
-222.01
-235.66
-249.96
-262.96
-272.15
-275.99
-275.04
-271.57
-267.87
-264.88
-262.27
-261.50
-262.18
-261.77
-256.10
-240.46
-210.79
-164.81
-103.42
-19.17
78.62
170.48
238.93
279.83
301.73
316.15
329.10
339.39
342.65
332.38
307.88
274.38
239.05
206.12
174.55
139.67
97.10
48.28
-1.73
-42.89
-65.63
-66.70
-50.93
-27.63
-9.37
3.04
12.11
18.84
22.65
20.66
8.44
-16.40
-54.13
-101.11
-149.95
-193.31
-226.41
-247.04
-255.58
-254.22
-245.75
-231.49
-211.59
-185.36
-153.45
-118.02
-81.65
-46.85
-15.53
11.37
36.05
61.97
92.43
128.55
169.29
212.17
253.75
290.25
317.83
336.05
346.55
351.71
353.86
355.21
357.79
362.69
369.69
364.00
336.30
287.62
228.68
173.26
129.91
99.39
77.35
61.49
46.86
33.62
25.76
25.25
31.10
39.79
47.11
49.11
44.20
32.13
14.91
-3.20
-20.60
-37.32
-53.96
-70.46
-85.94
-99.48
-104.77
-111.46
-119.60
-130.74
-145.40
-162.28
-178.38
-190.23
-195.32
-193.40
-186.53
-175.57
-162.99
-150.98
-141.01
-133.69
-128.89
-125.97
-124.09
-122.81
-119.81
-113.91
-104.57
-92.09
-77.53
-62.37
-47.95
-35.00
-24.00
-13.42
-1.98
11.22
26.18
42.06
57.35
70.29
79.17
81.93
77.84
66.34
47.08
19.86
-14.68
-54.26
-94.85
-131.75
-162.10
-184.85
-201.35
-214.43
-226.47
-237.75
-246.33
-249.59
-246.10
-237.03
-223.57
-205.45
-180.66
-146.91
-103.36
-51.69
4.40
65.36
125.86
178.54
217.51
240.61
248.95
245.40
233.72
218.08
202.11
187.16
173.70
161.69
150.82
140.61
130.34
119.21
106.63
92.49
76.82
60.87
46.43
34.79
26.27
20.57
17.25
16.11
16.90
18.78
21.00
23.12
25.15
27.22
29.49
31.95
34.29
35.93
36.25
35.14
33.08
31.13
29.73
29.08
28.92
28.70
27.47
24.23
18.40
10.15
0.65
-8.31
-14.96
-18.12
-17.69
-14.93
-11.64
-9.46
-9.20
-10.38
-11.93
-12.91
-12.71
-11.09
-8.43
-4.91
-0.58
4.67
11.02
17.67
22.73
24.44
22.01
15.51
6.38
-3.55
-12.63
-19.45
-23.98
-27.73
-32.49
-36.77
-40.44
-43.93
-48.85
-57.25
-70.33
-83.03
-90.65
-89.56
-78.87
-60.78
-38.58
-16.03
0.58
12.07
19.64
23.83
25.33
24.88
22.68
20.92
20.42
21.48
24.58
29.21
34.19
38.59
41.86
43.55
43.64
42.01
38.98
35.63
32.60
29.98
27.60
25.07
21.88
17.80
12.67
6.80
1.02
-4.19
-8.62
-12.12
-14.54
-15.69
-15.36
-13.61
-10.69
-6.91
-2.90
0.68
3.37
5.06
5.93
6.32
6.43
6.36
6.03
5.22
3.76
1.58
-1.25
-4.61
-8.45
-12.76
-17.59
-22.86
-28.43
-34.09
-39.66
-45.08
-50.40
-55.76
-61.23
-66.82
-72.41
-77.71
-82.26
-85.47
-86.65
-85.25
-81.01
-74.18
-65.55
-56.26
-47.38
-39.60
-33.14
-27.82
-23.31
-19.28
-15.53
-11.92
-8.41
-4.94
-1.53
1.73
4.66
7.07
8.93
10.27
11.14
11.49
11.17
10.03
7.96
4.89
0.73
-4.37
-10.19
-16.34
-22.17
-26.62
-28.17
-25.48
-17.87
-5.78
9.82
27.27
44.51
59.29
69.71
74.92
75.12
71.36
65.02
58.08
51.76
46.22
40.28
32.44
22.03
9.54
-3.83
-16.56
-25.87
-29.20
-24.35
-10.50
11.72
40.50
72.72
104.45
126.61
132.04
120.36
100.22
81.96
70.83
66.34
64.88
63.05
59.44
58.23
60.12
64.32
68.05
67.80
61.52
48.95
31.62
9.01
-14.47
-35.22
-51.67
-64.71
-76.17
-86.79
-96.34
-104.02
-109.23
-111.38
-111.47
-110.93
-110.90
-113.20
-115.91
-116.71
-113.64
-105.73
-92.77
-76.27
-58.37
-41.08
-25.91
-13.22
-3.07
4.72
10.36
14.38
17.14
18.21
17.90
16.80
15.74
14.96
14.23
13.05
11.05
7.99
4.12
0.10
-3.44
-6.14
-8.21
-10.19
-12.62
-15.88
-20.23
-25.88
-32.86
-41.08
-50.05
-58.80
-65.88
-69.67
-68.91
-63.16
-53.10
-40.27
-26.72
-14.46
-5.08
0.55
2.32
0.80
-2.92
-7.49
-11.56
-14.07
-14.51
-12.96
-10.08
-6.87
-4.39
-3.46
-4.36
-6.80
-10.00
-13.04
-15.21
-16.29
-16.63
-16.97
-18.11
-20.44
-23.70
-26.84
-28.36
-26.72
-20.94
-10.89
2.55
17.81
33.13
47.07
58.79
67.96
74.61
78.74
80.35
79.39
76.06
70.86
64.49
57.66
50.79
44.00
37.17
30.18
23.10
16.20
9.77
3.92
-1.52
-6.98
-12.99
-19.91
-27.69
-35.89
-43.57
-49.47
-52.23
-50.69
-44.22
-32.99
-18.00
-0.89
16.48
32.51
46.07
56.64
64.09
68.48
69.98
68.81
65.38
60.29
54.29
48.05
42.05
36.42
31.08
25.89
20.76
15.77
11.07
6.74
2.72
-1.27
-5.64
-10.85
-17.27
-24.98
-33.56
-42.05
-48.99
-52.78
-52.14
-46.56
-36.45
-22.99
-7.78
7.63
21.98
34.34
44.05
50.60
53.73
53.52
50.44
45.35
39.31
33.26
27.85
23.25
19.27
15.50
11.58
7.45
3.42
0.03
-2.16
-2.92
-2.55
-1.82
-1.79
-3.39
-6.90
-11.94
-17.47
-22.01
-24.06
-22.26
-16.01
-5.76
7.19
21.15
34.49
45.94
54.71
60.40
63.04
62.78
59.77
54.34
47.43
40.07
33.09
26.92
21.42
16.62
12.42
8.62
5.13
3.07
3.42
6.46
11.68
17.45
23.18
28.32
32.14
34.06
36.04
39.87
46.41
55.49
65.24
76.18
88.91
103.09
117.95
135.95
158.57
185.28
213.44
237.61
256.50
269.86
277.41
279.49
281.32
286.82
296.60
307.89
314.29
315.67
314.55
313.88
286.09
217.33
112.03
-9.34
-106.53
-179.50
-233.69
-273.71
-307.23
-337.54
-362.43
-379.61
-387.44
-385.06
-374.42
-353.35
-320.91
-279.42
-233.37
-185.20
-138.13
-96.25
-63.97
-46.40
-42.58
-48.43
-58.60
-67.35
-68.31
-58.03
-36.87
-8.62
20.04
44.39
61.31
69.21
68.05
59.46
45.28
27.14
6.34
-16.67
-40.96
-65.39
-88.18
-107.11
-119.73
-124.06
-119.01
-104.63
-78.92
-43.73
-5.17
29.95
57.78
77.93
91.76
100.69
105.68
107.51
107.84
106.86
105.51
104.83
105.11
105.71
105.61
103.93
100.23
93.93
85.13
75.07
65.15
56.22
48.43
41.42
34.67
27.72
20.17
12.15
4.71
-0.82
-3.45
-2.87
0.51
5.83
11.93
17.41
20.93
21.63
19.17
13.79
6.24
-2.30
-10.64
-17.88
-23.65
-28.03
-31.26
-33.66
-35.62
-37.63
-40.25
-44.02
-49.27
-56.11
-64.42
-73.99
-84.62
-96.10
-108.08
-119.99
-130.92
-139.73
-145.21
-146.41
-142.84
-134.67
-122.66
-108.12
-92.54
-77.33
-63.61
-52.10
-43.24
-37.18
-33.74
-32.32
-31.89
-31.17
-29.10
-25.33
-20.47
-15.90
-13.18
-13.37
-16.57
-22.04
-28.62
-35.30
-41.55
-47.38
-52.98
-58.47
-63.60
-67.75
-70.02
-69.47
-65.34
-57.32
-45.79
-31.76
-16.72
-2.30
10.14
19.73
26.02
28.95
28.61
25.20
19.11
11.01
1.87
-7.22
-15.30
-21.81
-26.69
-30.29
-33.15
-35.74
-38.29
-40.83
-43.26
-45.51
-47.63
-49.81
-52.27
-55.10
-58.12
-60.72
-61.93
-60.57
-55.67
-46.81
-34.40
-19.63
-4.09
10.67
23.60
34.27
42.67
48.99
53.31
55.60
55.87
54.34
51.53
48.08
44.61
41.53
39.13
37.66
37.54
39.29
43.36
49.79
57.88
66.17
72.65
75.20
72.06
62.16
45.38
22.56
-4.63
-33.87
-62.49
-87.87
-107.76
-120.66
-126.06
-124.48
-117.26
-106.25
-93.38
-80.27
-68.13
-57.67
-49.27
-43.02
-38.84
-36.53
-35.78
-36.20
-37.41
-39.05
-40.90
-42.77
-44.52
-46.04
-47.25
-48.13
-48.78
-49.34
-50.07
-51.20
-52.94
-55.24
-57.77
-59.84
-60.49
-58.68
-53.65
-45.04
-33.16
-18.83
-3.28
12.11
26.13
37.87
46.99
53.63
58.34
61.82
64.62
66.92
68.53
69.07
68.23
66.05
62.97
59.72
57.00
55.16
54.08
53.27
52.17
50.49
48.36
46.41
45.53
46.62
50.30
56.83
66.07
77.58
90.68
104.46
117.84
129.66
138.93
144.95
147.39
146.17
141.12
131.86
117.69
97.96
72.58
42.49
9.77
-22.77
-52.30
-76.60
-94.39
-105.35
-109.86
-108.91
-103.80
-96.18
-87.76
-79.89
-73.13
-66.99
-60.18
-51.13
-38.81
-22.85
-3.92
16.78
38.11
59.49
80.76
101.78
121.88
139.64
153.86
163.35
167.52
166.52
161.32
153.55
145.30
138.73
135.51
137.14
143.22
151.14
156.65
155.55
145.54
127.12
103.22
77.52
54.11
35.11
20.73
10.16
3.21
1.21
6.90
23.28
43.98
63.08
75.29
77.73
69.57
51.02
22.96
-12.58
-51.95
-90.59
-123.15
-146.18
-158.70
-161.75
-156.84
-144.95
-126.99
-104.69
-81.43
-60.77
-45.87
-37.26
-33.71
-32.41
-30.49
-26.73
-22.07
-19.07
-19.76
-24.89
-33.49
-43.41
-52.06
-57.36
-58.47
-55.66
-50.11
-43.10
-35.79
-29.03
-23.47
-19.56
-16.43
-13.99
-12.16
-10.81
-9.54
-7.74
-4.90
-0.78
4.47
10.42
16.31
21.63
26.14
29.93
33.22
36.24
39.14
42.11
45.38
48.97
52.75
56.23
58.54
58.68
55.79
49.55
40.32
29.05
16.94
5.20
-5.24
-13.88
-20.75
-26.25
-31.01
-35.73
-40.95
-47.03
-54.07
-61.98
-70.50
-79.22
-87.55
-94.80
-100.28
-103.55
-104.50
-103.46
-101.01
-97.85
-94.52
-91.23
-87.85
-84.00
-79.30
-73.57
-67.00
-60.01
-53.07
-46.39
-39.73
-32.40
-23.57
-12.67
0.26
14.55
29.13
43.01
55.61
66.78
76.63
85.03
91.48
95.12
94.97
90.36
81.03
67.17
49.32
28.34
5.50
-17.50
-38.57
-55.74
-67.57
-73.65
-74.66
-72.11
-67.80
-63.30
-59.55
-56.85
-54.93
-53.23
-51.09
-47.88
-43.04
-36.06
-26.52
-14.13
1.09
18.68
37.63
56.34
72.84
85.13
91.51
90.92
83.27
69.45
51.23
30.92
10.85
-7.09
-21.79
-32.88
-40.59
-45.44
-47.98
-48.77
-48.39
-47.46
-46.58
-46.20
-46.54
-47.60
-49.26
-51.44
-54.09
-57.07
-59.96
-61.99
-62.12
-59.41
-53.33
-44.01
-32.30
-19.42
-6.65
4.96
14.86
22.86
29.06
33.66
36.95
39.20
40.71
41.70
42.31
42.51
42.17
41.16
39.39
36.98
34.18
31.30
28.65
26.36
24.39
22.48
20.22
17.11
12.69
6.67
-0.91
-9.56
-18.34
-26.06
-31.55
-34.05
-33.37
-29.91
-24.43
-17.76
-10.55
-3.24
3.89
10.52
16.31
20.92
24.23
26.37
27.71
28.65
29.40
29.92
29.95
29.17
27.43
24.76
21.31
17.32
13.01
8.59
4.31
0.45
-2.78
-5.38
-7.65
-10.16
-13.41
-17.54
-22.09
-25.99
-27.96
-26.94
-22.54
-15.16
-5.80
4.28
14.00
22.61
29.66
34.85
37.88
38.49
36.58
32.44
26.71
20.33
14.23
9.06
5.08
2.19
0.11
-1.42
-2.53
-3.22
-3.53
-3.60
-3.78
-4.56
-6.46
-9.86
-14.91
-21.45
-28.99
-36.77
-43.83
-49.21
-52.20
-52.51
-50.38
-46.41
-41.38
-35.93
-30.50
-25.37
-20.80
-17.18
-14.89
-14.13
-14.66
-15.65
-15.89
-14.10
-9.27
-1.09
10.01
22.91
36.02
47.66
56.47
61.77
63.63
62.79
60.30
57.11
53.71
50.04
45.68
40.07
32.91
24.35
15.07
6.12
-1.29
-6.18
-8.08
-7.19
-4.34
-0.63
2.87
5.47
6.89
7.21
6.61
5.31
3.55
1.64
0.05
-0.77
-0.51
0.84
3.00
5.51
7.97
10.15
12.02
13.59
14.82
15.57
15.64
14.97
13.69
12.10
10.48
9.00
7.55
5.87
3.76
1.29
-1.17
-3.02
-3.74
-3.09
-1.15
1.77
5.34
9.35
13.76
18.54
23.54
28.34
32.34
34.88
35.55
34.37
31.84
28.78
26.05
24.29
23.65
23.89
24.51
25.01
25.12
24.82
24.20
23.38
22.36
21.03
19.23
16.80
13.70
10.02
5.97
1.88
-1.86
-4.86
-6.77
-7.34
-6.46
-4.16
-0.65
3.76
8.64
13.59
18.30
22.71
26.94
31.15
35.35
39.25
42.30
43.95
44.02
42.80
41.05
39.61
39.05
39.40
40.21
40.91
41.13
40.90
40.65
40.90
41.94
43.58
45.18
45.79
44.47
40.56
33.94
24.97
14.44
3.31
-7.52
-17.33
-25.67
-32.30
-37.18
-40.40
-42.20
-42.90
-42.98
-42.94
-43.27
-44.30
-46.09
-48.38
-50.68
-52.49
-53.53
-53.85
-53.81
-53.84
-54.18
-54.74
-55.09
-54.76
-53.50
-51.41
-48.99
-46.80
-45.27
-44.53
-44.43
-44.69
-45.09
-45.52
-45.83
-45.80
-45.08
-43.31
-40.36
-36.57
-32.60
-29.23
-26.95
-25.72
-25.05
-24.39
-23.48
-22.61
-22.42
-23.54
-26.24
-30.19
-34.62
-38.66
-41.73
-43.81
-45.37
-46.97
-48.99
-51.47
-54.01
-55.91
-56.07
-53.21
-46.01
-33.49
-15.46
7.15
32.21
56.79
78.00
94.14
104.98
111.47
115.02
116.66
116.56
114.10
108.35
98.72
86.00
71.51
56.47
41.35
25.99
10.09
-6.33
-22.72
-38.09
-50.07
-56.69
-57.39
-53.23
-46.31
-38.70
-31.88
-26.49
-22.13
-15.35
-2.58
18.04
45.53
76.62
107.47
135.06
157.95
176.34
194.11
214.71
239.17
265.57
290.69
312.28
329.71
343.27
336.40
298.58
230.17
144.48
59.59
-11.00
-61.16
-90.62
-102.82
-103.02
-94.11
-78.57
-58.68
-37.52
-18.51
-4.06
4.78
7.99
6.29
2.76
0.06
-1.10
-1.31
-2.60
-6.82
-14.77
-26.13
-39.69
-52.37
-61.27
-64.73
-62.89
-57.47
-50.67
-44.56
-40.81
-40.48
-43.27
-48.26
-54.34
-60.81
-67.47
-74.28
-81.14
-87.85
-94.32
-100.27
-105.56
-110.00
-113.59
-116.18
-117.38
-116.65
-113.66
-108.81
-103.17
-98.24
-95.28
-95.28
-98.59
-104.86
-113.07
-121.84
-130.20
-137.53
-143.57
-147.67
-149.95
-150.85
-151.01
-150.46
-148.66
-145.46
-140.93
-135.35
-127.93
-119.19
-109.93
-101.15
-92.73
-83.81
-74.50
-65.17
-55.87
-43.74
-27.25
-5.54
20.40
48.75
76.67
99.27
111.98
111.92
101.15
80.63
51.18
12.44
-35.07
-79.73
-110.02
-118.30
-121.56
-126.31
-135.88
-142.50
-141.89
-130.54
-106.34
-71.01
-28.87
14.30
60.31
104.02
138.73
159.88
169.29
172.49
173.61
174.08
173.29
172.10
169.24
163.74
154.52
142.06
128.02
114.27
102.50
93.68
88.57
85.29
82.88
81.26
82.53
89.04
101.32
117.18
132.70
143.72
146.69
140.72
127.13
108.73
88.01
66.73
45.90
26.98
11.05
-1.21
-9.89
-16.55
-22.47
-31.12
-43.88
-61.29
-80.58
-97.63
-107.91
-108.43
-98.83
-81.28
-59.60
-37.32
-19.70
-6.30
2.46
5.75
2.72
-6.80
-21.43
-38.40
-54.01
-65.64
-68.62
-63.19
-52.49
-41.08
-33.17
-31.00
-34.52
-41.65
-49.66
-55.93
-59.85
-61.62
-61.81
-60.63
-57.45
-50.60
-38.01
-18.19
8.73
40.43
73.44
103.66
127.20
141.17
144.13
136.05
117.87
90.79
56.74
18.40
-21.51
-60.98
-98.88
-134.85
-168.83
-200.41
-228.56
-249.92
-259.36
-252.21
-226.48
-183.84
-129.10
-68.72
-5.20
53.80
99.98
129.16
143.25
147.52
146.80
143.59
138.01
128.79
114.05
94.18
72.00
51.56
36.29
27.77
25.54
27.67
31.83
35.74
38.71
41.12
43.22
44.39
43.43
39.43
32.42
23.73
14.96
8.10
4.29
3.03
2.38
0.30
-3.77
-8.13
-9.24
-4.14
8.11
24.97
41.00
50.41
49.58
38.43
19.79
-1.84
-22.92
-39.97
-49.91
-50.32
-40.17
-21.02
2.80
24.51
38.32
41.46
35.25
23.97
12.47
4.23
0.30
-0.25
0.76
1.69
1.07
-2.39
-9.70
-21.33
-36.36
-52.54
-66.40
-74.48
-74.60
-66.96
-54.00
-39.01
-25.99
-17.06
-12.46
-10.99
-11.09
-11.39
-10.87
-8.50
-2.76
7.61
23.25
42.90
63.43
80.54
90.42
91.26
83.39
70.32
55.98
43.66
34.77
28.82
23.96
18.24
10.55
1.16
-8.58
-17.19
-23.52
-27.52
-30.47
-34.02
-39.65
-47.75
-57.09
-65.01
-68.69
-65.87
-56.63
-42.78
-27.24
-12.90
-1.96
4.51
6.29
3.83
-1.40
-6.75
-8.54
-3.23
10.80
31.77
54.83
73.88
83.79
83.26
74.62
62.44
51.07
42.71
37.00
32.01
25.67
16.90
5.88
-6.57
-19.61
-32.75
-45.76
-58.45
-69.98
-78.86
-83.42
-82.39
-75.78
-64.92
-52.00
-39.23
-28.17
-19.61
-13.82
-10.90
-10.72
-12.71
-15.67
-18.04
-18.61
-17.10
-14.29
-11.31
-8.99
-7.30
-5.44
-2.56
1.63
6.61
11.45
15.51
18.76
21.57
24.22
26.49
27.62
26.84
24.01
20.02
16.49
15.02
16.38
20.22
25.27
29.96
33.03
33.73
31.75
26.97
19.44
9.54
-1.73
-12.83
-22.05
-28.24
-31.29
-32.20
-32.55
-33.64
-35.85
-38.53
-40.44
-40.29
-37.26
-31.21
-22.71
-12.93
-3.53
3.61
6.77
4.88
-2.02
-12.69
-25.09
-37.07
-47.02
-54.32
-59.23
-62.64
-65.66
-69.22
-73.96
-80.13
-87.54
-95.54
-103.30
-109.46
-112.63
-111.87
-106.87
-97.95
-85.82
-71.30
-55.24
-38.56
-22.34
-7.84
3.72
11.55
15.59
16.45
15.24
13.19
11.30
10.27
10.38
11.67
13.96
16.97
20.28
23.52
26.47
29.26
32.44
36.75
42.76
50.56
59.65
68.95
77.24
83.53
87.32
88.68
88.06
86.14
83.69
81.57
80.63
81.56
84.65
89.55
95.27
100.38
103.51
103.76
100.99
95.77
89.11
82.05
75.32
69.17
63.48
57.93
52.22
46.23
40.03
33.82
27.80
22.12
16.89
12.22
8.19
4.86
2.14
-0.24
-2.64
-5.42
-8.78
-12.72
-17.05
-21.58
-26.28
-31.32
-36.92
-43.10
-49.48
-55.16
-58.95
-59.70
-56.78
-50.37
-41.36
-31.13
-20.97
-11.80
-4.01
2.43
7.70
12.00
15.53
18.50
21.15
23.75
26.40
29.05
31.39
33.04
33.71
33.28
31.88
29.74
27.17
24.34
21.31
17.92
13.98
9.30
3.88
-2.17
-8.60
-15.14
-21.55
-27.57
-32.83
-36.79
-38.79
-38.15
-34.32
-27.08
-16.55
-3.28
11.80
27.35
41.81
53.65
61.73
65.49
65.01
60.89
53.99
45.19
35.38
25.32
15.65
6.75
-1.42
-9.28
-17.48
-26.58
-36.73
-47.58
-58.41
-68.39
-76.86
-83.49
-88.28
-91.44
-93.27
-93.96
-93.51
-91.70
-88.19
-82.60
-74.82
-65.03
-53.81
-41.96
-30.37
-19.72
-10.52
-3.04
2.53
6.08
7.54
7.07
5.17
2.67
0.63
0.07
1.68
5.59
11.35
18.06
24.73
30.63
35.42
39.21
42.34
45.12
47.63
49.67
50.89
50.94
49.61
46.92
43.02
38.21
32.92
27.71
23.24
20.10
18.64
18.84
20.32
22.51
24.89
27.12
29.14
30.97
32.64
34.06
35.03
35.34
34.90
33.80
32.21
30.32
28.21
25.81
22.95
19.48
15.45
11.12
6.88
3.08
-0.10
-2.78
-5.21
-7.74
-10.68
-14.24
-18.62
-23.89
-30.00
-36.61
-43.08
-48.55
-52.12
-53.19
-51.55
-47.46
-41.47
-34.24
-26.40
-18.50
-11.03
-4.42
0.99
5.00
7.63
9.09
9.71
9.84
9.72
9.44
8.97
8.22
7.14
5.76
4.16
2.47
0.82
-0.74
-2.20
-3.64
-5.17
-6.94
-9.10
-11.77
-14.95
-18.48
-21.97
-24.90
-26.62
-26.61
-24.59
-20.63
-15.16
-8.83
-2.34
3.73
9.01
13.35
16.71
19.03
20.25
20.31
19.25
17.31
14.86
12.34
10.07
8.23
6.77
5.51
4.27
2.91
1.40
-0.20
-1.82
-3.39
-4.94
-6.60
-8.56
-11.00
-13.99
-17.39
-20.83
-23.81
-25.80
-26.40
-25.36
-22.65
-18.46
-13.12
-7.13
-1.08
4.46
8.99
12.18
13.93
14.33
13.63
12.21
10.45
8.69
7.06
5.51
3.87
1.98
-0.21
-2.55
-4.77
-6.62
-8.06
-9.21
-10.40
-11.93
-14.05
-16.80
-20.03
-23.46
-26.70
-29.36
-31.13
-31.84
-31.47
-30.10
-27.80
-24.58
-20.46
-15.45
-9.72
-3.64
2.22
7.12
10.25
10.99
9.38
6.52
4.77
7.38
17.41
36.45
63.58
95.20
125.93
150.15
163.64
164.62
153.84
134.06
109.02
82.64
58.37
38.79
25.32
18.02
15.71
16.22
17.19
16.61
13.44
7.66
0.13
-7.78
-14.59
-18.98
-20.08
-17.67
-12.30
-5.22
1.91
7.57
10.95
12.21
12.43
13.04
15.27
19.62
25.86
33.20
40.77
47.87
54.05
59.03
62.48
63.90
62.50
57.30
47.24
31.45
9.55
-18.10
-50.26
-84.98
-119.89
-152.60
-181.07
-203.66
-219.26
-227.13
-226.97
-218.96
-203.88
-183.08
-158.37
-131.77
-105.29
-80.64
-59.11
-41.48
-27.90
-18.03
-11.15
-6.45
-3.26
-1.14
0.11
0.58
0.43
-0.07
-0.68
-1.27
-1.92
-2.90
-4.42
-6.44
-8.58
-10.28
-11.00
-10.49
-8.81
-6.23
-2.86
1.36
6.67
13.22
20.78
28.64
35.82
41.37
44.71
45.73
44.70
42.04
38.18
33.49
28.37
23.26
18.64
14.95
12.37
10.86
10.08
9.65
9.26
8.78
8.21
7.61
7.03
6.36
5.39
3.89
1.72
-1.01
-3.95
-6.51
-8.02
-7.99
-6.22
-2.84
1.66
6.66
11.51
15.68
18.83
20.80
21.56
21.19
19.82
17.65
14.97
12.10
9.38
7.08
5.33
4.09
3.18
2.44
1.74
1.11
0.69
0.57
0.75
1.04
1.17
0.83
-0.17
-1.84
-3.98
-6.18
-7.92
-8.61
-7.82
-5.37
-1.43
3.52
8.77
13.62
17.46
19.92
20.87
20.38
18.67
16.04
12.84
9.36
5.82
2.29
-1.21
-4.69
-8.05
-11.06
-13.43
-14.91
-15.44
-15.20
-14.61
-14.15
-14.21
-15.00
-16.45
-18.24
-19.91
-20.98
-20.95
-19.49
-16.46
-11.99
-6.46
-0.42
5.51
10.75
14.89
17.73
19.29
19.74
19.35
18.37
17.03
15.47
13.79
12.06
10.31
8.54
6.75
4.94
3.17
1.64
0.63
0.40
1.01
2.25
3.56
4.24
3.75
1.92
-0.87
-3.82
-5.95
-6.44
-4.88
-1.42
3.41
8.84
14.14
18.81
22.56
25.26
26.86
27.29
26.52
24.60
21.80
18.53
15.29
12.52
10.45
9.13
8.45
8.28
8.53
9.19
10.31
11.88
13.89
16.20
18.64
20.95
22.86
24.17
24.85
25.15
25.63
26.99
29.89
34.69
41.24
48.86
56.53
63.21
68.13
71.03
72.08
71.66
70.06
67.31
63.13
57.15
49.14
39.13
27.37
14.28
0.46
-13.18
-25.22
-33.76
-36.93
-33.52
-23.68
-9.05
7.63
23.43
36.09
44.59
49.12
50.53
49.78
47.44
43.66
38.39
31.84
24.77
18.51
14.54
13.89
16.61
21.64
27.17
31.44
33.42
33.13
31.33
28.89
26.24
23.14
18.93
12.90
4.56
-6.28
-19.72
-35.86
-54.76
-76.16
-99.14
-121.97
-142.19
-157.19
-164.91
-164.55
-156.98
-144.42
-129.83
-115.82
-103.91
-94.23
-85.86
-77.56
-68.43
-58.29
-47.54
-36.93
-27.20
-18.97
-12.81
-9.28
-8.94
-12.18
-18.91
-28.40
-39.27
-49.70
-57.90
-62.59
-63.42
-61.07
-56.92
-52.42
-48.48
-45.19
-41.98
-38.13
-33.25
-27.50
-21.38
-15.37
-9.53
-3.56
2.98
10.18
17.64
24.54
30.05
33.66
35.42
35.76
35.30
34.55
33.81
33.18
32.68
32.36
32.37
32.85
33.77
34.78
35.11
33.80
29.94
23.09
13.65
2.90
-7.24
-14.84
-18.58
-18.21
-14.55
-9.09
-3.42
1.32
4.59
6.39
6.91
6.25
4.38
1.30
-2.79
-7.33
-11.56
-14.77
-16.64
-17.32
-17.39
-17.54
-18.26
-19.65
-21.49
-23.42
-25.09
-26.26
-26.71
-26.07
-23.88
-19.63
-13.02
-4.18
6.27
17.39
28.05
37.29
44.39
49.00
51.08
50.89
48.87
45.60
41.65
37.49
33.42
29.55
25.84
22.25
18.76
15.49
12.67
10.50
9.11
8.39
8.06
7.77
7.22
6.30
5.07
3.72
2.61
2.16
2.84
5.20
9.76
16.79
26.11
36.93
48.12
58.53
67.43
74.67
80.65
85.91
90.72
94.71
96.95
96.25
91.79
83.29
70.98
55.63
38.25
19.69
0.51
-18.89
-38.14
-56.31
-72.28
-85.13
-93.88
-97.84
-96.91
-91.87
-84.25
-76.02
-68.23
-61.34
-55.37
-49.31
-41.71
-31.56
-19.17
-6.23
4.59
12.09
16.10
17.27
17.78
20.58
28.64
44.02
67.45
97.93
134.39
174.15
206.97
221.00
208.58
172.29
123.54
79.50
44.61
18.83
0.12
-14.21
-24.95
-31.53
-33.24
-30.65
-26.01
-23.04
-23.83
-29.19
-38.71
-50.25
-61.01
-68.81
-73.23
-75.59
-78.30
-82.26
-87.32
-92.73
-97.14
-99.36
-98.80
-95.81
-91.46
-87.12
-82.91
-78.16
-71.86
-62.93
-50.97
-36.52
-21.08
-6.45
6.06
16.66
26.66
37.55
50.14
63.79
76.38
84.86
86.10
77.98
60.18
34.34
3.58
-28.20
-57.40
-81.48
-99.38
-111.32
-118.16
-120.57
-118.23
-109.63
-92.42
-64.57
-25.72
21.84
73.21
122.18
163.10
192.55
209.96
216.78
214.97
205.93
190.21
168.26
141.35
111.87
82.76
56.42
34.18
16.36
2.92
-6.12
-10.77
-11.56
-10.09
-8.87
-10.61
-17.18
-28.97
-45.02
-63.62
-83.02
-101.63
-117.95
-130.49
-137.96
-139.65
-135.96
-128.65
-120.48
-114.28
-111.95
-113.93
-119.20
-126.04
-132.41
-136.46
-136.93
-133.24
-125.30
-113.42
-98.15
-80.40
-61.85
-43.91
-27.43
-12.80
-0.15
10.48
19.03
25.66
30.51
32.76
31.73
26.64
16.30
-0.82
-25.54
-56.88
-90.99
-122.21
-145.57
-156.77
-153.23
-134.50
-102.08
-58.43
-6.46
50.86
114.24
176.45
226.19
254.65
261.03
251.77
237.31
223.65
213.29
206.48
201.75
198.62
197.45
198.46
200.06
198.62
189.41
169.08
136.80
93.98
44.86
-4.97
-50.61
-89.36
-120.80
-145.99
-165.84
-180.80
-191.35
-197.51
-199.18
-196.63
-190.69
-182.63
-173.75
-164.86
-156.34
-148.52
-141.38
-134.57
-127.55
-119.78
-110.84
-100.49
-88.73
-75.97
-63.20
-51.57
-42.05
-35.05
-30.28
-26.98
-24.26
-21.55
-19.00
-17.51
-18.30
-22.34
-29.67
-39.17
-48.73
-55.96
-58.99
-57.24
-51.49
-43.51
-35.21
-27.93
-21.95
-16.42
-9.36
2.06
21.05
50.50
91.79
143.99
203.35
263.88
318.67
361.64
388.89
399.22
393.78
375.12
346.14
309.35
266.67
219.77
170.62
121.70
75.78
35.26
1.39
-26.06
-48.41
-67.09
-82.84
-95.48
-104.50
-110.00
-113.20
-116.19
-121.02
-128.55
-137.97
-147.04
-153.01
-153.60
-147.75
-135.79
-119.22
-100.14
-80.57
-61.94
-44.80
-28.90
-13.62
1.65
17.08
32.35
46.74
59.30
68.87
74.19
74.04
67.57
54.52
35.44
11.65
-14.82
-41.40
-65.24
-83.49
-93.92
-95.33
-87.94
-73.26
-53.69
-31.82
-9.93
10.30
27.71
41.58
51.44
57.09
58.64
56.48
51.22
43.64
34.61
25.06
15.80
7.35
-0.12
-6.65
-12.12
-15.85
-16.60
-13.10
-4.75
7.68
22.11
35.90
46.98
54.62
59.58
63.33
67.04
70.85
73.91
75.02
73.56
69.92
65.34
61.19
58.20
56.11
53.80
49.99
43.78
35.09
24.38
12.29
-0.87
-15.13
-30.54
-46.52
-61.56
-73.44
-79.89
-79.50
-72.38
-60.08
-45.11
-30.10
-17.25
-8.09
-3.55
-4.04
-9.41
-18.76
-30.40
-42.14
-51.80
-57.85
-59.80
-58.20
-54.26
-49.43
-44.94
-41.59
-39.72
-39.25
-39.81
-40.87
-41.95
-42.72
-43.19
-43.62
-44.41
-45.89
-48.11
-50.80
-53.33
-54.93
-54.86
-52.63
-48.15
-41.75
-34.21
-26.51
-19.70
-14.68
-11.97
-11.73
-13.80
-17.84
-23.53
-30.62
-38.84
-47.78
-56.72
-64.77
-71.02
-74.85
-76.16
-75.38
-73.21
-70.30
-66.94
-62.99
-58.02
-51.65
-43.80
-34.85
-25.55
-16.72
-9.00
-2.56
2.86
7.86
13.10
19.09
26.04
33.84
42.12
50.42
58.23
65.03
70.39
73.95
75.49
75.03
72.83
69.38
65.22
60.88
56.73
52.93
49.40
45.90
42.21
38.22
34.12
30.39
27.62
26.24
26.34
27.62
29.41
31.03
31.93
31.80
30.56
28.36
25.53
22.65
20.50
19.95
21.70
25.94
32.32
39.97
47.83
55.00
60.90
65.34
68.29
69.70
69.35
66.90
62.04
54.72
45.23
34.21
22.52
11.08
0.65
-8.14
-14.83
-19.11
-20.80
-19.95
-16.99
-12.78
-8.54
-5.64
-5.24
-7.97
-13.78
-21.84
-30.76
-38.81
-44.35
-46.13
-43.60
-37.01
-27.39
-16.24
-5.17
4.46
11.85
16.79
19.54
20.57
20.41
19.46
18.07
16.53
15.09
13.93
13.12
12.59
12.13
11.54
10.67
9.48
8.07
6.57
5.00
3.33
1.36
-1.13
-4.36
-8.40
-13.08
-17.94
-22.22
-25.05
-25.65
-23.59
-18.91
-12.07
-3.83
5.05
13.86
21.99
28.91
34.11
37.16
37.80
36.13
32.52
27.59
22.05
16.48
11.31
6.72
2.74
-0.74
-3.92
-7.06
-10.37
-13.98
-17.92
-22.14
-26.54
-31.09
-35.78
-40.53
-45.15
-49.10
-51.59
-51.74
-48.89
-42.90
-34.34
-24.34
-14.27
-5.33
1.76
6.84
10.13
11.99
12.71
12.49
11.46
9.86
8.00
6.16
4.47
2.80
0.88
-1.60
-4.70
-8.18
-11.47
-13.96
-15.22
-15.30
-14.72
-14.33
-14.99
-17.16
-20.69
-24.82
-28.38
-30.13
-29.14
-25.02
-17.98
-8.76
1.63
12.16
21.93
30.31
36.94
41.67
44.44
45.31
44.43
42.09
38.72
34.89
31.15
27.97
25.58
24.03
23.26
23.22
23.89
25.20
26.93
28.61
29.54
29.02
26.52
21.97
15.81
8.89
2.24
-3.18
-6.62
-7.70
-6.31
-2.65
2.90
9.88
17.80
26.19
34.63
42.79
50.43
57.49
63.95
70.05
76.09
82.34
88.91
95.66
102.16
107.77
111.39
111.12
104.40
88.52
61.72
24.48
-19.72
-64.91
-104.36
-132.76
-148.08
-151.49
-146.21
-135.81
-123.06
-109.73
-97.19
-86.84
-78.54
-72.01
-66.03
-58.93
-49.67
-38.67
-27.69
-18.89
-13.55
-11.27
-10.49
-9.21
-5.85
0.38
9.73
22.08
36.66
51.79
64.86
72.79
73.54
67.22
56.18
44.19
34.65
29.12
27.02
26.10
24.25
20.39
14.67
7.96
0.99
-5.94
-13.04
-20.64
-28.89
-37.75
-46.75
-55.11
-61.80
-65.60
-65.22
-59.62
-48.39
-32.19
-12.70
7.89
27.51
44.64
58.66
69.73
78.43
85.27
91.31
96.78
101.76
106.31
110.47
114.10
116.91
118.50
118.32
115.12
108.12
97.79
85.49
72.65
60.11
47.98
35.95
23.70
9.56
-7.04
-25.03
-42.47
-58.07
-71.92
-85.22
-99.39
-115.54
-136.98
-165.36
-199.71
-236.84
-272.99
-305.01
-330.70
-348.61
-358.37
-364.16
-369.43
-374.97
-379.10
-379.33
-373.58
-360.55
-339.25
-288.71
-203.83
-97.06
8.79
95.57
157.02
195.86
218.25
231.10
240.25
246.04
248.88
250.42
252.44
255.07
258.24
258.77
254.15
243.47
224.15
196.77
165.39
134.97
108.55
85.46
61.90
34.09
0.90
-38.12
-80.32
-117.98
-144.19
-156.23
-155.91
-147.12
-131.93
-103.54
-59.70
-3.39
56.02
105.32
133.19
135.10
115.28
84.68
56.45
39.34
36.45
45.16
58.92
70.28
73.45
67.39
52.95
33.36
12.43
-5.60
-17.72
-23.20
-23.30
-20.33
-16.43
-12.93
-10.06
-8.20
-8.47
-12.09
-20.34
-34.49
-54.05
-76.62
-99.31
-119.87
-138.04
-152.05
-161.29
-165.50
-164.38
-157.69
-145.54
-128.70
-108.11
-84.70
-59.24
-33.03
-7.84
14.10
30.71
40.83
44.70
44.09
41.51
39.19
38.03
38.09
39.40
42.90
50.43
63.96
84.43
111.16
142.13
174.54
205.79
233.50
255.01
267.00
265.79
248.48
214.51
166.46
109.60
50.80
-3.01
-46.05
-74.36
-86.01
-81.10
-61.51
-30.50
7.95
49.80
91.50
129.94
162.22
185.50
197.17
195.28
179.27
150.32
111.39
66.85
21.82
-18.70
-50.59
-71.20
-79.67
-76.80
-64.52
-45.25
-21.37
4.99
31.86
57.40
79.96
98.53
113.17
125.20
136.69
149.46
164.08
179.18
191.63
197.51
193.40
177.43
149.60
111.67
66.78
18.75
-27.69
-67.28
-95.34
-109.25
-109.44
-99.55
-85.46
-73.45
-68.77
-73.89
-88.08
-108.45
-131.45
-154.05
-174.13
-190.32
-201.58
-207.82
-209.10
-205.78
-199.11
-191.57
-185.85
-183.45
-183.82
-184.75
-185.71
-186.17
-185.18
-181.88
-176.03
-167.36
-154.70
-136.27
-110.88
-83.54
-59.17
-39.70
-24.56
-13.03
-4.71
1.05
5.23
8.41
3.53
-13.36
-39.14
-66.32
-89.36
-107.07
-121.64
-136.89
-156.91
-193.69
-252.61
-327.45
-404.73
-472.39
-523.32
-554.37
-565.23
-501.81
-351.04
-153.33
30.11
164.34
247.16
291.93
313.98
324.71
330.29
323.80
300.74
265.60
228.95
199.38
180.26
170.85
167.92
167.46
159.47
139.24
111.36
85.62
69.42
64.66
69.10
78.61
88.78
93.45
89.98
81.14
72.28
66.77
64.59
63.85
62.60
59.92
54.26
45.77
36.69
29.71
25.83
24.08
22.75
20.50
16.91
11.79
5.51
-1.02
-7.07
-12.64
-18.29
-24.56
-31.49
-39.22
-46.75
-52.52
-54.96
-52.87
-45.72
-33.76
-18.04
-0.15
18.10
35.29
50.69
63.87
74.59
82.72
88.34
91.76
93.45
93.86
93.44
92.92
92.52
92.05
91.15
89.72
87.89
85.87
83.66
81.09
78.51
75.78
72.38
67.56
60.78
51.93
41.35
29.80
14.11
-5.26
-25.26
-42.36
-55.19
-64.71
-72.80
-80.79
-88.94
-96.65
-102.52
-106.05
-107.56
-107.82
-107.48
-106.86
-106.06
-105.39
-105.53
-106.98
-110.62
-117.29
-127.18
-139.35
-151.87
-162.51
-169.62
-172.70
-172.14
-169.37
-166.00
-162.94
-159.77
-154.72
-145.39
-129.75
-107.01
-77.69
-43.77
-8.03
26.73
58.16
84.64
105.15
119.13
126.49
127.67
123.71
116.13
106.71
97.17
88.69
81.74
76.02
70.71
64.93
58.10
50.15
41.48
32.77
24.72
17.77
12.00
7.09
2.47
-2.59
-8.65
-15.94
-24.08
-32.11
-38.59
-41.98
-41.08
-35.39
-25.27
-11.79
3.55
19.25
34.04
47.01
57.56
65.31
70.01
71.61
70.36
66.84
61.89
56.47
51.37
47.05
43.52
40.52
37.70
34.76
31.66
28.51
25.54
22.87
20.46
18.05
15.23
11.59
6.88
1.27
-4.65
-9.85
-13.16
-13.47
-10.07
-2.78
7.98
21.29
35.86
50.23
63.01
73.08
79.72
82.70
82.29
79.06
73.78
67.27
60.30
53.44
47.03
41.04
35.10
28.67
21.28
12.85
3.75
-5.35
-13.85
-21.62
-29.14
-37.34
-47.17
-59.13
-72.91
-87.37
-100.80
-111.37
-117.61
-118.71
-114.72
-106.38
-94.94
-81.77
-68.14
-55.05
-43.15
-32.86
-24.28
-17.22
-11.21
-5.58
0.28
6.76
13.76
20.79
27.17
32.36
36.18
38.83
40.82
42.68
44.73
47.10
49.70
52.31
54.64
56.40
57.41
57.77
58.04
59.18
62.37
68.59
78.29
91.29
107.07
125.05
144.88
166.33
188.87
211.38
232.01
248.56
259.00
261.87
256.45
242.65
220.88
191.95
157.17
118.36
77.73
37.52
-0.52
-35.42
-67.06
-95.82
-122.11
-145.93
-166.77
-183.77
-196.22
-203.90
-207.25
-207.18
-204.74
-200.61
-194.89
-187.22
-177.12
-164.41
-149.33
-132.57
-114.91
-97.00
-79.21
-61.70
-44.73
-28.75
-14.49
-2.67
6.28
12.43
16.34
18.76
20.37
21.45
21.98
21.81
20.93
19.54
18.01
16.67
15.54
14.34
12.48
9.36
4.59
-1.82
-9.37
-17.24
-24.43
-29.97
-33.09
-33.28
-30.37
-24.49
-16.07
-5.80
5.47
16.84
27.53
36.92
44.65
50.55
54.57
56.78
57.37
56.67
55.13
53.22
51.37
49.73
48.23
46.52
44.18
40.89
36.56
31.44
25.96
20.63
15.79
11.53
7.67
3.86
-0.25
-4.87
-9.94
-15.04
-19.47
-22.35
-22.84
-20.39
-14.96
-7.08
2.27
11.95
20.88
28.31
33.76
37.04
38.13
37.14
34.37
30.28
25.49
20.60
16.10
12.22
8.98
6.22
3.76
1.44
-0.82
-3.02
-5.18
-7.36
-9.63
-12.13
-15.03
-18.48
-22.56
-27.17
-31.97
-36.32
-39.33
-40.08
-37.88
-32.53
-24.44
-14.51
-3.95
6.11
14.75
21.45
26.05
28.61
29.37
28.61
26.71
23.99
20.82
17.45
14.06
10.66
7.18
3.54
-0.33
-4.37
-8.40
-12.12
-15.33
-18.03
-20.45
-23.00
-26.05
-29.86
-34.48
-39.77
-45.35
-50.60
-54.76
-56.98
-56.52
-53.00
-46.58
-38.03
-28.51
-19.00
-10.16
-2.20
4.90
11.19
16.61
21.00
24.27
26.71
29.69
34.85
43.41
55.41
69.56
83.71
95.70
104.29
109.82
115.32
124.43
139.66
161.09
186.42
212.17
235.02
252.34
262.04
263.95
257.58
241.99
216.41
181.68
141.19
100.27
64.23
36.50
20.48
17.20
25.49
42.63
65.69
92.86
123.69
158.00
178.82
172.43
132.66
65.52
-14.36
-91.88
-156.74
-204.40
-235.13
-252.25
-257.31
-251.13
-234.44
-209.03
-178.47
-147.40
-120.37
-100.68
-89.64
-84.25
-80.82
-76.46
-70.04
-62.10
-53.95
-46.75
-41.25
-37.79
-35.08
-31.63
-26.76
-20.63
-14.22
-8.81
-5.48
-5.00
-7.89
-14.09
-20.51
-25.78
-29.48
-31.96
-33.80
-35.39
-36.77
-37.81
-38.12
-37.52
-36.58
-36.01
-36.45
-38.19
-41.10
-44.76
-48.70
-52.46
-55.65
-58.13
-59.58
-59.58
-57.81
-54.27
-49.32
-43.59
-37.77
-32.35
-27.79
-24.31
-22.02
-21.04
-21.45
-23.19
-25.85
-28.57
-30.27
-30.08
-27.65
-23.40
-18.42
-14.01
-11.04
-9.57
-8.87
-7.91
-5.99
-3.11
0.03
2.44
3.32
2.33
-0.42
-4.49
-9.24
-13.85
-17.33
-18.75
-17.57
-14.00
-9.16
-4.56
-1.38
0.09
0.71
1.90
4.96
10.29
17.10
23.56
27.50
27.25
22.25
13.31
2.12
-9.20
-18.97
-26.49
-32.19
-37.16
-42.48
-48.70
-55.72
-63.56
-72.21
-81.93
-93.20
-106.49
-121.71
-137.86
-153.00
-164.76
-171.76
-173.08
-168.53
-158.71
-145.01
-129.12
-112.45
-95.84
-79.83
-65.98
-55.27
-47.90
-43.57
-41.88
-42.51
-45.04
-49.11
-54.54
-62.66
-73.54
-84.98
-92.94
-93.07
-82.41
-60.77
-31.19
9.71
57.39
102.98
138.82
162.93
177.89
186.54
189.65
186.67
177.69
163.33
146.55
131.32
120.44
114.15
110.66
107.67
103.78
98.81
92.23
83.99
74.36
63.70
52.36
41.20
31.79
25.96
24.74
26.95
29.77
30.11
25.82
16.24
2.65
-12.55
-27.01
-39.15
-48.54
-55.66
-60.75
-63.35
-62.85
-58.48
-50.16
-38.80
-25.76
-11.06
4.11
18.81
32.88
46.22
59.15
71.65
81.64
87.86
92.22
98.43
109.38
127.48
148.98
168.64
182.11
187.74
182.83
169.50
151.41
131.88
112.70
93.59
73.87
53.27
32.42
12.99
-2.61
-13.29
-19.42
-22.41
-24.17
-25.81
-27.71
-29.85
-32.02
-33.73
-35.21
-37.03
-39.69
-43.45
-47.81
-51.89
-54.85
-56.20
-55.64
-53.58
-50.78
-47.92
-45.38
-42.94
-40.13
-36.57
-32.26
-27.42
-22.70
-18.78
-16.23
-15.27
-15.77
-17.31
-19.33
-21.24
-22.49
-22.73
-21.86
-20.06
-17.58
-14.66
-11.47
-8.08
-4.58
-1.24
1.50
3.09
3.21
1.90
-0.31
-2.65
-4.44
-5.44
-5.97
-6.78
-8.59
-11.80
-16.25
-21.28
-26.15
-30.27
-33.51
-36.14
-38.65
-41.48
-44.89
-48.86
-53.11
-57.10
-60.07
-61.11
-59.35
-54.22
-45.73
-34.57
-22.04
-9.69
1.06
9.25
14.44
16.68
16.38
14.12
10.55
6.27
1.75
-2.80
-7.43
-12.44
-18.16
-24.73
-31.87
-38.91
-44.86
-48.89
-50.55
-50.14
-48.62
-47.44
-48.05
-51.52
-58.17
-67.38
-77.65
-86.87
-92.83
-93.76
-88.91
-78.76
-64.90
-49.58
-35.06
-23.10
-14.65
-9.88
-8.37
-9.36
-11.87
-14.87
-17.38
-18.61
-18.21
-16.29
-13.41
-10.34
-7.76
-6.17
-5.68
-6.23
-7.68
-10.05
-13.42
-18.00
-23.88
-31.11
-39.51
-48.68
-57.84
-65.79
-70.97
-71.83
-67.31
-57.28
-42.73
-25.55
-7.88
8.46
22.48
33.95
43.11
50.24
55.39
58.41
59.17
57.86
55.04
51.54
48.13
45.30
43.06
41.06
38.81
35.95
32.44
28.52
24.54
20.75
17.14
13.42
9.12
3.71
-3.20
-11.68
-21.30
-30.95
-39.00
-43.50
-42.73
-35.76
-22.82
-5.35
14.38
33.91
51.26
65.29
75.71
82.89
87.43
89.86
90.44
89.32
86.59
82.53
77.62
72.50
67.74
63.67
60.23
57.10
53.84
50.08
45.72
40.86
35.75
30.58
25.37
19.96
14.08
7.56
0.37
-7.33
-15.41
-23.82
-32.64
-41.82
-50.84
-58.48
-62.94
-62.34
-55.47
-42.38
-24.51
-4.27
15.70
33.32
47.49
57.96
65.12
69.47
71.39
71.13
68.94
65.26
60.74
56.11
51.99
48.66
46.01
43.64
41.04
37.86
33.99
29.54
24.74
19.74
14.57
9.12
3.31
-2.89
-9.37
-16.03
-22.84
-29.91
-37.42
-45.29
-52.94
-59.15
-62.23
-60.63
-53.46
-40.96
-24.48
-6.11
11.96
27.94
40.73
49.90
55.46
57.69
57.00
53.91
49.12
43.42
37.58
32.23
27.71
24.04
21.03
18.36
15.79
13.17
10.41
7.55
4.63
1.62
-1.54
-4.98
-8.84
-13.19
-17.99
-23.03
-28.09
-33.01
-37.58
-41.36
-43.50
-42.82
-38.17
-28.86
-15.06
2.06
20.54
38.15
52.99
63.91
70.58
73.25
72.57
69.56
65.17
60.11
54.66
48.90
42.77
36.33
29.63
22.81
16.52
11.23
6.68
2.00
-3.77
-11.16
-20.20
-30.69
-42.37
-53.77
-63.79
-72.42
-80.68
-89.66
-99.69
-110.29
-120.58
-129.66
-134.67
-133.37
-125.36
-112.04
-95.09
-75.26
-52.47
-26.52
2.26
35.57
74.15
116.48
159.12
198.68
233.33
262.82
287.69
291.44
264.28
210.11
145.86
89.18
48.71
23.64
7.72
-6.73
-25.49
-47.80
-69.21
-85.06
-92.82
-92.68
-86.68
-77.68
-68.15
-59.58
-50.32
-38.45
-25.19
-14.00
-8.35
-9.26
-14.70
-20.84
-24.28
-23.09
-18.03
-13.68
-15.55
-26.50
-44.75
-64.83
-80.49
-87.77
-85.91
-77.96
-68.98
-63.13
-61.65
-62.72
-63.13
-60.44
-55.11
-48.20
-41.87
-38.02
-37.17
-38.48
-40.42
-41.69
-41.75
-40.71
-38.55
-35.13
-30.02
-22.51
-12.09
1.45
17.99
36.32
55.33
74.43
92.68
108.66
120.77
127.33
127.41
121.19
111.34
99.01
86.19
74.59
65.23
58.39
53.41
49.63
46.74
44.77
43.80
43.84
44.13
43.41
40.58
35.01
27.45
19.63
13.30
9.27
7.25
5.72
2.39
-1.91
-7.24
-13.38
-20.14
-27.54
-35.70
-44.28
-52.33
-58.32
-60.46
-57.63
-49.21
-35.27
-16.46
6.11
31.02
56.39
79.88
98.92
110.84
113.95
107.84
93.43
72.62
47.84
21.70
-3.41
-25.50
-43.37
-56.48
-65.22
-70.84
-75.09
-79.65
-85.58
-93.11
-101.87
-111.20
-120.39
-128.88
-136.25
-142.00
-145.48
-145.75
-141.99
-133.99
-122.25
-107.95
-92.70
-78.17
-65.61
-55.54
-47.75
-41.67
-37.31
-34.68
-33.65
-33.66
-33.87
-33.18
-30.36
-24.40
-14.84
-3.20
8.92
20.57
31.73
42.79
53.94
64.89
74.88
82.81
85.83
82.01
70.82
52.62
27.37
-5.50
-46.06
-92.59
-140.98
-187.79
-228.74
-259.78
-278.34
-284.57
-280.71
-269.59
-253.28
-216.70
-153.98
-71.60
15.02
91.77
151.81
194.10
220.32
233.75
236.13
227.06
207.67
181.98
155.77
132.79
114.81
101.08
87.19
67.20
36.45
-4.28
-47.97
-84.63
-106.16
-109.59
-97.61
-76.59
-55.67
-38.75
-27.72
-22.44
-21.29
-22.26
-23.52
-23.75
-22.02
-17.45
-9.21
3.09
19.04
37.55
56.73
74.31
88.29
97.91
104.07
109.04
114.68
121.65
129.03
134.66
136.30
132.65
123.96
111.60
97.51
82.84
68.08
53.54
39.78
27.86
18.98
14.00
12.94
15.08
18.94
22.94
25.85
26.95
25.97
22.81
17.57
10.47
2.06
-6.81
-15.08
-21.66
-25.91
-27.83
-28.07
-27.62
-27.36
-27.75
-28.73
-29.92
-30.96
-31.82
-32.81
-34.41
-37.06
-40.88
-45.71
-51.10
-56.45
-60.96
-63.72
-63.80
-60.46
-53.55
-43.68
-32.19
-20.78
-10.93
-3.48
1.41
4.10
5.01
4.45
2.65
-0.01
-2.78
-4.69
-4.93
-3.21
-0.05
3.43
6.07
7.15
6.62
5.07
3.21
1.52
-0.03
-1.95
-4.93
-9.57
-16.02
-23.78
-31.72
-38.32
-42.00
-41.56
-36.51
-27.22
-14.77
-0.60
13.78
27.03
38.07
46.02
50.23
50.40
46.82
40.33
32.24
23.96
16.62
10.76
6.34
2.93
0.04
-2.69
-5.37
-7.92
-10.21
-12.20
-13.90
-15.49
-17.21
-19.42
-22.47
-26.51
-31.24
-35.72
-38.48
-37.85
-32.57
-22.30
-7.77
9.35
26.98
43.18
56.52
66.20
71.91
73.70
71.90
67.06
59.97
51.56
42.71
34.09
26.05
18.58
11.37
4.10
-3.47
-11.29
-19.01
-26.20
-32.48
-37.84
-42.66
-47.62
-53.46
-60.64
-69.20
-78.65
-87.97
-95.77
-100.55
-100.99
-96.33
-86.67
-72.96
-56.75
-39.80
-23.59
-9.16
2.89
12.24
18.69
22.15
22.76
21.05
17.88
14.34
11.43
9.87
9.97
11.69
14.77
19.03
24.44
31.19
39.50
49.51
61.08
73.74
86.74
99.12
109.83
117.92
122.80
124.52
123.89
122.36
121.61
122.87
126.43
131.45
136.32
139.25
138.95
134.99
127.77
118.14
107.01
95.05
82.62
69.92
57.15
44.60
32.61
21.39
10.87
0.77
-9.29
-19.46
-29.58
-39.16
-47.67
-54.76
-60.41
-64.91
-68.69
-72.14
-75.56
-79.18
-83.15
-87.42
-91.60
-94.92
-96.39
-95.11
-90.62
-83.10
-73.25
-62.04
-50.40
-39.08
-28.61
-19.39
-11.73
-5.76
-1.38
1.78
4.26
6.63
9.29
12.43
15.97
19.60
22.91
25.36
26.56
26.23
24.45
21.54
18.00
14.27
10.47
6.29
1.08
-5.89
-15.03
-26.13
-38.14
-49.41
-58.08
-62.69
-62.53
-57.94
-50.08
-40.60
-31.14
-23.01
-16.97
-13.23
-11.55
-11.39
-12.00
-12.55
-12.21
-10.34
-6.66
-1.45
4.52
10.17
14.54
17.19
18.36
18.78
19.22
19.99
20.68
20.37
18.06
13.21
5.98
-2.80
-11.88
-19.85
-25.31
-27.06
-24.31
-17.07
-6.33
6.11
18.08
27.78
34.39
38.06
39.43
39.06
36.90
32.44
25.18
15.20
3.37
-8.86
-20.02
-28.98
-35.14
-38.23
-38.13
-34.67
-27.80
-17.49
-3.88
12.84
32.47
54.68
78.81
103.70
127.72
149.03
166.05
177.85
184.36
186.25
184.68
180.83
175.61
169.36
161.74
151.83
138.33
119.94
95.79
65.89
31.23
-6.35
-44.56
-81.15
-114.38
-143.16
-166.98
-185.64
-199.04
-207.07
-209.65
-206.91
-199.34
-187.77
-173.31
-157.16
-140.58
-124.66
-110.23
-97.66
-86.78
-76.86
-66.80
-55.51
-42.33
-27.42
-11.84
2.66
14.21
21.52
24.24
23.05
19.27
14.24
8.76
2.86
-4.08
-12.83
-23.91
-37.26
-52.17
-67.46
-81.76
-93.79
-102.70
-108.25
-110.87
-111.46
-111.14
-110.85
-111.19
-112.18
-113.39
-113.92
-112.56
-108.02
-99.20
-85.50
-67.19
-45.35
-21.73
1.73
23.47
42.53
58.60
71.82
82.43
90.53
96.02
98.74
98.68
96.18
91.95
86.93
81.96
77.54
73.60
69.55
64.59
58.00
49.47
39.13
27.46
15.04
2.33
-10.40
-23.00
-35.16
-46.31
-55.53
-61.81
-64.33
-62.78
-57.54
-49.64
-40.47
-31.42
-23.50
-17.22
-12.59
-9.36
-7.25
-6.13
-6.01
-6.91
-8.67
-10.93
-13.20
-15.05
-16.37
-17.28
-18.09
-18.96
-19.85
-20.49
-20.63
-20.23
-19.63
-19.52
-20.88
-24.68
-31.60
-41.67
-54.23
-67.95
-80.90
-90.79
-95.54
-93.79
-85.44
-71.70
-54.70
-36.93
-20.62
-7.23
2.89
10.08
14.87
17.65
18.49
17.69
15.65
12.89
9.95
7.71
6.71
6.90
7.77
8.35
8.58
8.76
9.19
10.09
12.47
16.76
22.36
27.61
29.89
28.58
24.35
18.70
13.85
13.70
21.03
36.37
57.65
80.15
101.43
120.38
136.89
151.83
168.33
188.17
211.26
235.27
255.62
271.27
282.79
291.49
283.41
249.53
190.38
118.55
60.42
18.66
-9.24
-25.89
-35.82
-40.81
-40.63
-37.14
-32.55
-29.69
-32.37
-40.67
-52.50
-63.84
-69.69
-64.63
-47.20
-18.01
19.40
58.37
93.06
113.28
112.01
90.57
66.81
48.25
36.37
26.75
15.43
-0.39
-21.48
-45.59
-68.61
-86.58
-99.15
-106.90
-111.58
-115.59
-121.93
-132.14
-145.04
-157.71
-167.56
-174.69
-179.52
-182.36
-175.00
-152.89
-117.42
-74.87
-32.12
6.05
36.23
57.09
68.93
73.52
72.13
66.75
59.94
54.12
50.37
47.78
44.68
40.19
35.48
32.03
31.67
35.28
42.52
51.63
60.21
65.75
67.53
66.97
65.85
65.43
65.58
65.23
62.97
57.68
47.17
30.21
7.56
-18.74
-43.45
-61.96
-70.93
-69.62
-60.44
-50.49
-47.46
-56.11
-77.00
-107.33
-143.21
-180.43
-215.46
-232.49
-221.65
-185.29
-136.08
-87.02
-45.59
-14.64
5.94
17.58
22.55
21.39
14.69
4.17
-7.57
-18.19
-27.42
-34.28
-38.25
-38.96
-38.01
-37.22
-37.66
-39.15
-40.90
-42.00
-41.21
-37.11
-28.50
-15.49
1.40
21.59
44.03
67.27
89.61
109.57
125.80
137.57
144.67
148.44
152.04
159.65
174.42
196.43
222.00
244.63
257.71
257.09
242.74
218.35
189.31
160.32
133.88
110.12
87.65
64.65
39.62
11.62
-19.63
-53.46
-88.42
-122.39
-152.88
-177.70
-195.23
-204.52
-205.47
-198.74
-185.76
-168.59
-149.56
-130.80
-113.83
-99.27
-87.05
-76.73
-67.88
-60.38
-54.39
-50.12
-47.64
-46.62
-46.39
-46.20
-45.52
-44.25
-42.74
-41.52
-41.03
-41.30
-42.02
-42.69
-42.99
-42.95
-43.05
-43.97
-46.36
-50.52
-56.18
-62.47
-67.99
-71.13
-70.45
-65.05
-54.89
-40.79
-24.24
-7.00
9.34
23.56
34.89
42.97
47.68
49.19
47.98
44.85
40.83
37.04
34.38
33.29
33.70
35.10
36.77
38.10
38.73
38.64
37.98
36.82
35.07
32.46
28.64
23.42
16.86
9.34
1.52
-5.69
-11.17
-13.70
-12.21
-6.17
4.18
17.74
32.86
47.78
61.14
72.19
80.68
86.64
90.06
90.87
89.06
84.88
78.97
72.20
65.46
59.28
53.74
48.44
42.83
36.47
29.26
21.51
13.69
6.13
-1.23
-8.86
-17.43
-27.45
-38.96
-51.45
-63.87
-74.88
-83.07
-87.25
-86.58
-80.86
-70.55
-56.74
-40.93
-24.69
-9.38
4.04
14.93
22.86
27.46
28.57
26.42
21.80
15.98
10.44
6.40
4.47
4.57
6.07
8.10
9.91
10.99
11.11
10.23
8.41
5.69
2.10
-2.40
-7.94
-14.68
-22.62
-31.38
-40.10
-47.41
-51.84
-52.17
-47.89
-39.43
-27.90
-14.78
-1.39
11.39
23.11
33.55
42.50
49.60
54.51
57.07
57.50
56.41
54.54
52.56
50.79
49.22
47.59
45.68
43.41
40.97
38.71
36.93
35.79
35.16
34.63
33.60
31.44
27.64
21.91
14.31
5.26
-4.30
-13.08
-19.56
-22.36
-20.64
-14.49
-4.84
6.74
18.58
29.37
38.39
45.42
50.56
53.97
55.76
56.08
55.21
53.58
51.69
49.91
48.41
47.14
45.83
44.09
41.46
37.46
31.66
23.81
13.99
2.62
-9.55
-21.61
-32.65
-41.92
-49.07
-54.25
-58.13
-61.79
-66.33
-72.54
-80.51
-89.55
-98.45
-105.89
-110.82
-112.82
-112.01
-108.98
-104.43
-99.08
-93.44
-87.80
-82.27
-76.81
-71.32
-65.78
-60.22
-54.75
-49.47
-44.48
-39.89
-35.84
-32.52
-30.21
-29.21
-29.76
-32.03
-35.96
-41.22
-47.14
-52.70
-56.66
-57.79
-55.21
-48.64
-38.51
-25.88
-12.14
1.30
13.32
23.15
30.43
35.09
37.32
37.47
36.06
33.69
30.99
28.47
26.46
25.11
24.42
24.35
24.84
25.90
27.52
29.60
31.93
34.09
35.63
36.09
35.17
32.80
29.16
24.66
19.90
15.65
12.84
12.36
14.87
20.58
29.00
39.07
49.41
58.77
66.43
72.24
76.55
79.79
82.23
83.81
84.26
83.27
80.69
76.52
70.96
64.18
56.50
48.08
38.61
27.92
16.22
3.95
-8.33
-20.01
-30.72
-40.28
-48.99
-57.82
-67.40
-77.70
-88.09
-97.43
-104.42
-108.10
-107.68
-103.27
-96.50
-88.71
-80.45
-71.82
-62.66
-52.75
-42.11
-29.73
-15.25
-1.15
11.30
22.59
33.18
43.33
52.90
61.41
70.98
83.10
93.84
101.89
108.87
115.73
122.48
128.46
132.82
139.40
151.36
163.05
172.82
183.08
194.84
207.76
221.02
233.98
252.17
279.66
308.24
334.39
359.47
383.14
404.03
420.95
397.46
314.98
230.51
168.51
120.23
84.16
58.04
38.68
23.13
9.38
1.92
3.76
-9.64
-49.09
-108.80
-175.08
-234.42
-278.84
-306.39
-314.84
-305.52
-289.84
-273.81
-259.16
-246.95
-238.07
-232.48
-228.94
-222.82
-210.84
-196.83
-180.07
-161.21
-142.78
-127.35
-116.10
-108.96
-104.14
-100.46
-99.62
-100.96
-102.59
-102.89
-101.13
-97.46
-92.56
-86.85
-80.75
-75.42
-70.72
-66.19
-61.42
-56.26
-50.70
-44.83
-38.79
-32.62
-26.22
-19.75
-12.89
-5.83
0.78
6.39
10.80
14.33
17.70
21.58
26.19
31.18
35.80
39.35
41.45
42.11
41.45
39.64
36.67
32.51
27.26
21.22
14.94
9.17
4.56
1.49
0.03
-0.13
0.47
1.15
1.14
-0.49
-4.34
-10.63
-19.15
-29.21
-39.80
-49.62
-57.28
-61.60
-61.83
-57.88
-50.43
-40.70
-30.12
-19.87
-10.77
-3.21
2.62
6.57
8.56
8.69
7.38
5.38
3.65
3.04
3.99
6.42
9.79
13.29
16.12
