1677127938.00
64.000000
-0.00
-0.00
-0.00
-0.00
-0.00
-0.00
-0.00
-0.00
-0.00
-0.00
0.00
0.01
0.01
-0.00
-0.03
-0.05
-0.05
0.00
0.13
0.36
0.66
1.01
1.37
1.72
2.06
2.40
2.79
3.24
3.80
4.42
5.06
5.66
6.20
6.68
7.15
7.68
8.31
9.14
10.09
11.04
11.88
12.56
13.14
13.76
14.65
15.96
17.91
20.32
22.90
25.38
27.58
29.57
31.68
34.32
37.81
42.54
48.15
54.10
59.83
64.97
69.58
74.14
79.34
85.71
93.76
103.00
112.62
121.73
129.77
136.75
143.30
150.75
157.77
166.64
177.95
191.79
206.97
220.57
228.25
225.36
208.53
176.87
132.76
80.05
23.07
-34.94
-92.44
-149.16
-205.23
-260.37
-313.74
-363.87
-409.83
-450.91
-486.50
-515.74
-537.23
-549.22
-549.96
-538.36
-514.20
-478.68
-433.88
-382.46
-327.02
-269.83
-212.60
-156.62
-102.92
-52.39
-6.00
35.38
71.13
100.99
125.11
143.99
158.32
168.77
175.94
180.24
181.95
181.34
178.73
174.47
168.94
162.52
155.48
148.03
140.31
132.44
124.53
116.71
109.07
101.66
94.41
87.25
80.10
72.95
65.94
59.28
53.17
47.72
42.85
38.32
33.80
29.06
24.07
19.08
14.48
10.65
7.78
5.69
3.93
1.92
-0.71
-4.01
-7.58
-10.78
-13.07
-14.24
-14.52
-14.48
-14.75
-15.77
-17.74
-20.69
-24.49
-28.67
-32.13
-33.25
-30.28
-22.23
-9.61
5.37
19.60
30.34
36.45
38.67
38.84
38.75
39.02
39.06
37.77
34.53
29.76
24.69
20.60
18.08
16.84
16.03
14.76
12.73
10.19
7.80
6.10
5.31
5.21
5.37
5.34
4.85
4.01
3.14
2.65
2.88
3.83
5.25
6.64
7.52
7.60
6.91
5.76
4.58
3.73
3.37
3.41
3.64
3.79
3.74
3.54
3.35
3.38
3.76
4.51
5.53
6.67
7.79
8.82
9.75
10.60
11.36
11.99
12.40
12.45
12.01
10.97
9.30
7.04
4.40
1.41
-1.80
-5.11
-8.40
-11.49
-14.16
-16.17
-17.34
-17.65
-17.27
-16.45
-15.46
-14.52
-13.66
-12.86
-12.00
-11.03
-9.97
-8.95
-8.11
-7.56
-7.32
-7.31
-7.39
-7.38
-7.12
-6.53
-5.58
-4.31
-2.80
-1.14
0.57
2.20
3.60
4.60
5.06
4.85
3.97
2.52
0.74
-1.11
-2.73
-3.98
-4.83
-5.43
-5.99
-6.63
-7.35
-8.01
-8.41
-8.39
-7.93
-7.14
-6.18
-5.18
-4.14
-3.01
-1.70
-0.24
1.29
2.79
4.18
5.50
6.64
7.61
8.40
8.97
9.21
9.07
8.56
7.81
6.99
6.25
5.64
5.13
4.59
3.95
3.19
2.38
1.61
0.89
0.11
-0.89
-2.23
-3.93
-5.82
-7.64
-9.20
-10.45
-11.52
-12.64
-13.99
-15.60
-17.36
-19.00
-20.26
-20.95
-21.00
-20.43
-19.33
-17.76
-15.76
-13.34
-10.51
-7.34
-3.93
-0.42
3.05
6.31
9.23
11.60
13.28
14.24
14.63
14.74
14.89
15.24
15.74
16.13
16.12
15.63
14.78
13.85
13.03
12.34
11.59
10.54
9.07
7.22
5.17
3.14
1.24
-0.52
-2.26
-4.10
-6.11
-8.31
-10.62
-12.93
-15.12
-17.07
-18.70
-19.90
-20.56
-20.53
-19.71
-18.02
-15.57
-12.57
-9.29
-5.99
-2.80
0.22
3.12
5.89
8.54
10.99
13.16
14.93
16.26
17.13
17.60
17.75
17.65
17.38
16.97
16.41
15.74
14.99
14.21
13.44
12.69
11.87
10.88
9.58
7.88
5.85
3.62
1.36
-0.79
-2.76
-4.64
-6.50
-8.44
-10.47
-12.56
-14.62
-16.57
-18.29
-19.63
-20.40
-20.41
-19.58
-17.93
-15.63
-12.85
-9.74
-6.37
-2.74
1.09
5.01
8.75
12.05
14.67
16.49
17.55
17.93
17.81
17.36
16.78
16.26
15.94
15.87
15.92
15.92
15.64
15.01
14.06
12.92
11.69
10.39
8.95
7.29
5.46
3.58
1.88
0.49
-0.62
-1.69
-3.01
-4.80
-7.11
-9.81
-12.62
-15.29
-17.61
-19.41
-20.55
-20.87
-20.29
-18.80
-16.57
-13.87
-11.00
-8.17
-5.48
-2.88
-0.33
2.17
4.54
6.62
8.30
9.54
10.37
10.91
11.27
11.54
11.79
12.03
12.26
12.43
12.47
12.30
11.86
11.13
10.14
8.95
7.66
6.31
4.96
3.64
2.37
1.13
-0.09
-1.37
-2.81
-4.49
-6.43
-8.56
-10.73
-12.84
-14.80
-16.58
-18.10
-19.25
-19.82
-19.60
-18.51
-16.60
-14.07
-11.19
-8.17
-5.10
-1.99
1.15
4.26
7.17
9.69
11.66
13.04
13.92
14.43
14.72
14.89
14.96
14.93
14.76
14.44
14.01
13.49
12.94
12.36
11.72
10.91
9.84
8.47
6.82
5.04
3.28
1.70
0.33
-0.93
-2.22
-3.65
-5.28
-7.01
-8.73
-10.35
-11.88
-13.36
-14.80
-16.13
-17.20
-17.87
-18.02
-17.67
-16.85
-15.57
-13.80
-11.49
-8.62
-5.34
-1.91
1.35
4.13
6.29
7.81
8.80
9.39
9.73
9.96
10.22
10.58
11.03
11.47
11.75
11.80
11.59
11.21
10.75
10.22
9.52
8.52
7.15
5.46
3.64
1.92
0.46
-0.69
-1.56
-2.23
-2.78
-3.30
-3.90
-4.72
-5.93
-7.59
-9.61
-11.77
-13.70
-15.06
-15.61
-15.28
-14.17
-12.51
-10.61
-8.77
-7.19
-5.92
-4.84
-3.71
-2.26
-0.32
2.15
4.95
7.78
10.27
12.12
13.11
13.22
12.57
11.39
9.98
8.65
7.64
7.04
6.85
6.92
7.02
6.90
6.38
5.36
3.91
2.24
0.60
-0.78
-1.83
-2.63
-3.39
-4.31
-5.49
-6.91
-8.43
-9.94
-11.32
-12.55
-13.59
-14.34
-14.67
-14.46
-13.70
-12.46
-10.88
-9.08
-7.14
-5.00
-2.59
0.15
3.18
6.32
9.27
11.69
13.27
13.92
13.75
13.05
12.16
11.29
10.46
9.50
8.21
6.48
4.37
2.10
-0.08
-1.97
-3.45
-4.53
-5.24
-5.63
-5.76
-5.74
-5.72
-5.83
-6.23
-6.97
-8.05
-9.39
-10.81
-12.12
-13.13
-13.72
-13.93
-13.89
-13.71
-13.46
-13.07
-12.37
-11.23
-9.63
-7.66
-5.49
-3.27
-1.08
1.04
3.08
4.93
6.49
7.66
8.44
8.91
9.19
9.38
9.49
9.53
9.50
9.45
9.47
9.64
9.94
10.33
10.68
10.87
10.83
10.52
10.00
9.30
8.44
7.39
6.05
4.33
2.25
-0.04
-2.32
-4.36
-6.05
-7.37
-8.40
-9.18
-9.70
-9.95
-9.92
-9.68
-9.32
-8.90
-8.35
-7.54
-6.30
-4.60
-2.55
-0.39
1.65
3.40
4.78
5.82
6.48
6.73
6.52
5.88
4.92
3.80
2.70
1.72
0.90
0.25
-0.20
-0.36
-0.17
0.35
1.07
1.80
2.27
2.21
1.43
-0.23
-2.82
-6.23
-10.16
-14.14
-17.61
-20.12
-21.37
-21.32
-20.12
-18.03
-15.35
-12.37
-9.41
-6.76
-4.64
-3.09
-1.99
-1.08
-0.14
0.97
2.23
3.59
5.01
6.52
8.21
10.08
11.95
13.54
14.53
14.75
14.20
13.03
11.42
9.46
7.25
4.92
2.71
0.90
-0.30
-0.89
-1.04
-1.07
-1.25
-1.77
-2.74
-4.24
-6.37
-9.16
-12.50
-16.09
-19.46
-22.11
-23.60
-23.74
-22.54
-20.15
-16.89
-13.14
-9.32
-5.76
-2.69
-0.19
1.78
3.31
4.44
5.18
5.55
5.62
5.58
5.66
6.05
6.82
7.90
9.12
10.27
11.16
11.60
11.47
10.69
9.28
7.37
5.19
3.07
1.25
-0.11
-1.03
-1.62
-2.07
-2.59
-3.40
-4.66
-6.43
-8.62
-10.95
-13.04
-14.51
-15.10
-14.74
-13.53
-11.66
-9.27
-6.44
-3.23
0.26
3.78
7.01
9.57
11.22
11.87
11.60
10.66
9.34
7.98
6.83
6.07
5.81
6.03
6.64
7.45
8.21
8.61
8.39
7.35
5.47
2.89
-0.10
-3.10
-5.80
-7.93
-9.41
-10.32
-10.85
-11.27
-11.83
-12.69
-13.85
-15.22
-16.56
-17.66
-18.33
-18.44
-17.89
-16.61
-14.56
-11.76
-8.36
-4.64
-0.91
2.53
5.47
7.81
9.49
10.50
10.86
10.63
9.94
8.97
7.94
7.06
6.50
6.29
6.43
6.78
7.19
7.48
7.51
7.15
6.33
5.02
3.24
1.12
-1.15
-3.37
-5.38
-7.11
-8.63
-10.07
-11.55
-13.14
-14.75
-16.21
-17.30
-17.85
-17.78
-17.04
-15.65
-13.62
-10.99
-7.87
-4.42
-0.85
2.59
5.70
8.34
10.48
12.14
13.39
14.26
14.78
14.98
14.92
14.71
14.46
14.25
14.09
13.91
13.58
12.97
11.99
10.66
9.05
7.28
5.41
3.50
1.55
-0.42
-2.34
-4.15
-5.81
-7.36
-8.93
-10.69
-12.72
-14.94
-17.06
-18.71
-19.53
-19.35
-18.17
-16.20
-13.71
-10.95
-8.10
-5.25
-2.42
0.42
3.29
6.20
9.08
11.80
14.18
16.08
17.44
18.23
18.51
18.29
17.57
16.42
15.02
13.70
12.86
12.78
13.42
14.42
15.18
15.14
14.04
11.93
9.13
6.00
2.81
-0.29
-3.21
-5.81
-7.94
-9.45
-10.40
-10.99
-11.52
-12.24
-13.17
-14.19
-15.09
-15.73
-16.04
-16.05
-15.74
-15.04
-13.82
-11.95
-9.36
-6.07
-2.17
2.11
6.46
10.48
13.84
16.29
17.81
18.52
18.65
18.42
17.95
17.29
16.53
15.80
15.27
15.05
15.15
15.40
15.50
15.21
14.36
12.94
11.10
9.05
6.99
5.01
3.12
1.28
-0.53
-2.32
-4.04
-5.69
-7.33
-9.02
-10.84
-12.73
-14.53
-16.00
-16.91
-17.14
-16.68
-15.64
-14.11
-12.17
-9.82
-7.04
-3.83
-0.27
3.45
7.04
10.14
12.43
13.70
13.95
13.38
12.30
11.07
9.95
9.09
8.57
8.39
8.54
8.97
9.56
10.14
10.50
10.46
9.94
8.94
7.59
6.04
4.41
2.76
1.04
-0.77
-2.63
-4.46
-6.10
-7.50
-8.70
-9.87
-11.22
-12.84
-14.63
-16.36
-17.70
-18.38
-18.27
-17.30
-15.49
-12.86
-9.51
-5.65
-1.61
2.25
5.59
8.27
10.26
11.64
12.51
12.92
12.90
12.54
12.04
11.69
11.72
12.27
13.23
14.36
15.35
15.99
16.22
16.08
15.61
14.80
13.57
11.84
9.62
7.05
4.34
1.74
-0.62
-2.71
-4.56
-6.24
-7.76
-9.12
-10.34
-11.47
-12.59
-13.77
-14.96
-16.02
-16.73
-16.87
-16.28
-14.92
-12.86
-10.28
-7.41
-4.46
-1.61
1.02
3.35
5.35
7.02
8.35
9.36
10.03
10.38
10.46
10.33
10.08
9.78
9.49
9.23
8.99
8.67
8.15
7.27
5.91
4.07
1.88
-0.41
-2.48
-4.08
-5.07
-5.47
-5.45
-5.28
-5.28
-5.69
-6.68
-8.22
-10.19
-12.33
-14.36
-15.99
-16.99
-17.18
-16.46
-14.86
-12.54
-9.76
-6.81
-3.98
-1.37
0.99
3.16
5.18
6.97
8.42
9.38
9.83
9.83
9.53
9.14
8.80
8.61
8.59
8.71
8.90
9.08
9.13
8.94
8.40
7.46
6.14
4.51
2.71
0.93
-0.62
-1.74
-2.37
-2.58
-2.66
-2.95
-3.79
-5.30
-7.40
-9.75
-11.95
-13.66
-14.74
-15.20
-15.13
-14.64
-13.78
-12.52
-10.88
-8.87
-6.57
-4.08
-1.53
0.99
3.33
5.36
6.93
7.97
8.53
8.76
8.90
9.15
9.59
10.16
10.72
11.08
11.09
10.71
9.96
8.99
7.91
6.87
5.97
5.21
4.57
3.98
3.36
2.67
1.88
0.96
-0.15
-1.47
-3.02
-4.77
-6.64
-8.54
-10.45
-12.35
-14.21
-15.91
-17.20
-17.82
-17.58
-16.44
-14.54
-12.16
-9.59
-7.12
-4.91
-3.05
-1.49
-0.11
1.27
2.76
4.41
6.12
7.74
9.14
10.22
10.96
11.33
11.28
10.74
9.73
8.38
6.94
5.70
4.88
4.53
4.51
4.54
4.38
3.84
2.88
1.55
0.01
-1.58
-3.08
-4.40
-5.52
-6.47
-7.28
-7.99
-8.64
-9.26
-9.88
-10.49
-11.03
-11.36
-11.33
-10.80
-9.73
-8.16
-6.26
-4.23
-2.26
-0.53
0.90
2.05
2.99
3.88
4.85
5.97
7.17
8.31
9.14
9.46
9.12
8.13
6.62
4.90
3.30
2.19
1.75
1.96
2.55
3.09
3.19
2.68
1.64
0.39
-0.74
-1.55
-2.08
-2.56
-3.29
-4.42
-5.96
-7.74
-9.50
-11.05
-12.28
-13.20
-13.85
-14.28
-14.51
-14.54
-14.38
-14.02
-13.45
-12.59
-11.36
-9.66
-7.46
-4.82
-1.88
1.15
4.06
6.63
8.65
10.01
10.66
10.69
10.31
9.80
9.42
9.37
9.72
10.46
11.41
12.29
12.75
12.45
11.21
9.16
6.70
4.37
2.63
1.66
1.27
1.07
0.64
-0.27
-1.63
-3.26
-4.92
-6.45
-7.79
-8.97
-10.01
-10.95
-11.82
-12.67
-13.53
-14.33
-14.92
-15.05
-14.48
-13.07
-10.88
-8.11
-5.06
-1.99
0.89
3.41
5.45
6.91
7.75
8.10
8.29
8.69
9.57
10.95
12.53
13.87
14.56
14.46
13.72
12.65
11.54
10.55
9.66
8.78
7.88
6.96
6.03
5.04
3.88
2.45
0.76
-0.99
-2.52
-3.62
-4.28
-4.74
-5.38
-6.57
-8.43
-10.89
-13.57
-16.01
-17.74
-18.36
-17.70
-15.77
-12.84
-9.34
-5.82
-2.76
-0.46
1.04
1.96
2.61
3.29
4.16
5.26
6.52
7.85
9.16
10.32
11.21
11.69
11.66
11.13
10.19
9.05
7.93
6.98
6.28
5.85
5.58
5.37
5.07
4.52
3.67
2.49
1.06
-0.53
-2.17
-3.84
-5.56
-7.40
-9.39
-11.47
-13.49
-15.23
-16.46
-17.02
-16.92
-16.27
-15.24
-13.97
-12.52
-10.85
-8.88
-6.59
-4.06
-1.50
0.86
2.80
4.23
5.21
5.92
6.55
7.24
7.99
8.72
9.30
9.61
9.61
9.31
8.70
7.83
6.76
5.62
4.55
3.72
3.20
2.95
2.82
2.61
2.13
1.29
0.05
-1.51
-3.31
-5.30
-7.44
-9.74
-12.15
-14.52
-16.59
-18.06
-18.68
-18.41
-17.43
-16.09
-14.70
-13.46
-12.33
-11.16
-9.78
-8.09
-6.10
-3.87
-1.47
1.08
3.72
6.32
8.70
10.62
11.95
12.65
12.79
12.48
11.85
11.00
10.06
9.21
8.61
8.40
8.60
9.05
9.50
9.66
9.34
8.47
7.10
5.37
3.46
1.57
-0.15
-1.57
-2.70
-3.68
-4.80
-6.32
-8.34
-10.66
-12.85
-14.35
-14.77
-14.05
-12.49
-10.63
-8.99
-7.91
-7.39
-7.16
-6.76
-5.74
-3.81
-1.00
2.34
5.65
8.38
10.16
10.96
10.99
10.62
10.14
9.74
9.48
9.40
9.55
9.93
10.39
10.66
10.43
9.53
8.04
6.35
4.95
4.15
3.92
3.86
3.41
2.15
-0.02
-2.84
-5.75
-8.22
-9.92
-10.80
-11.09
-11.08
-11.08
-11.29
-11.86
-12.89
-14.39
-16.27
-18.22
-19.82
-20.57
-20.13
-18.41
-15.60
-12.16
-8.57
-5.26
-2.44
-0.16
1.69
3.26
4.68
6.05
7.41
8.78
10.14
11.45
12.68
13.73
14.48
14.77
14.49
13.61
12.26
10.70
9.18
7.93
6.99
6.30
5.73
5.19
4.65
4.13
3.60
2.98
2.13
0.96
-0.51
-2.15
-3.70
-4.95
-5.74
-6.14
-6.29
-6.46
-6.85
-7.50
-8.32
-9.09
-9.62
-9.83
-9.78
-9.50
-9.01
-8.21
-6.95
-5.16
-2.92
-0.43
2.03
4.26
6.17
7.74
8.98
9.88
10.44
10.69
10.73
10.69
10.63
10.62
10.64
10.70
10.86
11.15
11.57
12.06
12.46
12.62
12.44
11.89
11.01
9.83
8.39
6.75
5.01
3.36
2.01
1.10
0.64
0.50
0.47
0.29
-0.23
-1.21
-2.64
-4.45
-6.47
-8.44
-10.07
-11.08
-11.28
-10.63
-9.24
-7.30
-5.02
-2.57
-0.09
2.33
4.57
6.47
7.90
8.72
8.92
8.64
8.12
7.70
7.66
8.12
9.03
10.13
11.10
11.66
11.69
11.19
10.34
9.31
8.27
7.31
6.48
5.82
5.36
5.11
4.99
4.79
4.26
3.17
1.52
-0.41
-2.20
-3.42
-3.85
-3.63
-3.14
-2.81
-2.89
-3.38
-4.09
-4.73
-5.13
-5.18
-4.86
-4.16
-3.06
-1.56
0.28
2.30
4.29
5.99
7.20
7.80
7.80
7.36
6.72
6.17
5.86
5.76
5.68
5.35
4.57
3.31
1.72
0.06
-1.37
-2.43
-3.07
-3.35
-3.38
-3.27
-3.13
-3.04
-3.09
-3.34
-3.84
-4.58
-5.49
-6.53
-7.63
-8.79
-9.98
-11.17
-12.29
-13.26
-13.99
-14.43
-14.52
-14.20
-13.38
-11.98
-10.02
-7.67
-5.23
-3.02
-1.24
0.08
1.05
1.82
2.42
2.81
2.93
2.78
2.49
2.26
2.23
2.40
2.64
2.77
2.70
2.45
2.21
2.17
2.47
3.10
3.90
4.66
5.13
5.17
4.80
4.11
3.28
2.48
1.79
1.20
0.67
0.11
-0.56
-1.38
-2.34
-3.40
-4.43
-5.23
-5.62
-5.44
-4.67
-3.44
-1.95
-0.45
0.89
1.99
2.90
3.65
4.25
4.65
4.75
4.46
3.76
2.67
1.28
-0.31
-1.93
-3.40
-4.56
-5.27
-5.48
-5.27
-4.82
-4.34
-3.97
-3.73
-3.55
-3.33
-2.99
-2.55
-2.07
-1.65
-1.36
-1.28
-1.42
-1.80
-2.40
-3.19
-4.13
-5.14
-6.14
-7.01
-7.58
-7.70
-7.27
-6.34
-5.06
-3.65
-2.25
-0.95
0.29
1.50
2.62
3.53
4.10
4.25
4.08
3.76
3.44
3.23
3.14
3.14
3.21
3.33
3.46
3.54
3.49
3.23
2.78
2.25
1.80
1.57
1.64
1.94
2.32
2.55
2.37
1.61
0.17
-1.91
-4.49
-7.31
-10.13
-12.66
-14.67
-16.00
-16.57
-16.42
-15.69
-14.58
-13.25
-11.81
-10.28
-8.58
-6.68
-4.62
-2.50
-0.50
1.18
2.46
3.33
3.84
4.16
4.40
4.68
5.06
5.51
5.92
6.12
5.94
5.31
4.29
3.10
2.07
1.45
1.38
1.71
2.17
2.43
2.27
1.65
0.68
-0.47
-1.69
-2.87
-3.96
-4.89
-5.58
-6.01
-6.24
-6.45
-6.76
-7.24
-7.80
-8.21
-8.25
-7.79
-6.81
-5.42
-3.75
-1.91
-0.07
1.62
2.91
3.61
3.66
3.21
2.58
2.11
2.02
2.26
2.61
2.81
2.75
2.51
2.27
2.14
2.11
2.00
1.64
0.99
0.19
-0.55
-1.08
-1.41
-1.69
-2.10
-2.71
-3.47
-4.27
-5.02
-5.75
-6.56
-7.53
-8.66
-9.80
-10.74
-11.24
-11.18
-10.56
-9.50
-8.17
-6.75
-5.32
-3.91
-2.50
-1.09
0.28
1.50
2.42
2.96
3.16
3.18
3.26
3.56
4.10
4.71
5.13
5.18
4.79
4.12
3.41
2.87
2.53
2.31
2.02
1.56
0.94
0.25
-0.42
-1.04
-1.71
-2.52
-3.53
-4.71
-5.90
-6.97
-7.85
-8.59
-9.36
-10.29
-11.40
-12.55
-13.46
-13.81
-13.40
-12.21
-10.36
-8.14
-5.84
-3.68
-1.83
-0.31
0.90
1.93
2.93
4.01
5.21
6.45
7.57
8.37
8.71
8.53
7.84
6.73
5.31
3.71
2.10
0.63
-0.63
-1.67
-2.61
-3.58
-4.64
-5.70
-6.55
-6.97
-6.87
-6.38
-5.76
-5.31
-5.25
-5.65
-6.46
-7.51
-8.59
-9.41
-9.70
-9.21
-7.83
-5.64
-2.92
-0.09
2.48
4.58
6.23
7.57
8.79
9.92
10.89
11.54
11.80
11.72
11.45
11.16
10.91
10.69
10.44
10.13
9.85
9.68
9.65
9.62
9.38
8.77
7.78
6.59
5.50
4.70
4.21
3.83
3.29
2.43
1.22
-0.22
-1.71
-3.17
-4.62
-6.12
-7.71
-9.26
-10.56
-11.33
-11.35
-10.61
-9.29
-7.68
-6.06
-4.62
-3.36
-2.15
-0.83
0.69
2.41
4.16
5.70
6.85
7.51
7.76
7.75
7.69
7.71
7.80
7.90
7.92
7.84
7.72
7.61
7.53
7.38
7.02
6.35
5.36
4.17
2.96
1.87
0.97
0.24
-0.39
-1.02
-1.79
-2.80
-4.11
-5.73
-7.52
-9.29
-10.76
-11.74
-12.15
-12.03
-11.48
-10.62
-9.54
-8.28
-6.88
-5.35
-3.75
-2.16
-0.60
0.88
2.24
3.43
4.36
4.96
5.29
5.49
5.81
6.46
7.47
8.69
9.82
10.57
10.78
10.49
9.80
8.85
7.71
6.42
5.00
3.58
2.29
1.22
0.37
-0.38
-1.15
-2.00
-2.87
-3.66
-4.28
-4.73
-5.06
-5.36
-5.63
-5.82
-5.81
-5.50
-4.86
-3.94
-2.80
-1.54
-0.24
1.06
2.32
3.46
4.38
4.97
5.12
4.82
4.20
3.52
3.07
3.11
3.74
4.82
6.08
7.12
7.59
7.32
6.36
4.92
3.27
1.63
0.06
-1.46
-3.01
-4.62
-6.24
-7.74
-9.07
-10.26
-11.37
-12.47
-13.46
-14.15
-14.30
-13.77
-12.57
-10.83
-8.71
-6.32
-3.76
-1.14
1.36
3.57
5.43
7.06
8.74
10.74
13.10
15.56
17.57
18.54
18.08
16.15
13.10
9.47
5.83
2.69
0.34
-1.10
-1.64
-1.41
-0.63
0.43
1.43
2.07
2.13
1.58
0.62
-0.44
-1.27
-1.75
-1.95
-2.17
-2.70
-3.75
-5.30
-7.12
-8.93
-10.46
-11.55
-12.11
-12.08
-11.41
-10.12
-8.26
-5.98
-3.47
-0.89
1.66
4.11
6.41
8.45
10.14
11.38
12.17
12.66
13.00
13.33
13.67
13.93
14.02
13.90
13.62
13.27
12.87
12.36
11.61
10.57
9.29
7.96
6.79
5.89
5.22
4.57
3.73
2.56
1.07
-0.65
-2.48
-4.42
-6.48
-8.68
-10.90
-12.87
-14.31
-14.92
-14.60
-13.41
-11.55
-9.25
-6.72
-4.11
-1.54
0.91
3.16
5.16
6.84
8.15
9.06
9.57
9.78
9.82
9.83
9.93
10.16
10.50
10.90
11.27
11.53
11.57
11.27
10.55
9.44
8.05
6.58
5.25
4.20
3.47
2.98
2.54
1.94
0.95
-0.54
-2.57
-5.03
-7.74
-10.41
-12.70
-14.27
-14.85
-14.33
-12.79
-10.49
-7.82
-5.09
-2.56
-0.30
1.69
3.42
4.85
5.88
6.44
6.56
6.35
6.04
5.83
5.87
6.16
6.56
6.86
6.86
6.44
5.59
4.43
3.11
1.78
0.54
-0.57
-1.52
-2.33
-3.04
-3.79
-4.73
-6.06
-7.88
-10.12
-12.49
-14.59
-16.02
-16.58
-16.26
-15.26
-13.84
-12.16
-10.30
-8.23
-5.96
-3.58
-1.22
0.97
2.88
4.46
5.67
6.53
7.08
7.41
7.63
7.86
8.14
8.50
8.90
9.31
9.67
9.89
9.83
9.36
8.40
7.03
5.50
4.15
3.26
2.91
2.95
3.07
2.95
2.35
1.22
-0.41
-2.44
-4.79
-7.34
-9.92
-12.22
-13.87
-14.54
-14.06
-12.58
-10.46
-8.23
-6.37
-5.13
-4.50
-4.20
-3.82
-2.98
-1.53
0.46
2.74
4.98
6.95
8.55
9.80
10.74
11.39
11.76
11.86
11.78
11.61
11.44
11.25
10.94
10.40
9.54
8.35
6.89
5.20
3.35
1.37
-0.67
-2.65
-4.47
-6.12
-7.67
-9.23
-10.91
-12.66
-14.35
-15.77
-16.70
-17.05
-16.78
-15.96
-14.74
-13.29
-11.80
-10.47
-9.42
-8.68
-8.16
-7.68
-7.07
-6.24
-5.22
-4.17
-3.30
-2.76
-2.61
-2.83
-3.30
-3.88
-4.51
-5.17
-5.96
-7.00
-8.39
-10.11
-12.03
-13.92
-15.55
-16.75
-17.46
-17.66
-17.32
-16.36
-14.68
-12.25
-9.12
-5.46
-1.49
2.61
6.73
10.72
14.34
17.31
19.28
20.06
19.66
18.31
16.39
14.31
12.41
10.90
9.91
9.51
9.70
10.43
11.64
13.23
15.05
16.97
18.81
20.39
21.55
22.20
22.34
22.10
21.67
21.22
20.82
20.41
19.80
18.84
17.49
15.90
14.36
13.17
12.42
12.01
11.70
11.25
10.61
9.87
9.18
8.56
7.85
6.75
5.03
2.73
0.07
-2.56
-4.86
-6.78
-8.43
-9.99
-11.51
-12.85
-13.77
-14.05
-13.58
-12.45
-10.88
-9.12
-7.39
-5.80
-4.32
-2.83
-1.18
0.71
2.84
5.05
7.15
8.90
10.14
10.80
10.95
10.70
10.22
9.62
9.00
8.39
7.82
7.32
6.95
6.72
6.64
6.64
6.61
6.43
6.00
5.27
4.23
2.92
1.37
-0.32
-2.01
-3.53
-4.72
-5.53
-6.03
-6.46
-7.04
-7.99
-9.37
-11.06
-12.84
-14.40
-15.43
-15.72
-15.18
-13.89
-12.07
-9.93
-7.69
-5.43
-3.20
-1.04
0.97
2.73
4.14
5.22
6.06
6.84
7.66
8.50
9.22
9.62
9.58
9.13
8.41
7.66
7.04
6.60
6.27
5.89
5.34
4.55
3.58
2.55
1.57
0.67
-0.17
-1.03
-1.95
-2.92
-3.91
-4.93
-6.01
-7.25
-8.78
-10.63
-12.73
-14.85
-16.65
-17.79
-18.03
-17.30
-15.74
-13.65
-11.38
-9.20
-7.19
-5.28
-3.34
-1.29
0.84
2.91
4.74
6.22
7.33
8.12
8.72
9.21
9.66
10.05
10.33
10.42
10.27
9.87
9.28
8.62
7.97
7.35
6.74
6.08
5.36
4.63
4.01
3.54
3.16
2.68
1.90
0.68
-0.95
-2.85
-4.82
-6.71
-8.44
-10.00
-11.30
-12.26
-12.77
-12.81
-12.47
-11.94
-11.35
-10.71
-9.86
-8.63
-6.90
-4.79
-2.53
-0.39
1.46
2.96
4.18
5.18
5.96
6.48
6.71
6.73
6.68
6.67
6.76
6.84
6.79
6.52
6.04
5.47
4.94
4.47
3.98
3.33
2.42
1.24
-0.11
-1.49
-2.78
-3.97
-5.13
-6.36
-7.72
-9.15
-10.57
-11.84
-12.90
-13.75
-14.45
-15.02
-15.41
-15.52
-15.19
-14.31
-12.81
-10.71
-8.11
-5.14
-2.04
0.92
3.41
5.18
6.12
6.33
6.08
5.69
5.42
5.41
5.69
6.18
6.79
7.38
7.83
7.98
7.77
7.19
6.32
5.29
4.20
3.12
2.00
0.86
-0.29
-1.34
-2.24
-3.02
-3.80
-4.72
-5.88
-7.31
-8.93
-10.65
-12.38
-13.99
-15.37
-16.34
-16.76
-16.53
-15.64
-14.12
-12.04
-9.55
-6.80
-4.06
-1.59
0.41
1.87
2.87
3.59
4.26
5.05
6.02
7.16
8.35
9.44
10.25
10.64
10.53
9.94
8.99
7.87
6.79
5.92
5.36
5.10
5.07
5.05
4.86
4.30
3.34
2.03
0.49
-1.19
-2.96
-4.80
-6.67
-8.46
-10.05
-11.35
-12.31
-12.95
-13.31
-13.41
-13.21
-12.70
-11.87
-10.81
-9.62
-8.39
-7.10
-5.68
-4.04
-2.13
-0.01
2.18
4.26
6.08
7.57
8.71
9.52
10.03
10.20
10.04
9.55
8.85
8.13
7.63
7.50
7.77
8.27
8.72
8.83
8.38
7.34
5.80
4.00
2.15
0.40
-1.24
-2.79
-4.28
-5.75
-7.16
-8.47
-9.66
-10.77
-11.82
-12.82
-13.71
-14.37
-14.67
-14.49
-13.79
-12.60
-10.97
-8.97
-6.66
-4.13
-1.48
1.08
3.35
5.17
6.43
7.17
7.50
7.62
7.68
7.78
7.96
8.19
8.40
8.59
8.75
8.91
9.06
9.16
9.08
8.69
7.87
6.59
4.90
3.01
1.15
-0.47
-1.70
-2.58
-3.22
-3.87
-4.76
-6.07
-7.85
-10.07
-12.54
-14.93
-16.90
-18.09
-18.26
-17.33
-15.44
-12.87
-9.94
-6.95
-4.05
-1.33
1.21
3.52
5.52
7.11
8.22
8.88
9.21
9.39
9.62
10.01
10.54
11.13
11.61
11.87
11.84
11.51
10.93
10.11
9.10
7.95
6.75
5.57
4.49
3.52
2.63
1.75
0.84
-0.17
-1.35
-2.75
-4.42
-6.37
-8.52
-10.71
-12.75
-14.42
-15.56
-16.06
-15.87
-15.00
-13.51
-11.49
-9.12
-6.59
-4.13
-1.93
-0.10
1.32
2.41
3.29
4.12
5.06
6.14
7.31
8.41
9.27
9.76
9.84
9.59
9.14
8.58
7.98
7.35
6.66
5.89
5.03
4.09
3.03
1.85
0.53
-0.92
-2.49
-4.19
-6.04
-8.08
-10.36
-12.93
-15.75
-18.72
-21.66
-24.34
-26.56
-28.14
-29.05
-29.39
-29.33
-29.08
-28.80
-28.55
-28.28
-27.87
-27.20
-26.14
-24.60
-22.46
-19.65
-16.09
-11.78
-6.84
-1.47
4.09
9.60
14.88
19.80
24.30
28.28
31.65
34.32
36.19
37.21
37.34
36.56
34.91
32.47
29.46
26.17
22.86
19.70
16.73
13.90
11.15
8.52
6.06
3.83
1.81
-0.11
-1.99
-3.79
-5.34
-6.42
-6.85
-6.67
-6.05
-5.23
-4.35
-3.39
-2.17
-0.49
1.75
4.45
7.35
10.07
12.28
13.75
14.44
14.49
14.08
13.41
12.64
11.91
11.34
11.03
11.05
11.38
11.86
12.23
12.21
11.58
10.30
8.46
6.30
4.06
1.94
0.05
-1.56
-2.95
-4.15
-5.22
-6.22
-7.22
-8.34
-9.69
-11.29
-13.06
-14.78
-16.14
-16.87
-16.83
-16.05
-14.68
-12.91
-10.83
-8.49
-5.90
-3.12
-0.28
2.41
4.81
6.87
8.58
9.97
10.96
11.52
11.65
11.49
11.27
11.22
11.41
11.67
11.72
11.27
10.26
8.84
7.33
5.99
4.95
4.12
3.38
2.66
1.94
1.27
0.63
-0.10
-1.12
-2.62
-4.65
-7.14
-9.85
-12.57
-15.06
-17.14
-18.68
-19.56
-19.68
-19.04
-17.74
-15.93
-13.85
-11.65
-9.48
-7.38
-5.31
-3.24
-1.11
1.09
3.34
5.58
7.72
9.67
11.35
12.68
13.62
14.12
14.18
13.85
13.20
12.39
11.58
10.90
10.40
10.03
9.70
9.25
8.58
7.60
6.33
4.83
3.18
1.48
-0.23
-1.92
-3.58
-5.22
-6.86
-8.51
-10.19
-11.87
-13.43
-14.74
-15.61
-15.92
-15.64
-14.85
-13.72
-12.43
-11.10
-9.74
-8.29
-6.63
-4.65
-2.32
0.28
2.99
5.59
7.86
9.62
10.81
11.47
11.78
11.99
12.39
13.12
14.17
15.36
16.49
17.40
18.10
18.67
19.15
19.42
19.16
18.05
15.88
12.69
8.75
4.40
-0.09
-4.53
-8.74
-12.47
-15.42
-17.30
-18.09
-18.02
-17.54
-17.05
-16.69
-16.35
-15.77
-14.81
-13.60
-12.48
-11.86
-11.88
-12.39
-12.95
-13.06
-12.32
-10.64
-8.15
-5.15
-2.02
0.91
3.38
5.23
6.36
6.80
6.62
5.97
5.05
4.05
3.16
2.44
1.88
1.37
0.81
0.08
-0.85
-2.00
-3.33
-4.85
-6.56
-8.46
-10.56
-12.90
-15.50
-18.38
-21.54
-24.92
-28.34
-31.60
-34.46
-36.69
-38.19
-38.93
-38.95
-38.38
-37.30
-35.73
-33.60
-30.78
-27.14
-22.69
-17.53
-11.87
-5.92
0.18
6.34
12.51
18.59
24.40
29.72
34.33
38.07
40.87
42.73
43.68
43.77
43.04
41.58
39.53
37.08
34.43
31.69
28.89
25.99
22.90
19.64
16.32
13.12
10.27
7.82
5.70
3.65
1.41
-1.22
-4.21
-7.35
-10.29
-12.66
-14.22
-14.86
-14.66
-13.74
-12.28
-10.42
-8.21
-5.71
-2.94
-0.04
2.81
5.39
7.55
9.21
10.44
11.34
12.01
12.50
12.76
12.75
12.47
12.01
11.48
10.98
10.54
10.06
9.46
8.69
7.76
6.74
5.67
4.50
3.13
1.46
-0.50
-2.64
-4.73
-6.63
-8.30
-9.90
-11.60
-13.53
-15.62
-17.64
-19.25
-20.14
-20.14
-19.27
-17.70
-15.61
-13.17
-10.48
-7.59
-4.58
-1.58
1.24
3.74
5.85
7.66
9.29
10.86
12.37
13.73
14.76
15.32
15.41
15.08
14.49
13.80
13.12
12.52
11.92
11.22
10.21
8.73
6.68
4.17
1.45
-1.13
-3.25
-4.78
-5.80
-6.58
-7.43
-8.62
-10.30
-12.46
-15.00
-17.73
-20.43
-22.83
-24.70
-25.85
-26.17
-25.62
-24.29
-22.28
-19.76
-16.87
-13.70
-10.24
-6.39
-2.06
2.70
7.67
12.42
16.54
19.75
22.09
23.81
25.22
26.53
27.71
28.61
29.10
29.22
29.14
29.06
28.93
28.51
27.38
25.22
22.03
18.16
14.16
10.57
7.68
5.41
3.49
1.60
-0.46
-2.72
-5.08
-7.47
-9.86
-12.25
-14.58
-16.69
-18.36
-19.39
-19.72
-19.43
-18.68
-17.63
-16.28
-14.53
-12.23
-9.34
-5.97
-2.40
1.02
3.99
6.35
8.13
9.48
10.59
11.62
12.60
13.45
14.02
14.16
13.80
13.00
11.96
10.94
10.18
9.78
9.61
9.39
8.77
7.49
5.53
3.12
0.69
-1.39
-2.89
-3.90
-4.70
-5.64
-6.99
-8.85
-11.19
-13.87
-16.68
-19.40
-21.77
-23.51
-24.34
-24.13
-22.93
-20.94
-18.45
-15.74
-13.02
-10.36
-7.78
-5.28
-2.85
-0.50
1.73
3.78
5.53
6.86
7.64
7.82
7.49
6.84
6.09
5.43
4.95
4.64
4.43
4.28
4.15
4.06
3.98
3.91
3.82
3.64
3.28
2.64
1.62
0.19
-1.60
-3.64
-5.82
-8.08
-10.49
-13.14
-16.04
-18.96
-21.51
-23.17
-23.58
-22.66
-20.66
-18.01
-15.15
-12.32
-9.51
-6.59
-3.40
0.07
3.62
6.95
9.78
12.00
13.69
15.04
16.23
17.28
18.03
18.24
17.79
16.75
15.41
14.09
13.00
12.15
11.41
10.61
9.70
8.68
7.60
6.43
5.08
3.42
1.47
-0.64
-2.64
-4.33
-5.70
-6.91
-8.27
-10.05
-12.33
-14.92
-17.42
-19.36
-20.33
-20.18
-19.06
-17.29
-15.28
-13.28
-11.31
-9.18
-6.60
-3.44
0.22
4.01
7.50
10.32
12.32
13.57
14.23
14.50
14.49
14.39
14.40
14.72
15.42
16.26
16.81
16.58
15.31
13.20
10.75
8.57
7.02
6.08
5.45
4.76
3.81
2.58
1.18
-0.32
-1.97
-3.84
-5.98
-8.33
-10.76
-13.13
-15.32
-17.25
-18.78
-19.74
-19.91
-19.09
-17.25
-14.49
-11.02
-7.13
-3.09
0.82
4.37
7.31
9.49
10.86
11.53
11.76
11.83
11.96
12.25
12.62
12.95
13.10
12.99
12.63
12.04
11.29
10.41
9.39
8.20
6.81
5.15
3.23
1.07
-1.17
-3.32
-5.23
-6.81
-8.18
-9.51
-10.99
-12.79
-14.90
-17.24
-19.58
-21.66
-23.17
-23.88
-23.66
-22.52
-20.64
-18.28
-15.64
-12.83
-9.80
-6.48
-2.87
0.88
4.51
7.75
10.45
12.59
14.29
15.65
16.68
17.35
17.61
17.48
17.05
16.47
15.86
15.21
14.44
13.39
11.97
10.18
8.17
6.19
4.47
3.14
2.15
1.32
0.35
-0.98
-2.79
-5.07
-7.65
-10.34
-12.94
-15.27
-17.18
-18.52
-19.13
-18.87
-17.68
-15.57
-12.72
-9.41
-5.93
-2.51
0.74
3.79
6.69
9.43
11.90
13.92
15.33
16.04
16.13
15.78
15.23
14.68
14.24
13.91
13.59
13.17
12.55
11.70
10.68
9.57
8.43
7.24
5.91
4.35
2.48
0.34
-1.94
-4.21
-6.35
-8.40
-10.46
-12.70
-15.21
-17.89
-20.46
-22.56
-23.85
-24.17
-23.56
-22.20
-20.27
-17.84
-14.89
-11.36
-7.26
-2.79
1.76
6.02
9.73
12.81
15.28
17.24
18.69
19.52
19.55
18.70
17.04
14.86
12.59
10.61
9.14
8.13
7.29
6.30
4.98
3.36
1.72
0.37
-0.44
-0.70
-0.62
-0.50
-0.65
-1.21
-2.15
-3.30
-4.51
-5.72
-6.98
-8.39
-9.87
-11.16
-11.82
-11.43
-9.85
-7.31
-4.32
-1.32
1.48
4.26
7.33
10.88
14.73
18.35
21.15
22.75
23.21
22.89
22.28
21.68
21.09
20.33
19.22
17.73
16.05
14.38
12.84
11.26
9.28
6.43
2.50
-2.40
-7.73
-12.73
-16.68
-19.16
-20.19
-20.12
-19.57
-19.16
-19.36
-20.38
-22.13
-24.25
-26.19
-27.45
-27.66
-26.70
-24.61
-21.56
-17.70
-13.18
-8.23
-3.20
1.44
5.22
7.88
9.46
10.31
10.90
11.61
12.55
13.63
14.59
15.20
15.41
15.32
15.09
14.78
14.34
13.57
12.28
10.46
8.27
6.07
4.22
2.91
2.07
1.42
0.55
-0.85
-2.95
-5.69
-8.88
-12.18
-15.18
-17.51
-18.79
-18.82
-17.57
-15.20
-12.04
-8.49
-4.96
-1.74
0.98
3.14
4.76
5.96
6.86
7.58
8.19
8.71
9.10
9.28
9.16
8.70
7.92
6.94
5.90
4.92
4.05
3.21
2.23
0.95
-0.67
-2.58
-4.56
-6.38
-7.83
-8.86
-9.59
-10.22
-11.06
-12.25
-13.80
-15.47
-16.93
-17.81
-17.89
-17.10
-15.53
-13.30
-10.53
-7.32
-3.83
-0.28
3.01
5.75
7.72
8.93
9.47
9.53
9.24
8.65
7.80
6.74
5.59
4.48
3.52
2.71
1.94
1.06
-0.07
-1.46
-2.98
-4.44
-5.72
-6.80
-7.79
-8.85
-10.07
-11.41
-12.79
-14.11
-15.35
-16.51
-17.57
-18.41
-18.83
-18.61
-17.61
-15.79
-13.25
-10.15
-6.71
-3.14
0.37
3.66
6.62
9.20
11.33
12.96
14.01
14.45
14.33
13.84
13.21
12.67
12.25
11.90
11.49
10.91
10.16
9.31
8.40
7.44
6.33
4.94
3.21
1.12
-1.25
-3.81
-6.52
-9.36
-12.28
-15.18
-17.87
-20.06
-21.45
-21.83
-21.07
-19.21
-16.38
-12.86
-8.95
-4.98
-1.20
2.20
5.14
7.63
9.74
11.52
13.04
14.32
15.38
16.18
16.66
16.74
16.34
15.49
14.31
13.00
11.75
10.69
9.79
8.95
8.04
6.98
5.72
4.24
2.56
0.69
-1.34
-3.51
-5.83
-8.34
-11.05
-13.87
-16.55
-18.70
-19.89
-19.80
-18.37
-15.81
-12.52
-8.90
-5.28
-1.81
1.41
4.33
6.84
8.77
10.01
10.61
10.75
10.77
10.97
11.49
12.20
12.77
12.81
12.10
10.68
8.80
6.80
4.98
3.46
2.24
1.22
0.32
-0.53
-1.37
-2.26
-3.31
-4.68
-6.46
-8.67
-11.19
-13.72
-15.92
-17.49
-18.29
-18.32
-17.70
-16.54
-14.85
-12.55
-9.60
-6.07
-2.18
1.75
5.40
8.56
11.13
13.08
14.41
15.15
15.35
15.14
14.71
14.24
13.85
13.50
13.08
12.43
11.42
10.04
8.31
6.33
4.19
1.98
-0.21
-2.31
-4.21
-5.87
-7.35
-8.78
-10.34
-12.17
-14.23
-16.39
-18.42
-20.12
-21.36
-22.08
-22.17
-21.49
-19.90
-17.36
-14.05
-10.28
-6.45
-2.86
0.39
3.36
6.11
8.62
10.74
12.24
12.98
13.05
12.69
12.22
11.84
11.58
11.30
10.85
10.12
9.12
7.94
6.63
5.21
3.60
1.77
-0.23
-2.24
-4.08
-5.64
-6.94
-8.13
-9.41
-10.98
-12.88
-15.07
-17.41
-19.65
-21.50
-22.67
-22.88
-21.94
-19.84
-16.73
-12.92
-8.76
-4.56
-0.52
3.30
6.84
10.00
12.60
14.47
15.52
15.86
15.74
15.50
15.35
15.35
15.40
15.35
15.11
14.68
14.13
13.53
12.85
11.99
10.81
9.24
7.28
5.08
2.82
0.69
-1.15
-2.68
-4.00
-5.32
-6.88
-8.84
-11.19
-13.76
-16.27
-18.41
-19.97
-20.82
-20.89
-20.21
-18.80
-16.72
-14.07
-11.01
-7.72
-4.37
-1.11
1.97
4.81
7.33
9.47
11.15
12.31
12.99
13.29
13.36
13.33
13.31
13.31
13.26
13.07
12.66
11.96
10.98
9.76
8.39
6.95
5.55
4.28
3.20
2.28
1.46
0.60
-0.41
-1.67
-3.20
-4.99
-7.04
-9.30
-11.77
-14.37
-16.96
-19.33
-21.19
-22.34
-22.62
-22.05
-20.71
-18.75
-16.30
-13.41
-10.21
-6.79
-3.31
0.07
3.23
6.10
8.59
10.64
12.12
12.96
13.19
12.99
12.61
12.27
12.05
11.86
11.54
11.01
10.26
9.43
8.69
8.14
7.78
7.50
7.11
6.43
5.33
3.80
1.96
-0.01
-1.90
-3.61
-5.16
-6.68
-8.34
-10.21
-12.27
-14.37
-16.34
-18.04
-19.35
-20.20
-20.51
-20.22
-19.23
-17.51
-15.07
-11.96
-8.31
-4.28
-0.09
3.97
7.62
10.59
12.73
14.03
14.61
14.66
14.40
13.96
13.44
12.86
12.27
11.71
11.24
10.86
10.54
10.16
9.64
8.91
7.92
6.65
5.10
3.26
1.13
-1.22
-3.69
-6.08
-8.16
-9.75
-10.82
-11.49
-12.05
-12.80
-14.01
-15.69
-17.62
-19.42
-20.63
-20.93
-20.17
-18.39
-15.76
-12.51
-8.88
-5.09
-1.34
2.17
5.30
7.92
10.01
11.61
12.83
13.73
14.35
14.67
14.68
14.40
13.96
13.56
13.31
13.20
13.08
12.67
11.72
10.15
8.06
5.68
3.30
1.12
-0.70
-2.12
-3.16
-3.87
-4.41
-4.97
-5.77
-6.95
-8.58
-10.59
-12.85
-15.21
-17.50
-19.48
-20.82
-21.19
-20.33
-18.22
-15.11
-11.47
-7.81
-4.48
-1.62
0.81
2.91
4.78
6.44
7.96
9.41
10.87
12.35
13.77
14.94
15.65
15.78
15.35
14.49
13.39
12.24
11.18
10.24
9.41
8.59
7.65
6.49
5.06
3.45
1.79
0.23
-1.12
-2.24
-3.22
-4.16
-5.18
-6.38
-7.82
-9.58
-11.66
-13.99
-16.34
-18.38
-19.70
-19.93
-18.96
-16.92
-14.21
-11.30
-8.58
-6.21
-4.08
-1.93
0.49
3.30
6.40
9.51
12.26
14.36
15.61
16.06
15.85
15.21
14.34
13.38
12.41
11.48
10.60
9.78
9.01
8.24
7.43
6.53
5.53
4.46
3.34
2.16
0.89
-0.51
-2.07
-3.79
-5.66
-7.65
-9.70
-11.69
-13.50
-14.99
-16.10
-16.81
-17.16
-17.15
-16.74
-15.87
-14.49
-12.64
-10.44
-8.01
-5.45
-2.73
0.15
3.17
6.15
8.87
11.08
12.60
13.40
13.54
13.14
12.39
11.49
10.66
10.04
9.70
9.57
9.53
9.45
9.28
9.01
8.66
8.19
7.50
6.51
5.19
3.65
2.03
0.48
-0.96
-2.32
-3.73
-5.27
-6.97
-8.80
-10.71
-12.66
-14.58
-16.38
-17.88
-18.86
-19.12
-18.55
-17.17
-15.14
-12.65
-9.90
-7.02
-4.07
-1.10
1.79
4.40
6.54
8.05
8.88
9.15
9.06
8.87
8.79
8.89
9.13
9.40
9.56
9.50
9.18
8.55
7.63
6.40
4.90
3.23
1.52
-0.08
-1.50
-2.80
-4.12
-5.62
-7.33
-9.12
-10.79
-12.16
-13.19
-14.05
-14.93
-15.98
-17.13
-18.16
-18.76
-18.64
-17.61
-15.60
-12.66
-8.98
-4.88
-0.78
2.90
5.91
8.19
9.86
11.10
12.07
12.82
13.35
13.65
13.76
13.72
13.55
13.22
12.67
11.88
10.88
9.80
8.68
7.51
6.24
4.74
3.00
1.11
-0.75
-2.39
-3.69
-4.66
-5.44
-6.28
-7.46
-9.22
-11.62
-14.55
-17.66
-20.47
-22.48
-23.34
-22.93
-21.36
-18.96
-16.03
-12.88
-9.64
-6.38
-3.07
0.29
3.67
6.97
10.03
12.65
14.68
16.05
16.79
17.06
17.07
16.98
16.88
16.73
16.47
16.01
15.29
14.31
13.07
11.63
10.07
8.52
7.09
5.89
4.89
3.97
2.95
1.65
-0.01
-2.03
-4.31
-6.77
-9.34
-11.97
-14.54
-16.91
-18.87
-20.17
-20.68
-20.35
-19.23
-17.49
-15.26
-12.68
-9.84
-6.78
-3.58
-0.32
2.85
5.80
8.41
10.63
12.52
14.15
15.60
16.87
17.91
18.60
18.84
18.59
17.91
16.89
15.65
14.27
12.82
11.42
10.18
9.16
8.35
7.62
6.73
5.51
3.87
1.92
-0.16
-2.17
-4.05
-5.86
-7.75
-9.83
-12.10
-14.43
-16.57
-18.28
-19.39
-19.81
-19.52
-18.55
-16.93
-14.67
-11.83
-8.53
-4.96
-1.35
2.08
5.20
7.95
10.35
12.43
14.18
15.57
16.52
16.97
16.91
16.41
15.57
14.59
13.67
12.98
12.59
12.41
12.24
11.81
10.92
9.48
7.60
5.49
3.42
1.61
0.15
-0.97
-1.88
-2.73
-3.71
-4.97
-6.58
-8.57
-10.87
-13.30
-15.63
-17.61
-19.01
-19.71
-19.67
-18.94
-17.59
-15.65
-13.14
-10.02
-6.30
-2.09
2.31
6.55
10.22
12.99
14.69
15.33
15.09
14.29
13.25
12.28
11.54
11.07
10.78
10.52
10.18
9.67
8.96
8.02
6.85
5.43
3.80
2.09
0.47
-0.90
-1.99
-2.89
-3.82
-5.02
-6.65
-8.72
-11.11
-13.56
-15.84
-17.78
-19.30
-20.42
-21.14
-21.38
-21.03
-19.90
-17.92
-15.15
-11.82
-8.21
-4.61
-1.15
2.08
5.00
7.51
9.42
10.59
11.08
11.09
11.03
11.23
11.85
12.79
13.76
14.43
14.60
14.27
13.59
12.75
11.90
11.05
10.10
8.90
7.33
5.36
3.11
0.79
-1.38
-3.26
-4.89
-6.48
-8.30
-10.56
-13.24
-16.09
-18.73
-20.76
-21.94
-22.22
-21.73
-20.67
-19.16
-17.23
-14.84
-11.99
-8.73
-5.18
-1.53
2.03
5.36
8.34
10.88
12.96
14.56
15.74
16.57
17.14
17.48
17.57
17.36
16.81
15.95
14.88
13.75
12.72
11.87
11.21
10.63
9.95
8.98
7.59
5.78
3.68
1.47
-0.72
-2.89
-5.17
-7.73
-10.65
-13.82
-16.95
-19.70
-21.78
-23.10
-23.69
-23.67
-23.12
-22.01
-20.26
-17.80
-14.64
-10.89
-6.76
-2.49
1.67
5.49
8.75
11.31
13.12
14.22
14.78
15.01
15.10
15.18
15.29
15.41
15.49
15.47
15.30
14.98
14.55
14.02
13.41
12.70
11.82
10.68
9.18
7.29
5.05
2.56
-0.02
-2.47
-4.66
-6.49
-8.01
-9.39
-10.84
-12.57
-14.62
-16.84
-18.94
-20.54
-21.35
-21.25
-20.26
-18.51
-16.08
-13.02
-9.36
-5.16
-0.66
3.80
7.78
10.99
13.30
14.83
15.82
16.47
16.86
16.97
16.76
16.26
15.64
15.11
14.82
14.79
14.90
14.91
14.58
13.76
12.39
10.50
8.25
5.85
3.53
1.48
-0.23
-1.66
-2.95
-4.28
-5.76
-7.44
-9.34
-11.45
-13.75
-16.17
-18.47
-20.32
-21.37
-21.33
-20.16
-18.01
-15.15
-11.87
-8.37
-4.77
-1.17
2.26
5.29
7.72
9.45
10.58
11.36
12.04
12.78
13.61
14.42
15.08
15.53
15.75
15.75
15.51
14.99
14.17
13.05
11.70
10.25
8.82
7.48
6.24
5.04
3.82
2.48
0.97
-0.78
-2.74
-4.89
-7.17
-9.53
-11.92
-14.27
-16.48
-18.37
-19.71
-20.29
-20.01
-18.92
-17.18
-14.99
-12.49
-9.77
-6.81
-3.63
-0.33
2.94
5.94
8.51
10.52
11.95
12.87
13.38
13.60
13.65
13.63
13.55
13.37
12.97
12.27
11.23
9.89
8.38
6.86
5.49
4.36
3.46
2.71
1.95
0.99
-0.32
-2.04
-4.11
-6.39
-8.74
-11.07
-13.36
-15.61
-17.77
-19.72
-21.20
-21.99
-21.95
-21.06
-19.45
-17.26
-14.61
-11.58
-8.20
-4.54
-0.78
2.86
6.17
8.98
11.25
13.02
14.33
15.15
15.41
15.04
14.02
12.49
10.67
8.86
7.30
6.10
5.24
4.62
4.08
3.49
2.76
1.82
0.66
-0.70
-2.22
-3.84
-5.55
-7.38
-9.39
-11.66
-14.21
-16.94
-19.67
-22.12
-24.02
-25.15
-25.37
-24.69
-23.20
-21.06
-18.37
-15.19
-11.54
-7.47
-3.10
1.32
5.46
9.05
11.86
13.82
15.00
15.52
15.59
15.38
15.11
14.91
14.84
14.87
14.87
14.71
14.33
13.74
13.00
12.13
11.10
9.78
8.08
5.97
3.52
0.87
-1.77
-4.27
-6.53
-8.55
-10.43
-12.29
-14.23
-16.29
-18.42
-20.42
-22.06
-23.12
-23.46
-23.02
-21.76
-19.69
-16.84
-13.26
-9.06
-4.42
0.42
5.23
9.71
13.58
16.56
18.51
19.44
19.60
19.34
19.06
19.01
19.26
19.69
20.09
20.26
20.08
19.46
18.40
16.94
15.17
13.18
11.08
8.92
6.76
4.63
2.57
0.60
-1.27
-3.09
-4.98
-7.06
-9.44
-12.13
-15.02
-17.93
-20.61
-22.79
-24.19
-24.64
-24.06
-22.47
-20.00
-16.80
-13.03
-8.85
-4.40
0.11
4.45
8.41
11.77
14.46
16.50
18.02
19.17
20.06
20.74
21.18
21.30
21.04
20.40
19.39
18.08
16.54
14.84
13.07
11.35
9.81
8.50
7.41
6.43
5.40
4.20
2.75
1.06
-0.89
-3.10
-5.61
-8.44
-11.52
-14.69
-17.71
-20.32
-22.29
-23.45
-23.72
-23.07
-21.55
-19.31
-16.55
-13.45
-10.15
-6.72
-3.21
0.33
3.77
6.95
9.70
11.95
13.74
15.16
16.28
17.08
17.48
17.35
16.70
15.61
14.29
12.98
11.85
10.92
10.12
9.29
8.27
6.97
5.40
3.60
1.62
-0.49
-2.70
-5.03
-7.47
-10.01
-12.62
-15.30
-17.99
-20.62
-23.01
-24.89
-25.98
-26.03
-24.97
-22.90
-20.08
-16.81
-13.36
-9.85
-6.30
-2.66
1.09
4.85
8.42
11.52
13.92
15.48
16.24
16.31
15.93
15.34
14.72
14.22
13.87
13.64
13.42
13.09
12.51
11.60
10.33
8.68
6.70
4.47
2.15
-0.06
-2.00
-3.58
-4.93
-6.33
-8.10
-10.48
-13.49
-16.91
-20.38
-23.54
-26.08
-27.77
-28.49
-28.17
-26.80
-24.43
-21.19
-17.28
-12.88
-8.14
-3.17
1.94
7.01
11.81
16.06
19.48
21.90
23.30
23.77
23.54
22.86
21.95
20.98
20.07
19.32
18.79
18.47
18.24
17.93
17.29
16.14
14.41
12.19
9.69
7.16
4.78
2.63
0.64
-1.30
-3.33
-5.55
-8.05
-10.90
-14.09
-17.54
-21.01
-24.14
-26.54
-27.91
-28.07
-27.08
-25.10
-22.33
-18.92
-14.97
-10.56
-5.85
-1.04
3.57
7.75
11.31
14.23
16.56
18.42
19.94
21.15
22.04
22.55
22.61
22.21
21.43
20.41
19.29
18.17
17.01
15.74
14.26
12.59
10.82
9.11
7.55
6.09
4.59
2.89
0.89
-1.38
-3.87
-6.53
-9.35
-12.37
-15.51
-18.56
-21.16
-22.98
-23.82
-23.74
-22.96
-21.72
-20.13
-18.14
-15.57
-12.32
-8.43
-4.11
0.30
4.45
8.06
10.98
13.18
14.72
15.72
16.33
16.70
16.89
16.92
16.76
16.38
15.76
14.93
13.93
12.76
11.45
9.99
8.37
6.63
4.77
2.81
0.74
-1.38
-3.45
-5.31
-6.85
-8.02
-8.89
-9.69
-10.69
-12.13
-14.13
-16.64
-19.38
-21.93
-23.84
-24.73
-24.41
-22.88
-20.33
-17.02
-13.22
-9.13
-4.91
-0.71
3.28
6.91
10.04
12.63
14.70
16.30
17.50
18.33
18.76
18.77
18.39
17.68
16.74
15.72
14.72
13.76
12.79
11.69
10.32
8.64
6.75
4.84
3.19
1.95
1.13
0.55
-0.05
-0.86
-2.00
-3.48
-5.31
-7.48
-9.99
-12.70
-15.29
-17.28
-18.20
-17.78
-16.04
-13.33
-10.10
-6.77
-3.56
-0.52
2.34
5.02
7.45
9.50
11.09
12.16
12.75
12.90
12.67
12.13
11.40
10.61
9.87
9.29
8.88
8.55
8.14
7.48
6.42
4.92
3.04
0.95
-1.13
-3.04
-4.70
-6.19
-7.66
-9.31
-11.33
-13.81
-16.74
-20.00
-23.34
-26.44
-28.91
-30.38
-30.68
-29.80
-27.93
-25.34
-22.27
-18.78
-14.83
-10.34
-5.34
-0.07
5.05
9.57
13.13
15.59
16.98
17.53
17.53
17.27
17.00
16.84
16.80
16.76
16.52
15.89
14.73
13.01
10.77
8.17
5.37
2.57
-0.05
-2.41
-4.52
-6.49
-8.46
-10.59
-12.97
-15.69
-18.78
-22.19
-25.78
-29.25
-32.15
-34.04
-34.60
-33.73
-31.62
-28.55
-24.80
-20.56
-15.92
-10.94
-5.78
-0.65
4.21
8.57
12.27
15.17
17.23
18.51
19.13
19.32
19.32
19.24
19.08
18.69
17.92
16.72
15.11
13.21
11.11
8.88
6.59
4.30
2.13
0.17
-1.51
-3.00
-4.45
-6.09
-8.08
-10.48
-13.27
-16.32
-19.43
-22.35
-24.72
-26.21
-26.52
-25.54
-23.33
-20.12
-16.23
-12.03
-7.77
-3.60
0.46
4.45
8.37
12.14
15.57
18.44
20.54
21.80
22.28
22.16
21.69
21.06
20.43
19.84
19.28
18.65
17.86
16.79
15.32
13.39
10.98
8.22
5.28
2.42
-0.17
-2.39
-4.33
-6.21
-8.33
-10.88
-13.91
-17.26
-20.58
-23.52
-25.73
-26.98
-27.17
-26.31
-24.49
-21.82
-18.44
-14.44
-9.87
-4.81
0.61
6.15
11.45
16.14
19.91
22.61
24.29
25.10
25.25
24.91
24.15
22.99
21.50
19.79
18.00
16.28
14.66
13.08
11.44
9.64
7.72
5.77
3.92
2.20
0.51
-1.33
-3.50
-6.06
-8.97
-12.06
-15.17
-18.22
-21.19
-24.03
-26.65
-28.81
-30.20
-30.54
-29.68
-27.64
-24.55
-20.67
-16.20
-11.33
-6.21
-0.97
4.19
9.01
13.24
16.63
19.01
20.38
20.86
20.70
20.18
19.55
18.91
18.24
17.45
16.47
15.35
14.17
13.03
11.95
10.79
9.37
7.63
5.64
3.67
1.95
0.53
-0.82
-2.48
-4.79
-7.81
-11.29
-14.81
-17.99
-20.59
-22.56
-23.91
-24.56
-24.35
-23.12
-20.84
-17.70
-14.01
-10.05
-5.98
-1.86
2.35
6.59
10.64
14.16
16.83
18.44
19.04
18.86
18.27
17.60
17.05
16.63
16.20
15.57
14.63
13.38
11.92
10.38
8.84
7.28
5.61
3.74
1.68
-0.51
-2.77
-5.05
-7.39
-9.89
-12.62
-15.59
-18.70
-21.80
-24.70
-27.16
-28.95
-29.83
-29.60
-28.17
-25.60
-22.03
-17.72
-12.88
-7.71
-2.40
2.87
7.82
12.18
15.71
18.29
19.96
20.85
21.20
21.21
21.00
20.65
20.16
19.50
18.67
17.67
16.50
15.18
13.71
12.04
10.16
8.01
5.65
3.18
0.83
-1.21
-2.84
-4.16
-5.43
-7.00
-9.10
-11.79
-14.91
-18.08
-20.91
-22.96
-23.94
-23.68
-22.17
-19.55
-16.04
-11.86
-7.22
-2.23
2.95
8.16
13.10
17.45
20.91
23.36
24.87
25.67
26.09
26.38
26.73
27.14
27.50
27.61
27.29
26.37
24.82
22.72
20.22
17.55
14.86
12.29
9.85
7.51
5.19
2.81
0.30
-2.38
-5.26
-8.31
-11.51
-14.79
-18.07
-21.18
-23.93
-26.06
-27.36
-27.69
-27.02
-25.42
-23.02
-19.95
-16.31
-12.15
-7.61
-2.92
1.57
5.42
8.31
10.10
10.95
11.18
11.20
11.29
11.52
11.77
11.85
11.63
11.10
10.38
9.55
8.62
7.49
6.05
4.31
2.44
0.71
-0.67
-1.67
-2.50
-3.54
-5.14
-7.50
-10.57
-14.04
-17.52
-20.58
-22.96
-24.49
-25.11
-24.80
-23.55
-21.33
-18.20
-14.32
-9.99
-5.58
-1.44
2.17
5.12
7.40
9.08
10.26
11.01
11.41
11.55
11.53
11.41
11.21
10.93
10.48
9.77
8.71
7.26
5.46
3.42
1.29
-0.77
-2.68
-4.46
-6.16
-7.90
-9.75
-11.81
-14.13
-16.73
-19.60
-22.58
-25.40
-27.66
-28.96
-29.05
-27.89
-25.68
-22.69
-19.23
-15.47
-11.50
-7.34
-3.07
1.21
5.34
9.13
12.41
15.04
16.94
18.12
18.66
18.70
18.39
17.84
17.10
16.18
15.11
13.94
12.75
11.55
10.27
8.75
6.86
4.56
1.95
-0.76
-3.42
-5.97
-8.54
-11.35
-14.59
-18.29
-22.26
-26.12
-29.44
-31.80
-32.90
-32.58
-30.81
-27.74
-23.60
-18.73
-13.47
-8.10
-2.77
2.43
7.45
12.22
16.56
20.23
23.05
24.90
25.80
25.90
25.38
24.45
23.31
22.11
20.96
19.90
18.88
17.79
16.49
14.87
12.85
10.46
7.80
5.02
2.29
-0.24
-2.48
-4.47
-6.35
-8.41
-11.00
-14.34
-18.44
-22.90
-27.11
-30.34
-32.01
-31.90
-30.15
-27.13
-23.24
-18.79
-13.94
-8.79
-3.43
1.95
7.14
11.92
16.14
19.72
22.63
24.81
26.23
26.87
26.81
26.18
25.21
24.15
23.16
22.31
21.53
20.71
19.75
18.55
17.07
15.23
12.96
10.27
7.25
4.13
1.13
-1.58
-4.02
-6.37
-8.88
-11.74
-14.99
-18.54
-22.22
-25.82
-29.09
-31.73
-33.41
-33.79
-32.70
-30.16
-26.38
-21.67
-16.32
-10.53
-4.44
1.79
7.89
13.49
18.22
21.81
24.20
25.54
26.08
26.08
25.76
25.31
24.86
24.49
24.18
23.82
23.25
22.32
20.97
19.25
17.27
15.13
12.90
10.60
8.26
5.92
3.60
1.28
-1.08
-3.58
-6.27
-9.18
-12.24
-15.45
-18.77
-22.16
-25.50
-28.56
-31.05
-32.66
-33.17
-32.51
-30.74
-27.97
-24.33
-19.95
-14.89
-9.29
-3.35
2.62
8.20
12.98
16.63
19.01
20.22
20.56
20.42
20.18
20.05
20.04
20.00
19.72
19.05
17.93
16.46
14.77
13.05
11.38
9.72
7.97
6.02
3.84
1.51
-0.86
-3.20
-5.51
-7.86
-10.29
-12.83
-15.45
-18.16
-20.97
-23.90
-26.87
-29.59
-31.61
-32.42
-31.64
-29.21
-25.35
-20.48
-15.01
-9.24
-3.34
2.57
8.29
13.55
18.00
21.40
23.65
24.89
25.39
25.45
25.31
25.04
24.60
23.90
22.90
21.62
20.23
18.87
17.67
16.61
15.55
14.27
12.54
10.23
7.36
4.12
0.77
-2.45
-5.43
-8.17
-10.79
-13.37
-15.99
-18.65
-21.34
-24.03
-26.68
-29.13
-31.14
-32.31
-32.28
-30.83
-27.92
-23.74
-18.65
-13.05
-7.31
-1.68
3.62
8.52
12.94
16.85
20.18
22.82
24.66
25.65
25.81
25.29
24.28
22.97
21.46
19.87
18.29
16.85
15.65
14.71
13.90
12.97
11.70
9.94
7.73
5.24
2.71
0.28
-1.94
-3.98
-5.90
-7.79
-9.75
-11.85
-14.17
-16.75
-19.56
-22.50
-25.32
-27.66
-29.08
-29.22
-27.90
-25.20
-21.43
-16.99
-12.22
-7.30
-2.31
2.64
7.30
11.29
14.25
16.01
16.73
16.80
16.66
16.62
16.71
16.83
16.78
16.48
15.98
15.38
14.80
14.23
13.59
12.79
11.73
10.39
8.77
6.93
4.86
2.61
0.18
-2.36
-4.92
-7.40
-9.72
-11.90
-14.04
-16.29
-18.75
-21.39
-23.99
-26.22
-27.70
-28.17
-27.49
-25.73
-23.06
-19.64
-15.64
-11.18
-6.40
-1.54
3.12
7.26
10.64
13.20
15.01
16.23
17.04
17.52
17.67
17.48
16.96
16.19
15.26
14.27
13.31
12.45
11.71
11.08
10.47
9.71
8.59
7.01
4.97
2.65
0.26
-1.98
-4.00
-5.81
-7.51
-9.21
-11.02
-13.05
-15.36
-18.01
-20.89
-23.79
-26.33
-28.12
-28.84
-28.32
-26.58
-23.81
-20.23
-16.09
-11.64
-7.09
-2.63
1.61
5.56
9.16
12.36
15.10
17.29
18.88
19.85
20.28
20.24
19.79
18.98
17.86
16.49
14.99
13.49
12.06
10.75
9.52
8.31
7.04
5.67
4.20
2.69
1.20
-0.23
-1.65
-3.15
-4.83
-6.74
-8.87
-11.13
-13.48
-15.93
-18.50
-21.13
-23.62
-25.56
-26.55
-26.29
-24.80
-22.34
-19.27
-15.87
-12.24
-8.33
-4.08
0.37
4.72
8.56
11.57
13.60
14.76
15.31
15.52
15.58
15.56
15.46
15.23
14.80
14.12
13.15
11.89
10.42
8.87
7.41
6.15
5.09
4.07
2.91
1.47
-0.25
-2.12
-3.99
-5.78
-7.54
-9.39
-11.48
-13.87
-16.49
-19.20
-21.73
-23.86
-25.33
-25.96
-25.67
-24.48
-22.47
-19.75
-16.40
-12.47
-8.03
-3.27
1.51
5.92
9.64
12.48
14.48
15.75
16.48
16.81
16.88
16.80
16.71
16.73
16.86
16.99
16.91
16.38
15.26
13.62
11.64
9.58
7.63
5.84
4.14
2.39
0.44
-1.74
-4.12
-6.60
-9.06
-11.44
-13.72
-15.95
-18.20
-20.45
-22.57
-24.38
-25.65
-26.21
-26.03
-25.13
-23.56
-21.28
-18.21
-14.24
-9.45
-4.15
1.16
5.91
9.62
12.10
13.45
13.97
14.01
13.85
13.62
13.39
13.14
12.86
12.54
12.14
11.55
10.67
9.45
7.90
6.18
4.43
2.78
1.24
-0.29
-1.94
-3.86
-6.08
-8.56
-11.22
-13.95
-16.72
-19.54
-22.41
-25.24
-27.83
-29.86
-30.99
-30.97
-29.71
-27.30
-23.93
-19.86
-15.34
-10.57
-5.75
-1.07
3.28
7.14
10.39
12.96
14.88
16.24
17.12
17.65
17.87
17.82
17.44
16.71
15.63
14.30
12.90
11.60
10.47
9.43
8.25
6.71
4.68
2.21
-0.50
-3.19
-5.74
-8.18
-10.68
-13.42
-16.48
-19.78
-23.14
-26.30
-29.03
-31.08
-32.20
-32.20
-30.90
-28.32
-24.59
-20.01
-14.93
-9.66
-4.40
0.75
5.71
10.38
14.64
18.32
21.29
23.52
25.05
25.97
26.37
26.27
25.67
24.59
23.17
21.61
20.11
18.78
17.51
16.11
14.36
12.18
9.66
7.04
4.59
2.47
0.67
-0.98
-2.73
-4.83
-7.47
-10.73
-14.52
-18.62
-22.64
-26.11
-28.57
-29.67
-29.24
-27.28
-24.00
-19.71
-14.72
-9.33
-3.79
1.71
6.96
11.75
15.88
19.20
21.68
23.40
24.50
25.16
25.50
25.55
25.26
24.58
23.55
22.24
20.82
19.44
18.18
16.98
15.68
14.07
12.00
9.48
6.74
4.06
1.69
-0.31
-2.13
-4.06
-6.45
-9.43
-12.96
-16.77
-20.52
-23.85
-26.46
-28.06
-28.44
-27.50
-25.25
-21.83
-17.51
-12.56
-7.22
-1.73
3.70
8.82
13.34
17.03
19.82
21.75
23.01
23.79
24.26
24.47
24.42
24.06
23.39
22.45
21.37
20.28
19.27
18.33
17.30
15.97
14.14
11.75
8.88
5.80
2.74
-0.09
-2.64
-4.93
-7.08
-9.23
-11.51
-14.06
-16.94
-20.05
-23.11
-25.66
-27.20
-27.36
-26.03
-23.37
-19.69
-15.36
-10.63
-5.67
-0.56
4.51
9.30
13.51
16.88
19.32
20.88
21.77
22.18
22.23
22.02
21.58
21.01
20.43
19.94
19.57
19.21
18.66
17.71
16.23
14.22
11.84
9.29
6.77
4.42
2.30
0.39
-1.38
-3.12
-5.00
-7.19
-9.79
-12.78
-15.91
-18.79
-20.95
-22.00
-21.77
-20.32
-17.89
-14.75
-11.11
-7.11
-2.83
1.59
5.94
9.95
13.37
16.04
17.93
19.14
19.80
20.03
19.95
19.63
19.14
18.53
17.82
16.97
15.92
14.64
13.15
11.59
10.07
8.68
7.37
6.05
4.60
2.95
1.08
-0.96
-3.14
-5.39
-7.67
-9.96
-12.25
-14.57
-17.00
-19.55
-22.13
-24.47
-26.16
-26.82
-26.19
-24.27
-21.36
-17.85
-14.10
-10.30
-6.48
-2.59
1.34
5.11
8.43
11.00
12.70
13.61
13.94
13.96
13.82
13.57
13.19
12.71
12.22
11.89
11.77
11.78
11.70
11.21
10.09
8.30
5.99
3.43
0.91
-1.36
-3.33
-5.03
-6.55
-8.01
-9.54
-11.25
-13.24
-15.48
-17.83
-19.99
-21.57
-22.21
-21.69
-20.00
-17.32
-13.94
-10.14
-6.15
-2.13
1.81
5.55
8.90
11.66
13.65
14.79
15.17
15.00
14.55
14.07
13.72
13.53
13.42
13.27
12.94
12.40
11.67
10.84
10.01
9.21
8.36
7.36
6.10
4.59
2.95
1.38
-0.02
-1.26
-2.55
-4.17
-6.36
-9.19
-12.53
-16.10
-19.60
-22.75
-25.32
-27.15
-28.09
-27.99
-26.75
-24.29
-20.67
-16.10
-10.94
-5.66
-0.78
3.32
6.44
8.65
10.16
11.27
12.20
13.05
13.80
14.36
14.58
14.35
13.63
12.49
11.09
9.61
8.21
6.95
5.79
4.63
3.39
2.03
0.58
-0.88
-2.35
-3.85
-5.49
-7.35
-9.52
-12.04
-14.92
-18.08
-21.33
-24.38
-26.82
-28.33
-28.68
-27.83
-25.90
-23.07
-19.53
-15.41
-10.82
-5.94
-1.02
3.61
7.60
10.72
12.91
14.33
15.21
15.82
16.27
16.51
16.39
15.75
14.56
12.95
11.22
9.64
8.43
7.63
7.12
6.67
6.02
4.94
3.35
1.30
-1.02
-3.30
-5.33
-6.99
-8.37
-9.71
-11.32
-13.40
-15.99
-18.92
-21.87
-24.44
-26.23
-26.94
-26.41
-24.58
-21.53
-17.46
-12.60
-7.27
-1.84
3.29
7.75
11.27
13.76
15.29
16.09
16.45
16.60
16.67
16.70
16.62
16.38
15.91
15.21
14.31
13.29
12.18
11.00
9.71
8.25
6.55
4.59
2.40
0.08
-2.28
-4.61
-6.91
-9.26
-11.81
-14.71
-18.02
-21.69
-25.46
-29.01
-31.93
-33.92
-34.78
-34.44
-32.91
-30.32
-26.83
-22.67
-18.07
-13.25
-8.40
-3.68
0.75
4.65
7.81
10.07
11.45
12.15
12.49
12.75
13.04
13.34
13.49
13.36
12.90
12.20
11.40
10.61
9.84
8.96
7.74
5.95
3.53
0.60
-2.52
-5.49
-8.14
-10.52
-12.91
-15.60
-18.69
-22.02
-25.24
-27.97
-29.91
-30.96
-31.12
-30.39
-28.77
-26.27
-22.92
-18.82
-14.17
-9.21
-4.21
0.59
4.97
8.81
12.07
14.80
17.08
18.89
20.18
20.81
20.68
19.84
18.50
16.95
15.52
14.40
13.60
12.99
12.30
11.28
9.76
7.67
5.07
2.15
-0.87
-3.77
-6.40
-8.73
-10.87
-13.05
-15.46
-18.22
-21.28
-24.38
-27.16
-29.25
-30.30
-30.12
-28.67
-25.99
-22.23
-17.62
-12.37
-6.74
-0.98
4.70
10.06
14.86
18.90
22.04
24.21
25.48
25.99
25.91
25.38
24.53
23.47
22.28
21.11
20.07
19.21
18.48
17.74
16.78
15.39
13.49
11.13
8.49
5.79
3.23
0.88
-1.32
-3.57
-6.11
-9.09
-12.55
-16.33
-20.07
-23.34
-25.69
-26.78
-26.42
-24.64
-21.61
-17.64
-13.08
-8.21
-3.24
1.75
6.74
11.71
16.55
21.03
24.82
27.63
29.28
29.82
29.41
28.38
26.98
25.45
23.96
22.61
21.50
20.63
19.89
19.02
17.71
15.75
13.08
9.89
6.53
3.30
0.32
-2.50
-5.44
-8.75
-12.54
-16.69
-20.93
-24.90
-28.27
-30.73
-32.03
-31.99
-30.55
-27.84
-24.13
-19.83
-15.27
-10.57
-5.72
-0.62
4.74
10.14
15.18
19.41
22.50
24.35
25.07
24.91
24.13
22.93
21.48
19.92
18.42
17.13
16.13
15.36
14.66
13.73
12.32
10.29
7.71
4.81
1.90
-0.80
-3.19
-5.37
-7.52
-9.79
-12.27
-14.97
-17.88
-20.95
-24.10
-27.09
-29.57
-31.07
-31.24
-29.86
-27.04
-23.01
-18.09
-12.55
-6.56
-0.27
6.08
12.20
17.72
22.34
25.84
28.17
29.40
29.69
29.21
28.18
26.79
25.24
23.73
22.38
21.29
20.40
19.56
18.54
17.12
15.19
12.75
9.92
6.86
3.68
0.45
-2.81
-6.10
-9.41
-12.72
-16.03
-19.37
-22.73
-25.95
-28.71
-30.62
-31.31
-30.62
-28.65
-25.66
-21.98
-17.81
-13.21
-8.14
-2.60
3.30
9.25
14.87
19.72
23.51
26.08
27.50
28.01
27.90
27.46
26.87
26.15
25.27
24.17
22.86
21.41
19.90
18.38
16.78
14.97
12.89
10.50
7.89
5.18
2.44
-0.31
-3.11
-6.03
-9.09
-12.26
-15.44
-18.51
-21.35
-23.82
-25.81
-27.18
-27.86
-27.81
-27.02
-25.48
-23.13
-19.94
-15.88
-11.06
-5.69
-0.09
5.41
10.49
14.93
18.55
21.23
22.87
23.48
23.22
22.35
21.24
20.19
19.35
18.70
18.08
17.31
16.26
14.85
13.07
10.95
8.51
5.84
3.05
0.32
-2.18
-4.38
-6.36
-8.34
-10.59
-13.31
-16.56
-20.17
-23.83
-27.12
-29.64
-31.08
-31.29
-30.21
-27.92
-24.59
-20.41
-15.61
-10.37
-4.89
0.67
6.08
11.08
15.40
18.82
21.27
22.80
23.61
23.88
23.70
23.07
21.91
20.25
18.27
16.29
14.61
13.39
12.56
11.87
10.99
9.66
7.80
5.47
2.84
0.06
-2.75
-5.51
-8.20
-10.78
-13.27
-15.69
-18.12
-20.56
-22.95
-25.07
-26.60
-27.21
-26.66
-24.85
-21.91
-18.12
-13.78
-9.18
-4.50
0.14
4.63
8.87
12.65
15.78
18.09
19.53
20.16
20.16
19.76
19.13
18.40
17.57
16.56
15.32
13.84
12.22
10.60
9.17
7.99
7.00
6.02
4.82
3.26
1.31
-0.92
-3.29
-5.68
-8.12
-10.70
-13.54
-16.64
-19.85
-22.85
-25.26
-26.78
-27.26
-26.69
-25.18
-22.85
-19.80
-16.08
-11.74
-6.88
-1.74
3.33
7.94
11.74
14.52
16.33
17.36
17.92
18.28
18.60
18.88
19.01
18.84
18.26
17.28
15.96
14.46
12.94
11.52
10.19
8.84
7.28
5.40
3.18
0.80
-1.54
-3.68
-5.60
-7.47
-9.49
-11.85
-14.57
-17.51
-20.49
-23.31
-25.78
-27.72
-28.87
-28.94
-27.68
-25.00
-21.01
-16.02
-10.43
-4.66
0.92
6.06
10.55
14.27
17.13
19.11
20.28
20.73
20.55
19.83
18.60
16.93
14.95
12.90
11.05
9.63
8.72
8.18
7.73
6.99
5.63
3.54
0.84
-2.15
-5.04
-7.52
-9.42
-10.79
-11.84
-12.83
-14.02
-15.56
-17.49
-19.69
-21.91
-23.77
-24.84
-24.80
-23.51
-21.09
-17.89
-14.32
-10.73
-7.28
-3.93
-0.63
2.63
5.69
8.27
10.16
11.26
11.71
11.79
11.75
11.75
11.78
11.80
11.73
11.57
11.32
10.97
10.43
9.56
8.27
6.51
4.38
2.04
-0.33
-2.57
-4.65
-6.63
-8.65
-10.88
-13.46
-16.39
-19.53
-22.60
-25.29
-27.38
-28.75
-29.37
-29.23
-28.31
-26.57
-24.04
-20.80
-17.03
-12.92
-8.64
-4.32
-0.06
4.03
7.81
11.13
13.84
15.89
17.23
17.85
17.77
17.00
15.68
14.02
12.31
10.81
9.69
8.96
8.46
7.94
7.18
6.05
4.53
2.73
0.77
-1.26
-3.32
-5.43
-7.69
-10.20
-13.04
-16.23
-19.65
-23.07
-26.16
-28.50
-29.77
-29.77
-28.51
-26.20
-23.13
-19.57
-15.67
-11.44
-6.83
-1.85
3.37
8.49
13.14
16.92
19.63
21.24
21.92
21.91
21.38
20.47
19.24
17.80
16.30
14.94
13.87
13.09
12.43
11.60
10.34
8.53
6.24
3.67
1.07
-1.38
-3.70
-5.92
-8.20
-10.62
-13.24
-16.07
-19.05
-22.07
-24.96
-27.48
-29.32
-30.22
-30.00
-28.63
-26.24
-23.05
-19.28
-15.11
-10.60
-5.82
-0.82
4.24
9.10
13.45
17.01
19.61
21.23
22.01
22.15
21.94
21.58
21.25
20.98
20.72
20.35
19.73
18.72
17.25
15.27
12.84
10.09
7.22
4.45
1.99
-0.08
-1.79
-3.31
-4.90
-6.81
-9.17
-12.03
-15.26
-18.68
-22.01
-25.03
-27.54
-29.35
-30.34
-30.35
-29.29
-27.12
-23.91
-19.81
-15.05
-9.83
-4.35
1.18
6.53
11.40
15.47
18.51
20.43
21.36
21.56
21.40
21.15
20.98
20.87
20.69
20.27
19.49
18.33
16.80
15.03
13.10
11.06
8.97
6.88
4.81
2.76
0.69
-1.46
-3.76
-6.25
-8.92
-11.78
-14.85
-18.17
-21.70
-25.21
-28.30
-30.47
-31.31
-30.62
-28.56
-25.48
-21.77
-17.72
-13.41
-8.76
-3.75
1.52
6.77
11.56
15.45
18.19
19.76
20.40
20.46
20.28
20.05
19.79
19.46
18.98
18.31
17.52
16.63
15.66
14.55
13.23
11.61
9.68
7.51
5.23
2.96
0.75
-1.44
-3.73
-6.24
-9.04
-12.12
-15.39
-18.72
-21.99
-25.04
-27.72
-29.80
-31.03
-31.20
-30.17
-27.96
-24.72
-20.68
-16.10
-11.13
-5.90
-0.48
5.01
10.37
15.28
19.37
22.39
24.21
24.97
24.92
24.39
23.60
22.67
21.63
20.46
19.21
17.94
16.74
15.66
14.66
13.62
12.38
10.79
8.76
6.31
3.54
0.62
-2.27
-5.05
-7.71
-10.34
-13.09
-16.10
-19.37
-22.79
-26.11
-28.98
-31.04
-31.99
-31.66
-30.01
-27.09
-23.06
-18.08
-12.34
-6.06
0.48
6.94
12.95
18.12
22.17
25.01
26.72
27.57
27.88
27.93
27.88
27.69
27.25
26.44
25.18
23.55
21.68
19.77
17.94
16.24
14.61
12.92
11.03
8.88
6.52
4.03
1.55
-0.88
-3.29
-5.74
-8.33
-11.09
-14.06
-17.23
-20.60
-24.08
-27.44
-30.29
-32.13
-32.53
-31.28
-28.49
-24.48
-19.66
-14.40
-8.89
-3.27
2.34
7.71
12.60
16.71
19.90
22.16
23.61
24.46
24.91
25.06
25.00
24.74
24.33
23.81
23.23
22.57
21.78
20.76
19.41
17.63
15.39
12.74
9.81
6.78
3.82
0.99
-1.71
-4.33
-6.92
-9.51
-12.13
-14.85
-17.74
-20.87
-24.17
-27.34
-29.95
-31.48
-31.59
-30.20
-27.51
-23.88
-19.63
-14.94
-9.87
-4.44
1.27
6.97
12.26
16.68
19.92
21.93
22.91
23.18
23.10
22.84
22.43
21.82
20.99
20.01
18.98
17.97
16.90
15.58
13.86
11.70
9.27
6.80
4.54
2.57
0.81
-0.89
-2.74
-4.89
-7.44
-10.41
-13.76
-17.38
-21.08
-24.55
-27.49
-29.64
-30.82
-31.00
-30.19
-28.43
-25.77
-22.25
-17.97
-13.03
-7.59
-1.83
3.99
9.59
14.59
18.61
21.40
22.90
23.32
23.03
22.49
21.99
21.66
21.42
21.11
20.60
19.79
18.64
17.17
15.40
13.35
11.04
8.45
5.58
2.49
-0.70
-3.78
-6.53
-8.83
-10.76
-12.54
-14.50
-16.92
-19.94
-23.49
-27.28
-30.89
-33.82
-35.67
-36.12
-35.05
-32.48
-28.54
-23.42
-17.39
-10.76
-3.93
2.66
8.59
13.54
17.34
20.01
21.74
22.75
23.30
23.62
23.87
24.09
24.24
24.20
23.82
22.98
21.68
19.98
18.01
15.90
13.75
11.59
9.44
7.32
5.26
3.30
1.46
-0.31
-2.15
-4.23
-6.75
-9.79
-13.41
-17.49
-21.85
-26.14
-29.92
-32.71
-34.10
-33.85
-32.00
-28.80
-24.58
-19.71
-14.42
-8.88
-3.21
2.38
7.64
12.33
16.27
19.42
21.86
23.70
25.01
25.80
25.98
25.53
24.46
22.89
20.98
18.94
16.90
14.94
13.08
11.27
9.40
7.38
5.16
2.80
0.45
-1.73
-3.65
-5.37
-7.07
-8.96
-11.19
-13.75
-16.54
-19.44
-22.35
-25.19
-27.83
-29.99
-31.27
-31.28
-29.75
-26.73
-22.50
-17.50
-12.14
-6.69
-1.27
4.12
9.43
14.51
19.08
22.82
25.51
27.05
27.56
27.30
26.57
25.67
24.79
24.04
23.40
22.81
22.18
21.39
20.31
18.82
16.84
14.38
11.55
8.53
5.53
2.75
0.27
-1.90
-3.89
-5.87
-8.02
-10.52
-13.44
-16.77
-20.39
-24.10
-27.65
-30.72
-32.99
-34.14
-33.91
-32.21
-29.13
-24.90
-19.80
-14.10
-7.93
-1.41
5.38
12.28
18.97
25.04
30.02
33.54
35.47
35.91
35.28
34.09
32.83
31.73
30.80
29.87
28.75
27.37
25.75
23.97
22.04
19.87
17.35
14.41
11.13
7.68
4.31
1.14
-1.83
-4.75
-7.82
-11.19
-14.91
-18.87
-22.86
-26.60
-29.86
-32.49
-34.49
-36.00
-37.14
-37.98
-38.40
-38.11
-36.76
-34.11
-30.19
-25.32
-20.03
-14.80
-9.83
-5.00
0.03
5.55
11.54
17.64
23.15
27.41
30.00
30.94
30.58
29.44
27.98
26.41
24.72
22.84
20.76
18.66
16.81
15.49
14.78
14.52
14.33
13.80
12.64
10.79
8.40
5.74
3.09
0.59
-1.77
-4.08
-6.46
-8.96
-11.59
-14.30
-17.08
-19.88
-22.66
-25.28
-27.53
-29.11
-29.79
-29.45
-28.12
-25.96
-23.11
-19.64
-15.53
-10.75
-5.37
0.36
6.01
11.08
15.12
17.91
19.43
19.92
19.68
19.03
18.22
17.43
16.77
16.31
16.03
15.83
15.51
14.83
13.62
11.83
9.55
6.99
4.37
1.84
-0.50
-2.63
-4.58
-6.40
-8.18
-10.02
-11.98
-14.07
-16.22
-18.33
-20.38
-22.43
-24.57
-26.80
-28.93
-30.61
-31.36
-30.85
-28.97
-25.89
-21.95
-17.50
-12.78
-7.96
-3.15
1.55
5.98
10.03
13.63
16.77
19.46
21.70
23.39
24.43
24.73
24.28
23.21
21.74
20.15
18.66
17.38
16.32
15.36
14.38
13.26
11.89
10.19
8.09
5.58
2.72
-0.29
-3.18
-5.69
-7.66
-9.14
-10.32
-11.53
-13.08
-15.19
-17.89
-21.07
-24.45
-27.65
-30.28
-32.01
-32.63
-32.10
-30.46
-27.84
-24.39
-20.23
-15.53
-10.44
-5.16
0.12
5.22
9.93
14.05
17.39
19.76
21.09
21.41
20.94
20.01
18.98
18.15
17.59
17.22
16.78
16.01
14.73
12.97
10.91
8.83
6.95
5.35
3.96
2.61
1.11
-0.64
-2.64
-4.85
-7.19
-9.64
-12.17
-14.82
-17.63
-20.60
-23.70
-26.81
-29.72
-32.12
-33.68
-34.10
-33.22
-31.03
-27.68
-23.43
-18.56
-13.36
-8.04
-2.80
2.23
6.91
11.16
14.87
17.95
20.29
21.84
22.66
22.91
22.80
22.56
22.36
22.26
22.20
22.09
21.87
21.47
20.88
20.00
18.73
16.89
14.44
11.46
8.24
5.13
2.39
0.08
-2.04
-4.36
-7.24
-10.82
-14.91
-19.14
-23.09
-26.47
-29.14
-31.08
-32.31
-32.77
-32.43
-31.29
-29.44
-27.05
-24.25
-21.11
-17.60
-13.68
-9.32
-4.61
0.27
5.04
9.43
13.20
16.17
18.30
19.61
20.24
20.36
20.13
19.73
19.29
18.90
18.57
18.27
17.88
17.22
16.12
14.49
12.39
9.98
7.49
5.06
2.75
0.48
-1.83
-4.19
-6.51
-8.66
-10.52
-12.15
-13.73
-15.56
-17.83
-20.55
-23.48
-26.18
-28.10
-28.75
-27.77
-24.99
-20.41
-14.20
-6.71
1.50
9.79
17.45
23.85
28.52
31.19
31.82
30.54
27.70
23.86
19.70
15.95
13.15
11.52
10.90
10.86
10.94
10.89
10.77
10.82
11.26
12.07
12.90
13.23
12.60
10.84
8.09
4.78
1.35
-1.87
-4.74
-7.31
-9.73
-12.15
-14.64
-17.21
-19.69
-21.92
-23.68
-24.82
-25.30
-25.10
-24.25
-22.64
-20.19
-16.80
-12.56
-7.77
-2.81
1.90
6.08
9.59
12.44
14.61
16.09
16.89
17.08
16.84
16.41
15.99
15.67
15.36
14.92
14.23
13.31
12.26
11.23
10.26
9.27
8.08
6.50
4.48
2.12
-0.34
-2.63
-4.58
-6.16
-7.50
-8.80
-10.25
-11.97
-14.01
-16.28
-18.66
-20.87
-22.59
-23.44
-23.10
-21.47
-18.67
-15.03
-10.93
-6.71
-2.52
1.57
5.51
9.18
12.38
14.88
16.57
17.50
17.83
17.81
17.63
17.37
17.03
16.55
15.87
14.97
13.83
12.47
10.93
9.28
7.61
6.04
4.59
3.20
1.71
-0.01
-2.03
-4.31
-6.68
-8.98
-11.11
-13.06
-14.88
-16.58
-18.10
-19.28
-19.99
-20.13
-19.70
-18.76
-17.34
-15.37
-12.73
-9.32
-5.21
-0.69
3.77
7.68
10.70
12.77
14.10
15.00
15.69
16.22
16.49
16.41
16.00
15.48
15.11
15.07
15.36
15.73
15.85
15.43
14.35
12.66
10.55
8.23
5.82
3.40
0.96
-1.53
-4.13
-6.84
-9.67
-12.56
-15.44
-18.19
-20.67
-22.73
-24.23
-25.04
-25.05
-24.20
-22.55
-20.20
-17.35
-14.20
-10.97
-7.79
-4.78
-1.96
0.67
3.12
5.41
7.53
9.42
10.99
12.17
12.90
13.24
13.36
13.45
13.68
14.06
14.45
14.57
14.15
13.03
11.27
9.08
6.75
4.46
2.24
-0.03
-2.46
-5.04
-7.65
-10.11
-12.36
-14.57
-17.03
-20.01
-23.59
-27.53
-31.36
-34.55
-36.77
-37.88
-37.96
-37.16
-35.55
-33.16
-30.00
-26.17
-21.87
-17.40
-13.03
-8.94
-5.18
-1.70
1.54
4.50
7.05
9.07
10.48
11.38
11.98
12.49
13.07
13.70
14.26
14.56
14.50
14.07
13.32
12.34
11.18
9.87
8.43
6.91
5.36
3.82
2.19
0.36
-1.80
-4.30
-7.02
-9.72
-12.10
-13.88
-14.90
-15.11
-14.62
-13.61
-12.31
-10.91
-9.49
-7.97
-6.12
-3.70
-0.54
3.26
7.38
11.36
14.73
17.20
18.78
19.71
20.38
21.15
22.23
23.54
24.79
25.54
25.38
24.07
21.65
18.45
14.94
11.62
8.81
6.65
5.10
4.00
3.24
2.71
2.30
1.89
1.30
0.34
-1.14
-3.14
-5.58
-8.24
-10.86
-13.17
-14.92
-15.87
-15.81
-14.63
-12.34
-9.14
-5.44
-1.83
1.07
2.77
3.09
2.23
0.70
-0.87
-2.02
-2.52
-2.46
-2.05
-1.43
-0.56
0.72
2.53
4.84
7.39
9.78
11.64
12.80
13.30
13.36
13.12
12.58
11.49
9.50
6.38
2.18
-2.61
-7.25
-10.98
-13.37
-14.44
-14.72
-14.87
-15.42
-16.47
-17.66
-18.45
-18.40
-17.39
-15.73
-13.87
-12.24
-10.97
-9.95
-8.92
-7.74
-6.46
-5.34
-4.63
-4.43
-4.55
-4.65
-4.38
-3.50
-2.04
-0.21
1.69
3.38
4.69
5.58
6.13
6.44
6.64
6.74
6.70
6.41
5.76
4.74
3.46
2.14
1.00
0.15
-0.43
-0.96
-1.72
-2.98
-4.86
-7.31
-10.09
-12.83
-15.10
-16.52
-16.80
-15.83
-13.68
-10.60
-6.94
-3.14
0.35
3.10
4.79
5.29
4.73
3.50
2.11
1.06
0.69
1.07
2.07
3.46
4.99
6.41
7.46
7.92
7.64
6.60
4.95
2.99
1.02
-0.67
-1.86
-2.45
-2.36
-1.67
-0.63
0.24
0.31
-0.95
-3.69
-7.56
-11.74
-15.22
-17.21
-17.36
-15.80
-13.03
-9.62
-6.00
-2.40
1.03
4.12
6.59
8.13
8.57
8.02
6.85
5.57
4.55
3.88
3.40
2.81
1.92
0.71
-0.63
-1.82
-2.66
-3.09
-3.20
-3.18
-3.27
-3.68
-4.51
-5.77
-7.33
-8.95
-10.41
-11.54
-12.29
-12.74
-13.04
-13.29
-13.54
-13.73
-13.73
-13.43
-12.75
-11.70
-10.32
-8.65
-6.67
-4.36
-1.79
0.93
3.59
5.97
7.93
9.46
10.68
11.78
12.96
14.28
15.72
17.09
18.20
18.83
18.83
18.16
16.83
14.96
12.74
10.46
8.42
6.89
5.97
5.57
5.34
4.76
3.33
0.72
-3.13
-7.92
-13.12
-18.02
-22.04
-24.75
-26.00
-25.80
-24.32
-21.73
-18.24
-14.12
-9.70
-5.41
-1.59
1.69
4.63
7.68
11.23
15.30
19.42
22.81
24.72
24.87
23.56
21.48
19.37
17.64
16.24
14.87
13.23
11.25
9.12
7.07
5.19
3.34
1.25
-1.33
-4.39
-7.65
-10.73
-13.27
-15.17
-16.60
-17.92
-19.43
-21.21
-23.00
-24.31
-24.65
-23.69
-21.43
-18.15
-14.24
-10.09
-5.96
-1.97
1.79
5.26
8.36
11.05
13.29
15.09
16.41
17.16
17.22
16.59
15.41
14.02
12.85
12.20
12.15
12.45
12.70
12.53
11.75
10.39
8.63
6.63
4.44
2.01
-0.75
-3.80
-6.95
-9.90
-12.42
-14.36
-15.77
-16.82
-17.58
-18.01
-17.87
-16.83
-14.62
-11.19
-6.71
-1.57
3.80
9.01
13.79
18.00
21.53
24.31
26.26
27.37
27.72
27.50
26.92
26.15
25.23
24.07
22.53
20.56
18.32
16.13
14.37
13.20
12.49
11.86
10.83
9.10
6.70
3.92
1.16
-1.28
-3.37
-5.24
-7.12
-9.15
-11.34
-13.57
-15.70
-17.56
-19.03
-19.95
-20.13
-19.38
-17.52
-14.57
-10.68
-6.17
-1.46
3.10
7.23
10.86
13.96
16.57
18.68
20.27
21.36
22.01
22.31
22.35
22.18
21.75
21.02
19.99
18.75
17.47
16.33
15.43
14.73
14.02
13.07
11.68
9.81
7.60
5.30
3.14
1.24
-0.42
-1.98
-3.62
-5.43
-7.46
-9.71
-12.12
-14.58
-16.85
-18.58
-19.36
-18.88
-17.10
-14.20
-10.64
-6.86
-3.20
0.21
3.37
6.32
9.02
11.32
13.02
14.00
14.30
14.13
13.86
13.81
14.14
14.82
15.62
16.31
16.75
16.95
17.00
16.93
16.70
16.11
14.96
13.19
10.91
8.41
6.03
3.97
2.28
0.84
-0.55
-2.09
-3.88
-5.93
-8.21
-10.62
-13.03
-15.30
-17.22
-18.62
-19.34
-19.29
-18.48
-16.98
-14.91
-12.39
-9.54
-6.50
-3.35
-0.17
3.01
6.08
8.93
11.34
13.09
14.06
14.24
13.80
13.03
12.18
11.38
10.66
10.00
9.39
8.88
8.54
8.36
8.16
7.68
6.66
5.04
2.98
0.81
-1.11
-2.60
-3.70
-4.66
-5.80
-7.35
-9.33
-11.65
-14.10
-16.42
-18.42
-19.94
-20.85
-21.07
-20.54
-19.30
-17.45
-15.18
-12.70
-10.18
-7.72
-5.28
-2.79
-0.16
2.58
5.30
7.74
9.66
10.88
11.40
11.33
10.89
10.28
9.63
8.99
8.34
7.68
7.01
6.33
5.64
4.90
4.03
2.98
1.74
0.35
-1.12
-2.59
-4.03
-5.40
-6.72
-7.97
-9.13
-10.19
-11.16
-12.11
-13.14
-14.28
-15.52
-16.74
-17.74
-18.33
-18.38
-17.85
-16.76
-15.11
-12.89
-10.07
-6.69
-2.92
0.91
4.42
7.28
9.34
10.65
11.39
11.72
11.78
11.62
11.27
10.82
10.40
10.14
10.09
10.21
10.34
10.30
9.96
9.30
8.38
7.28
6.04
4.67
3.12
1.37
-0.58
-2.59
-4.51
-6.13
-7.38
-8.30
-9.13
-10.14
-11.55
-13.38
-15.46
-17.48
-19.17
-20.40
-21.16
-21.45
-21.19
-20.21
-18.35
-15.61
-12.22
-8.53
-4.90
-1.55
1.48
4.23
6.67
8.71
10.21
11.11
11.45
11.42
11.22
11.00
10.75
10.42
9.96
9.41
8.88
8.48
8.25
8.12
7.89
7.43
6.66
5.66
4.58
3.60
2.78
2.05
1.25
0.23
-1.12
-2.78
-4.68
-6.72
-8.82
-10.95
-13.07
-15.12
-16.98
-18.46
-19.34
-19.50
-18.93
-17.75
-16.16
-14.31
-12.25
-9.93
-7.27
-4.35
-1.30
1.61
4.12
6.12
7.59
8.64
9.36
9.80
9.93
9.77
9.39
8.95
8.63
8.55
8.67
8.84
8.87
8.61
8.03
7.23
6.34
5.48
4.65
3.85
3.03
2.16
1.23
0.14
-1.24
-3.03
-5.24
-7.79
-10.40
-12.77
-14.65
-15.90
-16.52
-16.60
-16.22
-15.43
-14.24
-12.68
-10.77
-8.52
-5.98
-3.23
-0.43
2.19
4.44
6.16
7.34
8.10
8.58
8.88
9.04
9.03
8.80
8.34
7.74
7.10
6.53
6.03
5.55
4.97
4.22
3.24
2.10
0.90
-0.25
-1.30
-2.27
-3.26
-4.38
-5.65
-7.06
-8.53
-10.06
-11.69
-13.49
-15.49
-17.54
-19.35
-20.51
-20.74
-19.91
-18.15
-15.75
-13.01
-10.18
-7.38
-4.67
-2.08
0.33
2.50
4.41
6.01
7.34
8.38
9.15
9.64
9.89
9.92
9.75
9.38
8.74
7.83
6.70
5.47
4.30
3.29
2.43
1.60
0.62
-0.65
-2.23
-4.02
-5.89
-7.71
-9.41
-10.99
-12.48
-13.91
-15.28
-16.61
-17.92
-19.21
-20.45
-21.56
-22.35
-22.65
-22.30
-21.22
-19.45
-17.03
-14.08
-10.70
-7.02
-3.24
0.42
3.75
6.60
8.90
10.69
12.06
13.10
13.88
14.45
14.84
15.04
15.05
14.85
14.43
13.78
12.94
11.95
10.82
9.58
8.21
6.70
5.06
3.33
1.54
-0.27
-2.10
-3.93
-5.87
-7.96
-10.29
-12.86
-15.61
-18.40
-20.99
-23.08
-24.42
-24.82
-24.20
-22.67
-20.38
-17.53
-14.23
-10.56
-6.58
-2.36
1.92
6.02
9.74
12.91
15.49
17.52
19.06
20.10
20.63
20.68
20.35
19.83
19.33
18.98
18.80
18.68
18.43
17.85
16.79
15.21
13.14
10.76
8.31
6.01
4.07
2.51
1.22
-0.02
-1.46
-3.29
-5.58
-8.29
-11.24
-14.22
-16.97
-19.20
-20.64
-21.07
-20.35
-18.50
-15.72
-12.34
-8.77
-5.30
-2.10
0.85
3.66
6.45
9.21
11.79
13.99
15.66
16.75
17.33
17.51
17.45
17.23
16.91
16.56
16.19
15.82
15.44
14.96
14.28
13.26
11.79
9.90
7.69
5.42
3.39
1.81
0.72
-0.07
-0.86
-2.01
-3.73
-6.04
-8.76
-11.61
-14.27
-16.44
-17.95
-18.67
-18.55
-17.61
-15.89
-13.50
-10.59
-7.32
-3.89
-0.44
2.92
6.15
9.22
12.07
14.59
16.60
17.93
18.54
18.49
18.01
17.35
16.72
16.21
15.78
15.32
14.77
14.07
13.28
12.45
11.63
10.83
10.00
9.06
7.94
6.62
5.14
3.58
2.05
0.62
-0.69
-1.97
-3.35
-4.97
-6.87
-8.99
-11.12
-12.99
-14.31
-14.92
-14.73
-13.82
-12.31
-10.34
-8.01
-5.40
-2.60
0.31
3.20
5.94
8.38
10.42
11.98
13.03
13.59
13.75
13.61
13.29
12.87
12.42
11.95
11.43
10.86
10.23
9.55
8.84
8.07
7.18
6.11
4.82
3.39
1.94
0.60
-0.52
-1.43
-2.23
-3.07
-4.10
-5.42
-7.03
-8.90
-10.89
-12.82
-14.47
-15.59
-15.99
-15.60
-14.49
-12.84
-10.87
-8.76
-6.57
-4.31
-2.00
0.27
2.34
4.04
5.24
5.97
6.39
6.74
7.18
7.72
8.25
8.60
8.63
8.31
7.72
6.96
6.15
5.39
4.72
4.13
3.58
3.02
2.37
1.58
0.60
-0.58
-1.96
-3.52
-5.27
-7.19
-9.29
-11.51
-13.77
-15.92
-17.79
-19.18
-19.92
-19.91
-19.14
-17.70
-15.69
-13.22
-10.39
-7.25
-3.93
-0.63
2.40
4.92
6.81
8.05
8.82
9.31
9.71
10.10
10.44
10.66
10.69
10.47
10.01
9.35
8.52
7.57
6.55
5.52
4.55
3.67
2.82
1.90
0.77
-0.64
-2.28
-4.02
-5.72
-7.38
-9.12
-11.15
-13.55
-16.17
-18.61
-20.40
-21.20
-20.97
-19.92
-18.42
-16.71
-14.87
-12.78
-10.29
-7.35
-4.03
-0.56
2.83
5.95
8.65
10.85
12.50
13.61
14.21
14.40
14.27
13.89
13.31
12.57
11.72
10.84
10.05
9.41
8.87
8.31
7.55
6.43
4.93
3.15
1.26
-0.56
-2.22
-3.78
-5.38
-7.18
-9.28
-11.64
-14.12
-16.47
-18.46
-19.85
-20.52
-20.41
-19.52
-17.91
-15.61
-12.70
-9.29
-5.57
-1.74
1.92
5.21
7.98
10.17
11.78
12.86
13.49
13.78
13.86
13.82
13.76
13.70
13.61
13.44
13.13
12.66
12.02
11.26
10.40
9.41
8.25
6.85
5.16
3.19
1.04
-1.18
-3.31
-5.26
-7.00
-8.58
-10.09
-11.60
-13.16
-14.75
-16.30
-17.66
-18.68
-19.20
-19.09
-18.35
-16.96
-14.95
-12.35
-9.18
-5.53
-1.65
2.14
5.48
8.07
9.86
10.98
11.75
12.47
13.31
14.24
15.07
15.60
15.67
15.31
14.67
13.93
13.19
12.49
11.74
10.86
9.85
8.73
7.54
6.25
4.77
3.00
0.97
-1.17
-3.18
-4.87
-6.23
-7.46
-8.86
-10.71
-13.08
-15.86
-18.72
-21.22
-22.97
-23.70
-23.30
-21.88
-19.63
-16.84
-13.76
-10.54
-7.24
-3.90
-0.52
2.81
5.94
8.70
10.94
12.59
13.61
14.01
13.85
13.20
12.21
11.10
10.10
9.41
9.13
9.19
9.34
9.23
8.55
7.15
5.14
2.90
0.87
-0.62
-1.52
-2.07
-2.66
-3.63
-5.12
-7.07
-9.30
-11.71
-14.22
-16.76
-19.15
-21.04
-22.04
-21.92
-20.72
-18.73
-16.34
-13.87
-11.41
-8.85
-6.05
-2.96
0.27
3.36
6.01
8.00
9.27
9.92
10.14
10.12
10.04
9.98
10.00
10.09
10.23
10.35
10.33
10.05
9.43
8.43
7.12
5.62
4.11
2.73
1.53
0.48
-0.58
-1.88
-3.62
-5.89
-8.65
-11.73
-14.90
-17.92
-20.59
-22.73
-24.15
-24.71
-24.32
-22.99
-20.81
-17.97
-14.61
-10.89
-6.89
-2.72
1.49
5.57
9.28
12.36
14.59
15.87
16.28
16.07
15.57
15.09
14.79
14.62
14.46
14.17
13.71
13.09
12.35
11.53
10.55
9.36
7.95
6.38
4.76
3.21
1.76
0.41
-0.92
-2.32
-3.85
-5.62
-7.70
-10.08
-12.68
-15.28
-17.53
-19.07
-19.66
-19.23
-17.93
-16.00
-13.68
-11.07
-8.12
-4.72
-0.88
3.20
7.15
10.58
13.19
14.96
16.08
16.87
17.58
18.27
18.84
19.10
18.92
18.31
17.37
16.26
15.10
13.89
12.56
11.05
9.35
7.53
5.70
4.00
2.51
1.22
0.03
-1.26
-2.86
-4.85
-7.21
-9.74
-12.19
-14.34
-16.06
-17.30
-18.05
-18.27
-17.89
-16.80
-14.98
-12.48
-9.44
-6.04
-2.45
1.12
4.46
7.35
9.62
11.19
12.16
12.68
12.97
13.13
13.21
13.19
13.08
12.89
12.67
12.41
12.07
11.56
10.79
9.81
8.68
7.51
6.39
5.32
4.25
3.09
1.79
0.32
-1.32
-3.11
-5.12
-7.41
-10.05
-12.96
-15.91
-18.52
-20.37
-21.18
-20.87
-19.58
-17.53
-14.88
-11.71
-8.06
-4.03
0.15
4.13
7.56
10.21
12.02
13.15
13.82
14.24
14.53
14.71
14.76
14.69
14.51
14.26
13.96
13.58
13.07
12.38
11.49
10.42
9.22
7.91
6.51
5.03
3.48
1.90
0.30
-1.40
-3.28
-5.44
-7.88
-10.51
-13.16
-15.69
-17.98
-20.01
-21.72
-23.00
-23.68
-23.56
-22.52
-20.56
-17.77
-14.33
-10.44
-6.31
-2.15
1.80
5.30
8.14
10.24
11.63
12.47
12.95
13.25
13.48
13.72
13.96
14.14
14.18
14.00
13.59
12.99
12.26
11.47
10.58
9.49
8.07
6.25
4.07
1.66
-0.85
-3.36
-5.87
-8.40
-10.97
-13.54
-16.05
-18.42
-20.58
-22.43
-23.82
-24.56
-24.48
-23.46
-21.54
-18.84
-15.49
-11.59
-7.20
-2.45
2.45
7.14
11.28
14.55
16.87
18.30
19.08
19.49
19.78
20.08
20.37
20.58
20.54
20.16
19.39
18.32
17.07
15.73
14.36
12.96
11.51
10.02
8.56
7.15
5.78
4.31
2.61
0.60
-1.63
-3.91
-6.02
-7.87
-9.56
-11.33
-13.42
-15.89
-18.51
-20.82
-22.37
-22.85
-22.21
-20.55
-18.00
-14.64
-10.53
-5.78
-0.73
4.16
8.51
12.14
15.15
17.84
20.41
22.88
25.04
26.63
27.52
27.75
27.52
26.98
26.19
25.14
23.75
22.05
20.18
18.25
16.32
14.29
11.97
9.20
5.99
2.58
-0.62
-3.19
-4.91
-5.85
-6.33
-6.83
-7.79
-9.53
-12.09
-15.35
-19.04
-22.78
-26.18
-28.82
-30.39
-30.67
-29.64
-27.40
-24.12
-20.01
-15.23
-9.96
-4.42
1.05
6.12
10.41
13.75
16.10
17.57
18.38
18.68
18.61
18.24
17.66
16.99
16.29
15.55
14.70
13.62
12.22
10.47
8.47
6.34
4.26
2.34
0.66
-0.78
-2.08
-3.39
-4.95
-6.94
-9.42
-12.34
-15.47
-18.57
-21.44
-24.03
-26.36
-28.51
-30.45
-32.06
-33.11
-33.29
-32.35
-30.10
-26.51
-21.69
-15.86
-9.40
-2.79
3.45
8.80
12.89
15.58
17.02
17.55
17.59
17.50
17.47
17.48
17.44
17.22
16.78
16.15
15.39
14.47
13.32
11.81
9.86
7.52
4.97
2.50
0.36
-1.30
-2.55
-3.54
-4.52
-5.67
-7.05
-8.59
-10.17
-11.64
-12.89
-13.88
-14.60
-15.06
-15.24
-15.12
-14.66
-13.83
-12.63
-11.05
-9.08
-6.73
-3.95
-0.77
2.74
6.38
9.86
12.87
15.17
16.71
17.54
17.82
17.74
17.44
17.00
16.45
15.81
15.11
14.38
13.60
12.77
11.84
10.79
9.59
8.24
6.71
5.04
3.29
1.54
-0.12
-1.64
-3.04
-4.39
-5.76
-7.19
-8.69
-10.30
-12.03
-13.86
-15.73
-17.41
-18.59
-18.94
-18.23
-16.40
-13.68
-10.44
-7.08
-3.96
-1.26
1.01
2.96
4.71
6.33
7.82
9.07
9.97
10.46
10.56
10.35
9.95
9.52
9.14
8.88
8.76
8.73
8.73
8.63
8.28
7.57
6.43
4.86
2.93
0.76
-1.46
-3.57
-5.47
-7.19
-8.88
-10.74
-12.94
-15.48
-18.19
-20.70
-22.61
-23.59
-23.44
-22.17
-19.96
-17.14
-14.03
-10.90
-7.92
-5.14
-2.55
-0.12
2.14
4.17
5.95
7.45
8.70
9.72
10.50
10.97
11.03
10.61
9.74
8.56
7.33
6.28
5.53
5.07
4.70
4.21
3.37
2.06
0.26
-1.93
-4.35
-6.81
-9.21
-11.47
-13.60
-15.57
-17.40
-19.07
-20.57
-21.90
-22.97
-23.65
-23.75
-23.03
-21.39
-18.88
-15.75
-12.38
-9.09
-6.03
-3.15
-0.28
2.74
5.95
9.22
12.26
14.77
16.54
17.53
17.84
17.65
17.12
16.33
15.32
14.11
12.78
11.39
10.02
8.63
7.16
5.55
3.78
1.95
0.18
-1.47
-3.04
-4.71
-6.67
-9.02
-11.75
-14.74
-17.79
-20.67
-23.13
-24.91
-25.71
-25.35
-23.80
-21.22
-17.96
-14.35
-10.62
-6.83
-2.91
1.19
5.41
9.50
13.14
16.04
18.09
19.30
19.88
20.04
19.93
19.58
18.95
17.95
16.57
14.93
13.21
11.61
10.25
9.07
7.89
6.46
4.63
2.40
-0.03
-2.37
-4.40
-6.10
-7.67
-9.44
-11.69
-14.46
-17.53
-20.47
-22.87
-24.44
-25.09
-24.88
-23.87
-22.04
-19.37
-15.87
-11.69
-7.11
-2.48
1.91
5.88
9.33
12.26
14.65
16.51
17.87
18.78
19.30
19.50
19.40
19.01
18.32
17.42
16.40
15.39
14.46
13.59
12.68
11.58
10.17
8.44
6.45
4.36
2.29
0.35
-1.45
-3.15
-4.84
-6.64
-8.71
-11.19
-14.11
-17.36
-20.61
-23.43
-25.38
-26.22
-25.95
-24.73
-22.80
-20.31
-17.27
-13.62
-9.38
-4.70
0.05
4.49
8.32
11.44
13.92
15.94
17.55
18.73
19.37
19.47
19.10
18.54
18.01
17.68
17.56
17.51
17.33
16.84
15.92
14.52
12.66
10.43
7.97
5.48
3.13
1.00
-0.96
-2.94
-5.14
-7.71
-10.67
-13.88
-17.12
-20.11
-22.63
-24.53
-25.72
-26.15
-25.79
-24.68
-22.90
-20.54
-17.68
-14.31
-10.41
-5.97
-1.13
3.83
8.50
12.51
15.59
17.66
18.84
19.31
19.34
19.19
19.05
19.03
19.16
19.32
19.30
18.90
18.00
16.66
14.98
13.12
11.19
9.21
7.24
5.33
3.56
1.96
0.48
-1.06
-2.88
-5.13
-7.79
-10.74
-13.72
-16.50
-18.98
-21.08
-22.79
-24.04
-24.70
-24.55
-23.46
-21.38
-18.45
-14.93
-11.09
-7.08
-2.96
1.29
5.58
9.67
13.20
15.82
17.40
18.08
18.24
18.26
18.36
18.54
18.59
18.31
17.58
16.47
15.13
13.69
12.17
10.51
8.61
6.42
4.02
1.54
-0.80
-2.82
-4.46
-5.83
-7.10
-8.50
-10.17
-12.13
-14.28
-16.47
-18.53
-20.36
-21.84
-22.86
-23.24
-22.81
-21.42
-19.05
-15.78
-11.80
-7.39
-2.81
1.73
6.06
10.06
13.62
16.63
19.03
20.78
21.95
22.70
23.19
23.52
23.71
23.68
23.29
22.50
21.34
19.90
18.32
16.69
15.05
13.38
11.68
9.93
8.12
6.24
4.30
2.29
0.25
-1.79
-3.79
-5.79
-7.88
-10.16
-12.72
-15.53
-18.44
-21.20
-23.50
-25.07
-25.73
-25.45
-24.27
-22.31
-19.69
-16.47
-12.72
-8.48
-3.88
0.87
5.52
9.80
13.49
16.45
18.64
20.06
20.74
20.73
20.13
19.12
17.94
16.84
15.97
15.30
14.68
13.88
12.77
11.38
9.85
8.36
6.95
5.53
3.92
2.04
-0.06
-2.17
-4.07
-5.69
-7.20
-8.91
-11.11
-13.91
-17.14
-20.42
-23.32
-25.47
-26.66
-26.86
-26.14
-24.59
-22.32
-19.45
-16.05
-12.21
-8.03
-3.64
0.75
4.84
8.28
10.81
12.35
13.02
13.12
12.93
12.65
12.30
11.86
11.30
10.71
10.25
10.06
10.13
10.28
10.28
9.91
9.08
7.85
6.35
4.67
2.88
0.98
-1.04
-3.19
-5.49
-8.00
-10.75
-13.74
-16.85
-19.86
-22.50
-24.56
-25.97
-26.80
-27.17
-27.13
-26.55
-25.22
-22.88
-19.41
-14.92
-9.71
-4.24
0.97
5.51
9.10
11.70
13.43
14.53
15.27
15.83
16.26
16.51
16.47
16.04
15.21
14.03
12.64
11.27
10.11
9.30
8.85
8.57
8.19
7.41
6.07
4.18
1.89
-0.61
-3.16
-5.69
-8.14
-10.42
-12.45
-14.20
-15.81
-17.55
-19.65
-22.19
-24.87
-27.17
-28.45
-28.27
-26.52
-23.45
-19.46
-14.97
-10.28
-5.59
-1.08
3.04
6.58
9.39
11.44
12.82
13.73
14.36
14.88
15.30
15.60
15.69
15.47
14.90
14.03
12.95
11.79
10.67
9.59
8.51
7.31
5.89
4.23
2.37
0.44
-1.40
-3.06
-4.54
-5.98
-7.57
-9.52
-11.86
-14.51
-17.22
-19.73
-21.84
-23.42
-24.38
-24.61
-23.99
-22.34
-19.62
-15.92
-11.52
-6.79
-2.11
2.27
6.22
9.66
12.58
14.92
16.67
17.81
18.42
18.67
18.70
18.63
18.47
18.18
17.72
17.06
16.29
15.49
14.72
13.94
13.04
11.86
10.29
8.35
6.11
3.74
1.36
-0.96
-3.23
-5.53
-7.96
-10.69
-13.78
-17.23
-20.83
-24.22
-26.90
-28.46
-28.67
-27.55
-25.31
-22.25
-18.63
-14.65
-10.46
-6.18
-1.95
2.12
5.93
9.39
12.44
15.00
16.99
18.39
19.22
19.57
19.55
19.27
18.87
18.48
18.17
17.92
17.64
17.13
16.19
14.73
12.73
10.25
7.41
4.33
1.15
-1.94
-4.70
-6.97
-8.72
-10.08
-11.31
-12.68
-14.36
-16.41
-18.72
-21.07
-23.17
-24.69
-25.34
-24.89
-23.25
-20.47
-16.71
-12.22
-7.31
-2.31
2.43
6.56
9.87
12.29
13.93
15.01
15.76
16.33
16.71
16.87
16.79
16.48
16.04
15.52
14.95
14.24
13.33
12.16
10.76
9.21
7.61
5.99
4.36
2.68
0.89
-1.03
-3.08
-5.31
-7.75
-10.39
-13.20
-16.08
-18.87
-21.40
-23.56
-25.29
-26.55
-27.29
-27.38
-26.61
-24.82
-21.93
-18.02
-13.36
-8.30
-3.21
1.62
5.97
9.72
12.82
15.23
17.00
18.22
19.01
19.53
19.90
20.18
20.33
20.29
19.98
19.33
18.36
17.13
15.71
14.19
12.61
11.00
9.35
7.67
5.92
4.09
2.13
0.00
-2.31
-4.83
-7.55
-10.45
-13.47
-16.51
-19.43
-22.04
-24.17
-25.69
-26.51
-26.57
-25.82
-24.20
-21.69
-18.29
-14.11
-9.34
-4.27
0.75
5.37
9.25
12.19
14.14
15.25
15.76
15.97
16.11
16.23
16.28
16.12
15.68
14.96
14.01
12.96
11.87
10.79
9.74
8.71
7.70
6.70
5.66
4.53
3.23
1.69
-0.11
-2.18
-4.49
-7.04
-9.79
-12.71
-15.68
-18.55
-21.06
-22.99
-24.13
-24.32
-23.56
-21.87
-19.37
-16.16
-12.36
-8.13
-3.63
0.85
5.06
8.73
11.72
14.02
15.75
17.07
18.14
19.04
19.73
20.14
20.21
19.94
19.35
18.44
17.22
15.66
13.80
11.76
9.67
7.68
5.81
4.01
2.16
0.19
-1.93
-4.16
-6.48
-8.94
-11.59
-14.46
-17.47
-20.36
-22.82
-24.59
-25.50
-25.56
-24.87
-23.50
-21.48
-18.75
-15.32
-11.22
-6.66
-1.91
2.74
7.03
10.78
13.89
16.32
18.07
19.18
19.73
19.84
19.68
19.44
19.22
19.09
19.00
18.86
18.56
18.02
17.16
15.95
14.35
12.33
9.90
7.15
4.23
1.35
-1.31
-3.69
-5.83
-7.91
-10.12
-12.65
-15.55
-18.77
-22.15
-25.37
-28.09
-29.91
-30.54
-29.79
-27.71
-24.50
-20.43
-15.78
-10.76
-5.56
-0.36
4.57
8.98
12.69
15.60
17.84
19.53
20.82
21.73
22.22
22.23
21.81
21.07
20.18
19.24
18.26
17.15
15.81
14.20
12.40
10.54
8.74
7.04
5.41
3.73
1.90
-0.14
-2.40
-4.80
-7.30
-9.88
-12.56
-15.33
-18.18
-20.94
-23.38
-25.19
-26.07
-25.86
-24.51
-22.13
-18.89
-14.98
-10.56
-5.75
-0.73
4.27
8.94
13.05
16.45
19.13
21.22
22.85
24.07
24.84
25.11
24.87
24.21
23.29
22.27
21.21
20.09
18.84
17.36
15.59
13.51
11.16
8.61
6.01
3.53
1.33
-0.57
-2.32
-4.16
-6.36
-9.04
-12.10
-15.25
-18.17
-20.60
-22.41
-23.58
-24.12
-24.04
-23.27
-21.78
-19.57
-16.66
-13.15
-9.17
-4.87
-0.43
3.98
8.15
11.86
14.86
16.99
18.16
18.48
18.22
17.71
17.21
16.86
16.63
16.37
15.95
15.31
14.46
13.43
12.23
10.82
9.20
7.47
5.75
4.18
2.81
1.52
0.06
-1.78
-4.13
-6.93
-10.08
-13.41
-16.74
-19.88
-22.60
-24.60
-25.66
-25.67
-24.72
-22.97
-20.60
-17.67
-14.17
-10.06
-5.43
-0.60
4.03
8.06
11.26
13.63
15.35
16.64
17.61
18.32
18.71
18.72
18.37
17.73
16.94
16.08
15.14
14.06
12.75
11.19
9.45
7.70
6.07
4.63
3.32
2.00
0.48
-1.32
-3.42
-5.76
-8.24
-10.81
-13.43
-16.10
-18.81
-21.47
-23.91
-25.85
-27.01
-27.17
-26.22
-24.20
-21.22
-17.45
-13.08
-8.29
-3.34
1.47
5.82
9.43
12.20
14.17
15.56
16.63
17.57
18.48
19.34
20.05
20.48
20.51
20.10
19.28
18.19
16.96
15.71
14.48
13.21
11.78
10.07
8.03
5.67
3.09
0.37
-2.43
-5.29
-8.16
-11.02
-13.80
-16.49
-19.06
-21.50
-23.75
-25.71
-27.24
-28.16
-28.30
-27.53
-25.76
-22.98
-19.29
-14.87
-10.00
-5.00
-0.16
4.28
8.20
11.52
14.26
16.43
18.09
19.31
20.17
20.68
20.86
20.68
20.16
19.35
18.35
17.29
16.26
15.30
14.37
13.35
12.08
10.46
8.45
6.17
3.77
1.43
-0.77
-2.84
-4.91
-7.14
-9.65
-12.48
-15.55
-18.71
-21.73
-24.33
-26.27
-27.32
-27.34
-26.27
-24.08
-20.87
-16.80
-12.18
-7.35
-2.72
1.46
5.04
8.06
10.57
12.63
14.24
15.32
15.90
16.00
15.76
15.32
14.83
14.38
14.00
13.72
13.47
13.19
12.80
12.21
11.37
10.22
8.71
6.79
4.48
1.91
-0.65
-2.91
-4.69
-6.03
-7.23
-8.67
-10.72
-13.50
-16.85
-20.37
-23.55
-25.95
-27.29
-27.56
-26.86
-25.38
-23.25
-20.51
-17.15
-13.19
-8.72
-3.95
0.76
5.05
8.63
11.34
13.22
14.39
14.99
15.12
14.81
14.08
13.07
11.99
11.09
10.55
10.32
10.12
9.57
8.39
6.52
4.23
1.90
-0.13
-1.71
-2.94
-4.03
-5.21
-6.58
-8.16
-9.92
-11.90
-14.20
-16.85
-19.76
-22.63
-25.03
-26.56
-26.97
-26.23
-24.53
-22.16
-19.39
-16.35
-13.00
-9.23
-4.89
0.05
5.37
10.71
15.56
19.49
22.28
24.04
25.09
25.84
26.59
27.41
28.17
28.64
28.65
28.21
27.47
26.62
25.72
24.68
23.23
21.13
18.24
14.64
10.56
6.30
2.07
-2.02
-5.97
-9.87
-13.75
-17.65
-21.58
-25.58
-29.72
-34.04
-38.43
-42.57
-45.87
-47.64
-47.30
-44.63
-39.90
-33.80
-27.19
-20.77
-14.87
-9.51
-4.55
0.10
4.32
7.88
10.57
12.34
13.36
13.92
14.35
14.81
15.31
15.72
15.85
15.58
14.89
13.85
12.60
11.26
9.88
8.49
7.01
5.41
3.68
1.89
0.13
-1.54
-3.12
-4.75
-6.61
-8.87
-11.62
-14.77
-18.11
-21.34
-24.19
-26.43
-27.92
-28.59
-28.35
-27.17
-25.04
-22.09
-18.49
-14.51
-10.37
-6.24
-2.25
1.51
4.94
7.95
10.49
12.51
14.02
15.08
15.70
15.93
15.86
15.54
15.09
14.59
14.08
13.54
12.88
11.95
10.60
8.75
6.38
3.60
0.65
-2.18
-4.60
-6.46
-7.82
-8.98
-10.34
-12.32
-15.10
-18.59
-22.43
-26.04
-28.85
-30.42
-30.54
-29.23
-26.70
-23.25
-19.20
-14.83
-10.37
-5.98
-1.78
2.19
5.90
9.31
12.37
15.00
17.13
18.74
19.81
20.35
20.38
19.89
18.94
17.63
16.20
14.92
14.00
13.45
13.11
12.61
11.61
9.96
7.78
5.42
3.26
1.55
0.25
-0.94
-2.40
-4.41
-6.99
-9.98
-13.09
-16.14
-19.00
-21.60
-23.74
-25.10
-25.29
-24.02
-21.29
-17.43
-12.96
-8.39
-3.97
0.26
4.43
8.64
12.80
16.64
19.83
22.11
23.44
23.97
23.97
23.72
23.38
22.99
22.56
22.04
21.42
20.66
19.71
18.45
16.82
14.79
12.54
10.29
8.22
6.41
4.77
3.14
1.39
-0.56
-2.74
-5.17
-7.95
-11.17
-14.85
-18.80
-22.65
-25.88
-28.02
-28.80
-28.18
-26.36
-23.63
-20.28
-16.52
-12.50
-8.30
-4.01
0.25
4.33
8.08
11.41
14.25
16.53
18.17
19.07
19.20
18.67
17.76
16.84
16.24
16.12
16.39
16.80
17.02
16.78
15.96
14.54
12.59
10.20
7.48
4.57
1.62
-1.19
-3.72
-5.97
-8.06
-10.21
-12.64
-15.46
-18.60
-21.81
-24.67
-26.79
-27.87
-27.79
-26.59
-24.43
-21.49
-17.89
-13.73
-9.11
-4.14
1.00
6.06
10.75
14.78
17.92
20.03
21.15
21.48
21.33
20.99
20.63
20.32
19.98
19.53
18.93
18.20
17.36
16.38
15.17
13.59
11.61
9.31
6.93
4.73
2.88
1.38
0.05
-1.35
-3.00
-4.95
-7.14
-9.47
-11.87
-14.35
-16.93
-19.55
-21.99
-23.91
-24.96
-24.89
-23.66
-21.39
-18.27
-14.50
-10.19
-5.44
-0.40
4.66
9.38
13.38
16.41
18.42
19.53
20.04
20.25
20.39
20.59
20.85
21.06
21.07
20.78
20.14
19.23
18.16
17.08
16.05
15.05
14.01
12.80
11.35
9.59
7.49
5.04
2.28
-0.68
-3.68
-6.51
-9.02
-11.19
-13.10
-14.88
-16.59
-18.17
-19.40
-19.98
-19.64
-18.16
-15.46
-11.60
-6.81
-1.48
3.83
8.55
12.22
14.63
15.94
16.56
16.99
17.57
18.41
19.31
19.94
20.02
19.41
18.23
16.72
15.15
13.72
12.50
11.48
10.53
9.51
8.29
6.74
4.83
2.60
0.16
-2.30
-4.56
-6.50
-8.09
-9.44
-10.76
-12.30
-14.20
-16.44
-18.78
-20.84
-22.25
-22.76
-22.26
-20.78
-18.40
-15.15
-11.10
-6.40
-1.36
3.49
7.60
10.51
12.10
12.61
12.50
12.28
12.27
12.51
12.87
13.11
13.06
12.65
11.84
10.61
8.91
6.73
4.15
1.41
-1.13
-3.10
-4.25
-4.54
-4.21
-3.68
-3.40
-3.72
-4.79
-6.55
-8.76
-11.16
-13.54
-15.75
-17.67
-19.19
-20.15
-20.39
-19.78
-18.24
-15.81
-12.59
-8.76
-4.55
-0.18
4.18
8.39
12.34
15.87
18.77
20.84
21.93
22.07
21.45
20.35
19.03
17.62
16.11
14.39
12.40
10.15
7.72
5.20
2.66
0.10
-2.49
-5.10
-7.66
-10.09
-12.34
-14.40
-16.36
-18.33
-20.43
-22.72
-25.12
-27.40
-29.21
-30.20
-30.08
-28.73
-26.20
-22.75
-18.68
-14.25
-9.70
-5.16
-0.75
3.39
7.10
10.19
12.54
14.10
14.98
15.33
15.33
15.12
14.74
14.23
13.60
12.88
12.14
11.38
10.59
9.71
8.63
7.28
5.64
3.76
1.74
-0.34
-2.42
-4.48
-6.60
-8.86
-11.35
-14.09
-17.02
-20.00
-22.77
-25.04
-26.55
-27.05
-26.45
-24.73
-21.98
-18.39
-14.19
-9.59
-4.82
-0.10
4.35
8.30
11.57
14.03
15.68
16.61
16.99
16.96
16.64
16.10
15.38
14.55
13.62
12.57
11.34
9.79
7.85
5.53
3.01
0.49
-1.77
-3.66
-5.20
-6.52
-7.83
-9.26
-10.91
-12.77
-14.85
-17.09
-19.43
-21.75
-23.88
-25.57
-26.54
-26.56
-25.44
-23.17
-19.79
-15.52
-10.62
-5.43
-0.30
4.46
8.57
11.82
14.11
15.44
15.93
15.79
15.32
14.80
14.41
14.20
14.06
13.81
13.21
12.10
10.44
8.35
6.04
3.80
1.83
0.21
-1.14
-2.42
-3.83
-5.56
-7.64
-10.01
-12.56
-15.17
-17.72
-20.11
-22.16
-23.64
-24.32
-23.99
-22.59
-20.18
-16.94
-13.14
-8.99
-4.66
-0.26
4.11
8.30
12.09
15.23
17.50
18.79
19.22
19.02
18.51
17.97
17.55
17.27
17.05
16.77
16.34
15.68
14.77
13.57
12.06
10.24
8.13
5.82
3.42
1.05
-1.17
-3.20
-5.10
-7.02
-9.16
-11.62
-14.39
-17.28
-19.94
-22.02
-23.24
-23.48
-22.73
-21.09
-18.67
-15.54
-11.79
-7.51
-2.91
1.76
6.19
10.08
13.22
15.49
16.85
17.35
17.09
16.23
14.99
13.67
12.56
11.88
11.69
11.81
11.87
11.44
10.20
8.14
5.49
2.73
0.29
-1.56
-2.90
-4.01
-5.28
-6.98
-9.21
-11.90
-14.91
-18.03
-21.05
-23.71
-25.73
-26.82
-26.80
-25.68
-23.59
-20.77
-17.44
-13.74
-9.77
-5.62
-1.40
2.69
6.40
9.50
11.81
13.23
13.80
13.68
13.15
12.52
12.05
11.91
12.08
12.45
12.85
13.11
13.12
12.78
12.01
10.81
9.23
7.45
5.66
4.02
2.53
0.98
-0.88
-3.30
-6.37
-10.00
-13.91
-17.75
-21.14
-23.74
-25.27
-25.54
-24.52
-22.33
-19.18
-15.35
-11.06
-6.50
-1.87
2.65
6.80
10.31
12.97
14.68
15.48
15.56
15.20
14.78
14.66
15.07
16.07
17.51
19.11
20.59
21.76
22.56
23.00
23.09
22.79
21.99
20.61
18.60
16.03
13.08
9.97
6.91
4.00
1.20
-1.61
-4.58
-7.70
-10.77
-13.37
-14.99
-15.25
-13.97
-11.30
-7.59
-3.25
1.34
5.97
10.48
14.78
18.75
22.24
25.17
27.53
29.41
30.96
32.34
33.66
35.02
36.43
37.88
39.41
41.00
42.66
44.41
46.27
48.34
50.75
53.61
56.84
60.18
63.22
65.60
67.23
68.43
69.89
72.37
76.42
82.07
88.77
95.38
100.35
102.12
99.44
91.96
80.48
66.99
54.24
44.98
41.13
43.06
49.39
57.36
63.71
65.74
62.21
53.70
42.19
30.11
19.25
10.14
2.13
-5.90
-14.64
-23.80
-32.14
-38.13
-40.68
-39.74
-36.39
-32.51
-30.18
-31.05
-35.95
-44.68
-56.25
-69.23
-82.17
-93.84
-103.35
-110.06
-113.59
-113.87
-111.26
-106.52
-100.67
-94.63
-88.96
-83.80
-78.90
-73.87
-68.37
-62.19
-55.35
-48.12
-40.97
-34.45
-29.01
-24.79
-21.60
-19.09
-16.93
-15.09
-13.75
-13.11
-13.13
-13.41
-13.30
-12.23
-10.04
-7.10
-4.19
-2.26
-1.96
-3.52
-6.69
-10.88
-15.41
-19.69
-23.34
-26.15
-28.10
-29.25
-29.78
-29.85
-29.56
-28.84
-27.40
-24.85
-20.86
-15.44
-9.02
-2.32
4.01
9.69
15.00
20.52
26.55
32.71
37.73
39.87
37.65
30.53
19.26
5.60
-8.33
-20.82
-30.90
-38.34
-43.32
-45.98
-46.33
-44.38
-40.36
-34.98
-29.28
-24.24
-20.34
-17.39
-14.70
-11.70
-8.37
-5.43
-4.04
-5.12
-8.78
-14.34
-20.60
-26.57
-31.90
-36.79
-41.57
-46.11
-49.64
-50.92
-48.95
-43.42
-34.96
-24.87
-14.56
-5.14
2.89
9.51
15.01
19.72
23.86
27.45
30.25
31.83
31.66
29.37
24.96
19.01
12.62
6.98
2.97
0.66
-0.67
-2.17
-4.88
-9.19
-14.77
-20.80
-26.46
-31.32
-35.42
-39.01
-42.17
-44.62
-45.69
-44.62
-40.85
-34.29
-25.38
-15.15
-5.04
3.32
8.62
10.42
9.60
8.26
9.01
14.03
24.07
38.22
54.40
70.21
83.71
93.64
99.22
99.81
94.98
84.91
70.88
55.29
41.16
31.08
26.28
26.15
28.66
31.21
31.59
28.69
22.65
14.52
5.71
-2.66
-9.98
-16.41
-22.63
-29.56
-38.00
-48.31
-60.29
-73.21
-86.00
-97.50
-106.70
-112.88
-115.57
-114.59
-110.06
-102.56
-93.12
-83.00
-73.30
-64.45
-56.08
-47.26
-37.09
-25.32
-12.41
0.76
13.43
25.42
36.75
47.10
55.08
58.33
54.38
42.13
22.83
0.11
-21.27
-37.23
-45.87
-47.89
-45.95
-43.37
-42.84
-45.70
-51.85
-60.05
-68.55
-75.70
-80.53
-83.14
-84.66
-86.84
-91.22
-98.41
-107.88
-118.28
-128.18
-136.63
-143.28
-148.13
-151.04
-151.63
-149.49
-144.64
-137.78
-130.03
-122.37
-115.01
-107.11
-97.15
-83.73
-66.36
-45.87
-23.98
-2.71
16.46
32.89
46.74
58.62
69.18
78.83
87.69
95.54
101.90
106.10
107.50
105.69
100.71
93.05
83.51
72.97
62.19
51.69
41.77
32.56
24.04
16.17
8.95
2.52
-2.78
-6.46
-8.10
-7.41
-4.34
0.90
8.00
16.64
26.45
37.08
48.06
58.82
68.79
77.47
84.60
90.19
94.39
97.40
99.31
100.07
99.57
97.80
94.93
91.30
87.28
83.11
78.83
74.28
69.28
63.82
58.12
52.49
47.26
42.56
38.29
34.19
30.01
25.58
20.85
15.91
10.86
5.82
0.88
-3.79
-7.99
-11.43
-13.79
-14.78
-14.19
-11.92
-8.01
-2.62
3.92
11.17
18.56
25.51
31.50
36.12
39.22
40.87
41.37
41.17
40.71
40.34
40.18
40.19
40.19
40.03
39.63
39.02
38.26
37.37
36.29
34.89
33.00
30.55
27.58
24.22
20.68
17.18
13.84
10.72
7.79
4.92
1.90
-1.47
-5.33
-9.71
-14.43
-19.09
-23.16
-26.04
-27.33
-26.86
-24.71
-21.14
-16.46
-10.94
-4.82
1.66
8.23
14.58
20.40
25.46
29.66
33.02
35.63
37.63
39.08
40.01
40.42
40.27
39.61
38.50
37.06
35.46
33.80
32.15
30.52
28.83
27.00
24.94
22.57
19.91
17.02
14.03
11.11
8.38
5.86
3.43
0.92
-1.89
-5.11
-8.75
-12.64
-16.49
-20.00
-22.83
-24.78
-25.67
-25.48
-24.18
-21.85
-18.57
-14.45
-9.59
-4.11
1.88
8.15
14.38
20.15
24.96
28.46
30.52
31.29
31.10
30.34
29.31
28.18
27.01
25.88
24.88
24.13
23.65
23.28
22.75
21.75
20.09
17.78
15.03
12.17
9.45
7.00
4.81
2.75
0.68
-1.55
-4.06
-6.96
-10.32
-14.17
-18.40
-22.74
-26.75
-29.94
-31.91
-32.46
-31.67
-29.81
-27.19
-24.08
-20.57
-16.67
-12.31
-7.53
-2.50
2.51
7.16
11.17
14.33
16.57
17.94
18.58
18.71
18.55
18.27
17.93
17.49
16.89
16.05
14.99
13.81
12.61
11.47
10.38
9.23
7.92
6.37
4.60
2.68
0.72
-1.24
-3.18
-5.19
-7.33
-9.66
-12.20
-14.93
-17.76
-20.56
-23.11
-25.16
-26.43
-26.75
-26.03
-24.35
-21.85
-18.76
-15.24
-11.40
-7.32
-3.09
1.13
5.10
8.58
11.37
13.43
14.86
15.85
16.63
17.32
17.91
18.28
18.28
17.81
16.84
15.49
13.95
12.40
11.02
9.89
8.99
8.20
7.35
6.21
4.62
2.46
-0.25
-3.33
-6.52
-9.55
-12.24
-14.56
-16.65
-18.70
-20.85
-23.07
-25.11
-26.58
-27.18
-26.77
-25.45
-23.47
-21.05
-18.28
-15.13
-11.50
-7.43
-3.10
1.12
4.88
7.87
10.02
11.43
12.26
12.70
12.81
12.67
12.30
11.79
11.26
10.83
10.57
10.41
10.25
9.88
9.17
8.01
6.42
4.47
2.33
0.18
-1.82
-3.53
-4.94
-6.10
-7.16
-8.36
-9.89
-11.88
-14.29
-16.89
-19.28
-21.03
-21.80
-21.52
-20.31
-18.51
-16.44
-14.33
-12.20
-9.94
-7.39
-4.50
-1.35
1.82
4.72
7.04
8.60
9.32
9.34
8.89
8.29
7.82
7.62
7.69
7.91
8.06
7.97
7.60
6.98
6.22
5.40
4.54
3.59
2.55
1.44
0.38
-0.56
-1.38
-2.19
-3.18
-4.49
-6.21
-8.34
-10.84
-13.62
-16.60
-19.55
-22.08
-23.65
-23.82
-22.41
-19.68
-16.17
-12.51
-9.12
-6.08
-3.22
-0.30
2.74
5.74
8.44
10.58
12.12
13.14
13.83
14.29
14.51
14.40
13.85
12.88
11.62
10.29
9.09
8.12
7.32
6.51
5.46
4.03
2.20
0.15
-1.84
-3.50
-4.67
-5.35
-5.68
-5.93
-6.35
-7.13
-8.37
-10.05
-12.11
-14.41
-16.77
-18.93
-20.57
-21.37
-21.11
-19.76
-17.54
-14.82
-12.00
-9.31
-6.79
-4.31
-1.69
1.09
3.92
6.50
8.55
9.89
10.52
10.59
10.33
9.91
9.46
9.00
8.53
8.04
7.52
6.97
6.37
5.66
4.84
3.90
2.95
2.07
1.35
0.76
0.20
-0.50
-1.43
-2.63
-4.04
-5.56
-7.16
-8.88
-10.78
-12.91
-15.20
-17.48
-19.50
-21.00
-21.77
-21.71
-20.83
-19.23
-17.05
-14.45
-11.55
-8.46
-5.22
-1.90
1.34
4.30
6.72
8.42
9.38
9.78
9.85
9.86
9.90
9.94
9.88
9.63
9.25
8.87
8.60
8.44
8.27
7.87
7.11
5.92
4.42
2.73
0.97
-0.81
-2.62
-4.45
-6.26
-7.94
-9.35
-10.42
-11.20
-11.89
-12.74
-13.98
-15.69
-17.80
-20.09
-22.24
-23.94
-24.94
-25.06
-24.27
-22.62
-20.23
-17.28
-13.98
-10.53
-7.09
-3.78
-0.68
2.15
4.63
6.71
8.33
9.52
10.34
10.87
11.20
11.44
11.62
11.80
11.95
12.04
11.99
11.75
11.32
10.72
10.04
9.36
8.74
8.16
7.58
6.95
6.19
5.30
4.24
3.01
1.65
0.21
-1.21
-2.54
-3.74
-4.88
-6.11
-7.58
-9.36
-11.38
-13.48
-15.41
-16.96
-18.00
-18.47
-18.37
-17.66
-16.31
-14.29
-11.66
-8.59
-5.32
-2.12
0.84
3.49
5.81
7.80
9.42
10.59
11.26
11.47
11.33
11.03
10.70
10.43
10.23
10.06
9.85
9.59
9.26
8.92
8.58
8.25
7.91
7.53
7.05
6.42
5.62
4.65
3.55
2.36
1.11
-0.18
-1.51
-2.89
-4.35
-5.89
-7.52
-9.22
-10.95
-12.64
-14.23
-15.61
-16.65
-17.22
-17.17
-16.44
-15.02
-13.05
-10.72
-8.25
-5.82
-3.46
-1.16
1.12
3.36
5.40
7.06
8.17
8.70
8.76
8.52
8.14
7.69
7.19
6.69
6.29
6.13
6.28
6.70
7.20
7.49
7.39
6.84
5.96
4.93
3.88
2.84
1.75
0.57
-0.73
-2.10
-3.48
-4.83
-6.15
-7.49
-8.91
-10.40
-11.92
-13.36
-14.53
-15.23
-15.31
-14.71
-13.44
-11.65
-9.53
-7.22
-4.88
-2.60
-0.49
1.35
2.83
3.93
4.69
5.24
5.69
6.09
6.42
6.62
6.61
6.34
5.79
5.01
4.06
3.01
1.91
0.80
-0.32
-1.39
-2.34
-3.10
-3.58
-3.79
-3.82
-3.82
-3.94
-4.33
-5.05
-6.04
-7.22
-8.46
-9.66
-10.78
-11.82
-12.81
-13.76
-14.60
-15.17
-15.27
-14.68
-13.33
-11.27
-8.74
-6.04
-3.40
-0.93
1.44
3.77
6.11
8.34
10.23
11.58
12.27
12.41
12.18
11.79
11.33
10.78
10.05
9.11
8.03
6.96
6.00
5.16
4.36
3.43
2.23
0.74
-0.98
-2.79
-4.52
-6.10
-7.47
-8.68
-9.81
-11.02
-12.43
-14.16
-16.17
-18.33
-20.38
-22.04
-23.03
-23.20
-22.50
-21.01
-18.89
-16.35
-13.59
-10.78
-8.03
-5.33
-2.67
0.04
2.81
5.55
8.08
10.18
11.65
12.40
12.47
12.04
11.37
10.66
10.09
9.72
9.55
9.50
9.42
9.19
8.65
7.72
6.38
4.69
2.74
0.64
-1.43
-3.32
-4.88
-6.11
-7.13
-8.21
-9.68
-11.72
-14.28
-17.02
-19.42
-20.99
-21.41
-20.67
-18.96
-16.62
-13.98
-11.25
-8.53
-5.79
-2.97
-0.01
3.07
6.12
8.91
11.18
12.72
13.42
13.31
12.52
11.26
9.79
8.37
7.28
6.64
6.44
6.46
6.40
5.91
4.77
2.97
0.67
-1.83
-4.29
-6.50
-8.48
-10.34
-12.30
-14.60
-17.37
-20.61
-24.22
-27.96
-31.55
-34.75
-37.31
-39.05
-39.87
-39.73
-38.73
-37.03
-34.80
-32.13
-28.96
-25.09
-20.26
-14.32
-7.33
0.38
8.32
15.89
22.57
28.04
32.19
35.10
36.98
38.05
38.50
38.45
38.00
37.19
36.04
34.61
32.88
30.84
28.47
25.78
22.90
19.98
17.19
14.59
12.08
9.42
6.34
2.75
-1.21
-5.14
-8.47
-10.68
-11.53
-11.09
-9.69
-7.75
-5.57
-3.28
-0.85
1.77
4.53
7.32
9.94
12.26
14.21
15.86
17.23
18.33
19.10
19.41
19.16
18.33
16.97
15.24
13.38
11.63
10.22
9.25
8.64
8.16
7.57
6.65
5.34
3.74
2.02
0.31
-1.32
-3.01
-4.95
-7.33
-10.25
-13.59
-17.02
-20.09
-22.38
-23.56
-23.54
-22.41
-20.35
-17.61
-14.39
-10.84
-7.11
-3.34
0.37
3.94
7.36
10.65
13.81
16.78
19.39
21.40
22.59
22.81
22.09
20.64
18.76
16.82
15.08
13.68
12.58
11.60
10.56
9.27
7.65
5.68
3.38
0.84
-1.84
-4.54
-7.13
-9.52
-11.75
-14.00
-16.59
-19.77
-23.60
-27.80
-31.80
-34.94
-36.68
-36.83
-35.59
-33.42
-30.84
-28.23
-25.72
-23.27
-20.74
-18.05
-15.21
-12.29
-9.30
-6.18
-2.77
1.09
5.43
10.11
14.91
19.54
23.83
27.68
31.10
34.08
36.56
38.40
39.42
39.48
38.52
36.68
34.20
31.39
28.51
25.67
22.82
19.85
16.65
13.18
9.49
5.66
1.76
-2.14
-5.85
-9.07
-11.40
-12.47
-12.15
-10.58
-8.16
-5.35
-2.50
0.24
2.92
5.65
8.51
11.46
14.30
16.75
18.60
19.70
20.06
19.79
19.05
18.04
16.94
15.89
14.97
14.27
13.79
13.48
13.25
12.92
12.30
11.21
9.60
7.55
5.28
3.12
1.34
0.05
-0.85
-1.65
-2.75
-4.41
-6.75
-9.64
-12.80
-15.86
-18.43
-20.15
-20.79
-20.27
-18.70
-16.34
-13.56
-10.66
-7.85
-5.12
-2.40
0.42
3.34
6.27
9.03
11.40
13.19
14.26
14.59
14.26
13.45
12.43
11.50
10.88
10.66
10.76
10.97
10.99
10.60
9.64
8.14
6.23
4.12
2.06
0.26
-1.19
-2.30
-3.16
-4.01
-5.11
-6.67
-8.79
-11.41
-14.26
-16.90
-18.87
-19.79
-19.49
-18.04
-15.77
-13.09
-10.40
-7.89
-5.50
-3.02
-0.20
3.05
6.61
10.15
13.24
15.51
16.77
17.04
16.53
15.58
14.54
13.69
13.16
12.94
12.92
12.95
12.82
12.37
11.43
9.95
7.97
5.70
3.38
1.28
-0.51
-2.06
-3.54
-5.16
-7.04
-9.18
-11.48
-13.83
-16.14
-18.33
-20.33
-22.01
-23.23
-23.88
-23.86
-23.18
-21.85
-19.94
-17.52
-14.61
-11.25
-7.42
-3.20
1.27
5.66
9.58
12.65
14.68
15.72
16.03
15.99
15.89
15.87
15.86
15.69
15.22
14.40
13.30
12.02
10.71
9.42
8.15
6.83
5.39
3.81
2.09
0.30
-1.50
-3.31
-5.14
-7.07
-9.12
-11.28
-13.51
-15.79
-18.10
-20.47
-22.85
-25.10
-26.95
-28.06
-28.11
-26.91
-24.47
-21.01
-16.87
-12.46
-8.08
-3.91
0.02
3.72
7.18
10.31
12.96
14.97
16.27
16.85
16.81
16.30
15.44
14.41
13.37
12.49
11.90
11.58
11.39
11.10
10.45
9.31
7.64
5.56
3.25
0.90
-1.33
-3.31
-5.00
-6.45
-7.84
-9.42
-11.41
-13.90
-16.82
-19.87
-22.65
-24.77
-25.90
-25.94
-24.92
-23.02
-20.47
-17.43
-14.03
-10.37
-6.53
-2.68
0.99
4.26
6.98
9.11
10.69
11.82
12.58
13.02
13.18
13.11
12.89
12.60
12.29
11.99
11.68
11.32
10.84
10.09
8.97
7.41
5.44
3.22
1.00
-0.96
-2.52
-3.72
-4.76
-5.90
-7.32
-9.10
-11.21
-13.57
-16.07
-18.63
-21.09
-23.21
-24.67
-25.17
-24.57
-22.92
-20.47
-17.56
-14.48
-11.35
-8.10
-4.63
-0.85
3.13
7.08
10.60
13.33
15.05
15.70
15.47
14.69
13.74
12.93
12.39
12.10
11.92
11.73
11.42
10.99
10.42
9.67
8.67
7.37
5.77
3.96
2.09
0.28
-1.40
-2.97
-4.53
-6.21
-8.08
-10.18
-12.50
-14.97
-17.48
-19.89
-22.04
-23.80
-25.04
-25.61
-25.28
-23.87
-21.24
-17.49
-12.90
-7.95
-3.12
1.22
4.86
7.79
10.09
11.88
13.25
14.28
15.00
15.40
15.46
15.15
14.45
13.42
12.23
11.01
9.90
8.96
8.18
7.51
6.89
6.24
5.46
4.47
3.21
1.72
0.09
-1.53
-3.04
-4.41
-5.76
-7.24
-9.04
-11.30
-13.99
-16.94
-19.79
-22.09
-23.43
-23.57
-22.51
-20.51
-17.92
-15.01
-11.92
-8.63
-5.08
-1.32
2.46
5.94
8.79
10.80
11.97
12.48
12.57
12.49
12.37
12.23
12.02
11.71
11.30
10.83
10.37
9.95
9.50
8.92
8.09
6.95
5.51
3.91
2.26
0.67
-0.81
-2.27
-3.79
-5.51
-7.48
-9.70
-12.10
-14.55
-16.92
-19.06
-20.84
-22.06
-22.52
-22.05
-20.57
-18.19
-15.13
-11.75
-8.31
-4.99
-1.76
1.48
4.81
8.17
11.33
13.99
15.89
16.96
17.27
17.07
16.64
16.20
15.82
15.49
15.14
14.70
14.20
13.70
13.22
12.74
12.11
11.14
9.67
7.71
5.42
3.09
0.98
-0.79
-2.29
-3.76
-5.47
-7.57
-10.08
-12.86
-15.70
-18.35
-20.58
-22.15
-22.83
-22.45
-20.95
-18.46
-15.27
-11.73
-8.16
-4.70
-1.34
2.02
5.38
8.56
11.29
13.29
14.46
14.97
15.12
15.24
15.46
15.70
15.77
15.50
14.88
14.07
13.28
12.64
12.13
11.58
10.78
9.56
7.93
6.08
4.29
2.82
1.76
0.96
0.08
-1.22
-3.13
-5.63
-8.44
-11.22
-13.65
-15.54
-16.86
-17.58
-17.68
-17.11
-15.81
-13.79
-11.11
-7.94
-4.46
-0.84
2.78
6.24
9.41
12.12
14.26
15.78
16.74
17.25
17.45
17.45
17.32
17.11
16.85
16.63
16.53
16.58
16.69
16.69
16.40
15.71
14.70
13.56
12.57
11.91
11.66
11.78
12.15
12.69
13.32
13.97
14.53
14.89
15.00
15.00
15.19
16.04
17.97
21.21
25.68
31.02
36.80
42.79
49.18
56.59
65.90
77.79
92.23
108.23
123.90
136.81
144.54
145.04
137.00
120.15
95.43
65.11
32.50
1.36
-25.09
-44.92
-57.90
-65.27
-68.99
-70.93
-72.32
-73.72
-75.26
-76.98
-78.94
-81.12
-83.23
-84.74
-84.99
-83.51
-80.29
-75.91
-71.37
-67.74
-65.71
-65.33
-66.11
-67.28
-68.21
-68.59
-68.44
-67.90
-66.99
-65.68
-63.85
-61.53
-58.90
-56.21
-53.63
-51.11
-48.46
-45.52
-42.30
-39.08
-36.20
-33.89
-32.06
-30.25
-27.74
-23.72
-17.52
-8.88
1.91
13.96
25.89
36.08
43.16
46.38
45.88
42.52
37.50
31.85
26.07
20.10
13.64
6.44
-1.45
-9.80
-18.43
-27.40
-36.98
-47.44
-58.74
-70.45
-81.77
-91.90
-100.28
-106.60
-110.56
-111.51
-108.29
-99.42
-83.81
-61.47
-33.98
-4.28
24.10
48.09
65.92
77.37
83.42
85.61
85.35
83.60
81.00
77.98
74.94
72.19
69.83
67.71
65.46
62.71
59.21
54.97
50.24
45.38
40.75
36.57
32.90
29.61
26.48
23.29
19.92
16.40
12.96
9.94
7.73
6.60
6.59
7.51
9.01
10.72
12.49
14.40
16.75
19.86
23.83
28.42
33.09
37.24
40.39
42.44
43.63
44.41
45.19
46.17
47.31
48.48
49.62
50.92
52.72
55.45
59.44
64.76
71.23
78.40
85.47
91.24
94.14
92.55
85.26
72.08
53.98
32.88
10.84
-10.67
-31.17
-50.87
-70.07
-88.41
-104.74
-117.55
-125.74
-129.21
-129.02
-126.87
-124.47
-122.88
-122.42
-122.83
-123.63
-124.26
-124.12
-122.30
-117.58
-108.63
-94.50
-75.16
-51.80
-26.67
-2.44
18.64
35.50
48.43
58.83
68.48
78.80
90.29
102.54
114.41
124.52
131.55
134.40
132.33
125.07
112.98
97.28
79.89
63.05
48.55
37.23
28.71
21.73
14.75
6.65
-2.96
-13.78
-25.23
-36.78
-48.19
-59.38
-70.19
-80.17
-88.56
-94.56
-97.74
-98.38
-97.49
-96.52
-96.76
-98.78
-102.26
-106.33
-110.17
-113.59
-117.13
-121.75
-128.04
-135.66
-143.18
-148.41
-149.06
-143.58
-131.56
-113.80
-91.96
-68.05
-43.87
-20.76
0.43
19.15
34.98
47.48
56.30
61.41
63.21
62.57
60.60
58.36
56.55
55.45
54.92
54.62
54.27
53.75
53.21
52.92
53.12
53.82
54.79
55.57
55.74
55.07
53.64
51.72
49.65
47.66
45.74
43.73
41.41
38.67
35.55
32.25
29.05
26.16
23.66
21.49
19.52
17.55
15.44
13.14
10.71
8.27
5.94
3.79
1.80
-0.15
-2.20
-4.38
-6.61
-8.67
-10.27
-11.16
-11.20
-10.41
-8.85
-6.68
-4.03
-1.14
1.74
4.35
6.50
8.20
9.63
11.03
12.57
14.18
15.66
16.74
17.27
17.30
16.99
16.53
16.04
15.53
14.94
14.24
13.43
12.54
11.51
10.23
8.58
6.51
4.18
1.84
-0.22
-1.84
-3.04
-4.08
-5.24
-6.78
-8.73
-10.92
-13.05
-14.86
-16.16
-16.93
-17.20
-17.01
-16.37
-15.25
-13.63
-11.55
-9.09
-6.35
-3.45
-0.49
2.39
5.08
7.44
9.42
10.97
12.14
12.93
13.39
13.51
13.35
13.01
12.62
12.29
12.06
11.87
11.55
10.93
9.91
8.47
6.72
4.81
2.91
1.18
-0.31
-1.58
-2.74
-4.02
-5.63
-7.73
-10.33
-13.23
-16.10
-18.54
-20.23
-20.99
-20.78
-19.70
-17.93
-15.68
-13.13
-10.43
-7.67
-4.89
-2.13
0.58
3.19
5.64
7.89
9.91
11.66
13.10
14.21
14.97
15.41
15.60
15.62
15.57
15.52
15.49
15.47
15.37
15.10
14.56
13.67
12.46
10.98
9.33
7.63
5.97
4.38
2.86
1.35
-0.19
-1.84
-3.68
-5.71
-7.92
-10.18
-12.31
-14.08
-15.28
-15.75
-15.38
-14.15
-12.13
-9.51
-6.51
-3.37
-0.28
2.67
5.50
8.26
10.96
13.49
15.64
17.18
17.99
18.16
17.90
17.47
17.06
16.66
16.17
15.49
14.63
13.71
12.87
12.15
11.45
10.61
9.49
8.09
6.53
4.99
3.57
2.22
0.78
-0.93
-3.01
-5.44
-8.07
-10.73
-13.21
-15.31
-16.88
-17.76
-17.86
-17.16
-15.75
-13.79
-11.49
-9.00
-6.43
-3.80
-1.14
1.48
3.94
6.06
7.68
8.74
9.30
9.47
9.43
9.36
9.34
9.44
9.62
9.83
9.97
9.93
9.64
9.05
8.16
7.00
5.60
4.03
2.37
0.71
-0.86
-2.35
-3.86
-5.52
-7.44
-9.61
-11.89
-14.06
-15.97
-17.58
-18.94
-20.10
-21.02
-21.54
-21.41
-20.44
-18.55
-15.87
-12.58
-8.90
-5.05
-1.18
2.54
5.89
8.71
10.88
12.38
13.32
13.84
14.06
14.11
14.04
13.91
13.75
13.56
13.33
12.99
12.49
11.80
10.92
9.88
8.67
7.28
5.66
3.83
1.85
-0.18
-2.16
-4.03
-5.84
-7.62
-9.44
-11.34
-13.29
-15.28
-17.26
-19.12
-20.71
-21.84
-22.32
-21.99
-20.84
-18.87
-16.21
-13.02
-9.53
-6.00
-2.68
0.28
2.91
5.32
7.69
10.06
12.33
14.25
15.56
16.13
15.98
15.31
14.36
13.38
12.55
11.96
11.66
11.59
11.62
11.50
11.00
9.93
8.24
6.04
3.59
1.19
-0.87
-2.43
-3.49
-4.23
-4.93
-5.92
-7.45
-9.60
-12.24
-15.06
-17.61
-19.41
-20.11
-19.59
-17.97
-15.60
-12.90
-10.22
-7.70
-5.26
-2.72
0.07
3.12
6.23
9.14
11.56
13.30
14.27
14.55
14.31
13.77
13.17
12.73
12.56
12.68
13.00
13.35
13.52
13.34
12.70
11.59
10.09
8.34
6.50
4.73
3.16
1.80
0.59
-0.58
-1.86
-3.38
-5.17
-7.21
-9.43
-11.69
-13.87
-15.84
-17.50
-18.75
-19.50
-19.66
-19.15
-17.94
-16.05
-13.57
-10.62
-7.38
-4.03
-0.73
2.40
5.27
7.81
9.98
11.71
12.97
13.75
14.09
14.10
13.93
13.72
13.57
13.51
13.48
13.38
13.07
12.46
11.52
10.28
8.85
7.34
5.86
4.42
2.96
1.37
-0.40
-2.29
-4.17
-5.84
-7.21
-8.28
-9.23
-10.29
-11.62
-13.29
-15.21
-17.16
-18.84
-19.94
-20.17
-19.39
-17.58
-14.93
-11.73
-8.28
-4.83
-1.51
1.60
4.41
6.81
8.70
10.03
10.87
11.36
11.70
12.03
12.36
12.58
12.56
12.21
11.55
10.71
9.89
9.26
8.84
8.58
8.27
7.68
6.64
5.13
3.26
1.26
-0.58
-2.07
-3.16
-3.94
-4.64
-5.52
-6.78
-8.50
-10.60
-12.86
-15.03
-16.84
-18.11
-18.72
-18.62
-17.87
-16.53
-14.69
-12.46
-9.94
-7.23
-4.42
-1.60
1.16
3.77
6.12
8.09
9.58
10.58
11.10
11.26
11.15
10.88
10.52
10.11
9.66
9.22
8.81
8.48
8.21
7.92
7.49
6.76
5.65
4.19
2.58
1.04
-0.21
-1.13
-1.88
-2.71
-3.88
-5.46
-7.39
-9.49
-11.57
-13.47
-15.08
-16.29
-16.96
-16.98
-16.30
-15.04
-13.36
-11.45
-9.37
-7.04
-4.36
-1.31
1.93
4.99
7.44
8.95
9.47
9.22
8.63
8.18
8.19
8.72
9.56
10.38
10.84
10.76
10.10
8.99
7.61
6.11
4.58
3.11
1.75
0.55
-0.46
-1.34
-2.19
-3.14
-4.31
-5.72
-7.29
-8.87
-10.35
-11.63
-12.71
-13.61
-14.28
-14.67
-14.66
-14.20
-13.31
-12.09
-10.66
-9.08
-7.32
-5.32
-3.05
-0.60
1.82
3.93
5.53
6.53
7.04
7.25
7.35
7.50
7.73
7.95
8.09
8.06
7.84
7.47
7.01
6.52
5.98
5.32
4.46
3.34
1.99
0.52
-0.95
-2.31
-3.53
-4.68
-5.86
-7.20
-8.79
-10.64
-12.72
-14.93
-17.06
-18.87
-20.10
-20.57
-20.24
-19.19
-17.61
-15.68
-13.53
-11.17
-8.57
-5.70
-2.64
0.43
3.23
5.53
7.21
8.37
9.22
9.96
10.68
11.29
11.60
11.45
10.83
9.95
9.09
8.48
8.16
7.94
7.55
6.77
5.55
4.02
2.42
0.93
-0.40
-1.70
-3.09
-4.65
-6.33
-8.01
-9.59
-11.11
-12.74
-14.65
-16.92
-19.44
-21.85
-23.79
-24.92
-25.09
-24.26
-22.56
-20.11
-17.10
-13.70
-10.07
-6.38
-2.75
0.75
4.04
7.03
9.64
11.75
13.33
14.41
15.10
15.51
15.70
15.70
15.51
15.18
14.79
14.44
14.18
13.95
13.62
13.01
12.01
10.61
8.88
6.94
4.93
2.95
1.08
-0.66
-2.31
-3.94
-5.67
-7.63
-9.85
-12.31
-14.93
-17.57
-20.03
-22.10
-23.55
-24.18
-23.85
-22.57
-20.47
-17.77
-14.70
-11.36
-7.80
-3.97
0.09
4.26
8.28
11.81
14.58
16.45
17.49
17.90
17.97
17.92
17.83
17.66
17.28
16.69
15.98
15.36
14.99
14.88
14.85
14.62
13.93
12.71
11.10
9.36
7.70
6.15
4.59
2.81
0.70
-1.66
-4.09
-6.37
-8.43
-10.34
-12.32
-14.51
-16.85
-19.05
-20.66
-21.32
-20.91
-19.60
-17.73
-15.59
-13.29
-10.74
-7.80
-4.42
-0.75
2.90
6.23
9.07
11.42
13.42
15.16
16.59
17.56
17.89
17.52
16.59
15.39
14.27
13.45
13.02
12.88
12.82
12.63
12.14
11.25
9.96
8.33
6.47
4.55
2.69
0.97
-0.57
-2.02
-3.50
-5.15
-7.10
-9.40
-12.06
-14.98
-17.96
-20.74
-23.01
-24.46
-24.86
-24.14
-22.37
-19.77
-16.61
-13.10
-9.38
-5.47
-1.40
2.74
6.72
10.25
13.03
14.88
15.81
16.01
15.75
15.33
14.97
14.75
14.66
14.62
14.51
14.25
13.83
13.26
12.59
11.83
10.96
9.93
8.72
7.34
5.87
4.40
3.01
1.67
0.24
-1.41
-3.39
-5.69
-8.16
-10.64
-13.01
-15.26
-17.45
-19.60
-21.61
-23.16
-23.90
-23.53
-21.98
-19.43
-16.23
-12.74
-9.15
-5.56
-1.93
1.70
5.20
8.31
10.81
12.61
13.85
14.81
15.80
16.92
18.08
18.97
19.31
18.95
18.02
16.81
15.64
14.73
14.08
13.53
12.87
11.94
10.68
9.11
7.30
5.33
3.27
1.19
-0.87
-2.87
-4.78
-6.66
-8.57
-10.60
-12.81
-15.19
-17.65
-19.99
-21.92
-23.14
-23.43
-22.72
-21.11
-18.85
-16.21
-13.41
-10.56
-7.57
-4.35
-0.83
2.88
6.50
9.68
12.10
13.63
14.39
14.64
14.73
14.89
15.20
15.58
15.85
15.91
15.72
15.33
14.82
14.21
13.45
12.45
11.16
9.56
7.76
5.86
3.97
2.18
0.47
-1.19
-2.85
-4.58
-6.44
-8.46
-10.63
-12.91
-15.16
-17.23
-18.95
-20.18
-20.77
-20.67
-19.81
-18.25
-16.03
-13.29
-10.18
-6.83
-3.34
0.20
3.68
6.98
9.91
12.29
14.02
15.12
15.73
16.08
16.34
16.57
16.64
16.41
15.73
14.63
13.28
11.98
10.96
10.29
9.85
9.38
8.61
7.39
5.71
3.69
1.50
-0.71
-2.83
-4.83
-6.73
-8.60
-10.54
-12.65
-14.94
-17.32
-19.60
-21.58
-23.02
-23.77
-23.71
-22.76
-20.91
-18.21
-14.84
-11.06
-7.19
-3.46
-0.05
3.01
5.75
8.22
10.43
12.33
13.84
14.90
15.49
15.65
15.44
14.99
14.39
13.75
13.15
12.67
12.31
12.02
11.65
11.02
9.94
8.33
6.25
3.91
1.60
-0.44
-2.11
-3.46
-4.69
-6.05
-7.75
-9.85
-12.28
-14.80
-17.10
-18.88
-19.92
-20.16
-19.63
-18.42
-16.59
-14.18
-11.21
-7.80
-4.14
-0.49
2.88
5.77
8.11
9.97
11.42
12.55
13.40
13.97
14.29
14.35
14.22
13.93
13.52
12.99
12.34
11.55
10.61
9.51
8.27
6.95
5.59
4.24
2.93
1.64
0.30
-1.16
-2.85
-4.86
-7.22
-9.92
-12.81
-15.67
-18.21
-20.15
-21.27
-21.48
-20.83
-19.44
-17.47
-15.10
-12.46
-9.61
-6.62
-3.49
-0.28
2.92
5.93
8.52
10.52
11.89
12.74
13.26
13.62
13.90
14.02
13.87
13.41
12.68
11.82
10.90
9.91
8.70
7.12
5.15
2.91
0.68
-1.31
-2.99
-4.45
-5.88
-7.49
-9.37
-11.56
-13.99
-16.61
-19.32
-21.95
-24.28
-26.04
-26.98
-26.97
-26.03
-24.29
-21.88
-18.85
-15.24
-11.10
-6.61
-2.06
2.25
6.08
9.40
12.27
14.79
16.97
18.72
19.93
20.55
20.65
20.37
19.88
19.26
18.54
17.65
16.54
15.16
13.54
11.68
9.67
7.60
5.57
3.59
1.62
-0.46
-2.75
-5.28
-7.98
-10.75
-13.51
-16.28
-19.07
-21.84
-24.38
-26.40
-27.58
-27.69
-26.67
-24.64
-21.75
-18.19
-14.13
-9.67
-4.96
-0.15
4.52
8.82
12.54
15.48
17.63
19.09
20.03
20.66
21.11
21.41
21.49
21.29
20.78
20.00
19.02
17.91
16.67
15.28
13.70
11.94
10.04
8.08
6.09
4.07
1.95
-0.35
-2.87
-5.57
-8.40
-11.28
-14.16
-17.06
-19.97
-22.81
-25.40
-27.42
-28.56
-28.54
-27.25
-24.75
-21.22
-16.94
-12.17
-7.20
-2.25
2.53
7.04
11.24
15.05
18.34
20.95
22.74
23.69
23.92
23.72
23.35
23.00
22.69
22.33
21.77
20.96
19.95
18.85
17.79
16.79
15.76
14.55
13.03
11.11
8.85
6.32
3.65
0.92
-1.82
-4.55
-7.29
-10.01
-12.71
-15.35
-17.91
-20.34
-22.55
-24.39
-25.69
-26.25
-25.94
-24.69
-22.49
-19.44
-15.66
-11.34
-6.71
-2.02
2.48
6.58
10.12
13.02
15.30
16.99
18.17
18.91
19.26
19.25
18.89
18.23
17.33
16.28
15.18
14.10
13.08
12.11
11.15
10.12
8.92
7.49
5.79
3.86
1.82
-0.17
-1.96
-3.51
-4.90
-6.29
-7.88
-9.83
-12.24
-15.05
-18.10
-21.08
-23.63
-25.39
-26.12
-25.78
-24.49
-22.49
-19.99
-17.09
-13.81
-10.13
-6.09
-1.82
2.46
6.56
10.30
13.58
16.31
18.43
19.91
20.78
21.15
21.17
21.00
20.73
20.42
20.02
19.50
18.77
17.83
16.71
15.49
14.26
13.04
11.83
10.53
9.06
7.35
5.42
3.32
1.17
-0.95
-3.02
-5.04
-7.06
-9.14
-11.36
-13.83
-16.63
-19.78
-23.13
-26.39
-29.17
-31.05
-31.76
-31.19
-29.46
-26.83
-23.58
-19.92
-16.01
-11.90
-7.63
-3.26
1.07
5.19
8.90
12.05
14.60
16.56
18.02
19.08
19.79
20.20
20.30
20.11
19.71
19.20
18.67
18.19
17.72
17.16
16.36
15.22
13.71
11.86
9.82
7.75
5.79
4.00
2.34
0.73
-0.91
-2.63
-4.45
-6.40
-8.52
-10.83
-13.37
-16.08
-18.84
-21.43
-23.61
-25.13
-25.83
-25.63
-24.60
-22.85
-20.50
-17.61
-14.21
-10.32
-6.02
-1.52
2.87
6.78
9.99
12.37
14.00
15.06
15.72
16.10
16.25
16.18
15.86
15.32
14.62
13.82
13.03
12.34
11.83
11.52
11.30
10.96
10.26
9.00
7.19
4.99
2.67
0.49
-1.42
-3.08
-4.60
-6.11
-7.74
-9.54
-11.54
-13.72
-16.03
-18.29
-20.29
-21.71
-22.31
-21.92
-20.55
-18.35
-15.55
-12.40
-9.07
-5.71
-2.37
0.86
3.93
6.76
9.34
11.62
13.54
15.02
15.92
16.13
15.66
14.69
13.51
12.38
11.50
10.87
10.38
9.89
9.29
8.59
7.78
6.86
5.81
4.54
3.03
1.30
-0.55
-2.40
-4.18
-5.87
-7.52
-9.24
-11.10
-13.11
-15.19
-17.18
-18.93
-20.25
-20.97
-20.98
-20.19
-18.55
-16.11
-13.00
-9.42
-5.60
-1.75
1.98
5.46
8.64
11.46
13.90
16.00
17.79
19.31
20.49
21.15
21.07
20.07
18.13
15.50
12.59
9.88
7.69
6.17
5.24
4.72
4.35
3.95
3.37
2.56
1.47
0.13
-1.46
-3.33
-5.51
-8.05
-10.96
-14.16
-17.52
-20.82
-23.86
-26.46
-28.52
-29.99
-30.85
-31.12
-30.80
-29.93
-28.49
-26.49
-23.88
-20.65
-16.84
-12.55
-8.01
-3.45
0.83
4.61
7.74
10.17
11.97
13.25
14.11
14.64
14.90
14.95
14.90
14.80
14.68
14.45
13.93
12.92
11.33
9.23
6.90
4.68
2.83
1.43
0.34
-0.71
-1.97
-3.63
-5.73
-8.20
-10.87
-13.55
-16.04
-18.14
-19.71
-20.64
-20.92
-20.60
-19.78
-18.58
-17.02
-15.08
-12.69
-9.80
-6.45
-2.82
0.84
4.32
7.42
10.04
12.15
13.73
14.79
15.37
15.53
15.32
14.85
14.14
13.24
12.22
11.19
10.24
9.42
8.66
7.82
6.74
5.35
3.72
2.00
0.33
-1.24
-2.72
-4.19
-5.69
-7.25
-8.88
-10.64
-12.56
-14.61
-16.61
-18.28
-19.33
-19.59
-19.04
-17.79
-15.92
-13.42
-10.26
-6.44
-2.16
2.19
6.20
9.53
12.11
14.08
15.64
16.95
18.03
18.77
19.04
18.79
18.08
17.09
16.04
15.13
14.44
13.91
13.33
12.49
11.18
9.38
7.17
4.73
2.24
-0.19
-2.49
-4.70
-6.90
-9.19
-11.67
-14.43
-17.46
-20.62
-23.66
-26.23
-28.02
-28.81
-28.51
-27.16
-24.85
-21.70
-17.82
-13.31
-8.36
-3.23
1.73
6.12
9.63
12.09
13.59
14.40
14.91
15.46
16.20
17.07
17.85
18.28
18.22
17.65
16.68
15.48
14.18
12.86
11.53
10.18
8.77
7.27
5.63
3.81
1.75
-0.59
-3.25
-6.25
-9.58
-13.15
-16.83
-20.40
-23.60
-26.17
-27.92
-28.74
-28.59
-27.46
-25.40
-22.47
-18.73
-14.30
-9.34
-4.08
1.20
6.16
10.50
14.03
16.69
18.63
20.09
21.30
22.48
23.64
24.70
25.51
25.90
25.78
25.08
23.83
22.08
19.95
17.66
15.50
13.76
12.63
12.05
11.76
11.26
10.10
8.02
5.02
1.33
-2.71
-6.87
-11.03
-15.12
-19.00
-22.39
-24.86
-26.04
-25.67
-23.79
-20.64
-16.55
-11.88
-6.95
-2.06
2.42
6.16
8.94
10.78
11.95
12.83
13.71
14.60
15.20
15.05
13.79
11.41
8.32
5.19
2.64
1.01
0.17
-0.30
-0.91
-1.98
-3.51
-5.30
-7.10
-8.82
-10.56
-12.48
-14.72
-17.25
-19.96
-22.73
-25.49
-28.24
-30.92
-33.34
-35.14
-35.91
-35.36
-33.41
-30.20
-26.04
-21.25
-16.08
-10.72
-5.29
0.12
5.37
10.34
14.93
18.99
22.39
24.99
26.66
27.32
27.01
25.89
24.29
22.58
21.14
20.21
19.78
19.65
19.45
18.77
17.35
15.13
12.22
8.87
5.33
1.79
-1.60
-4.74
-7.51
-9.85
-11.74
-13.34
-14.89
-16.62
-18.69
-21.05
-23.44
-25.42
-26.58
-26.55
-25.19
-22.55
-18.87
-14.47
-9.70
-4.84
-0.13
4.28
8.25
11.64
14.33
16.26
17.48
18.15
18.45
18.54
18.48
18.26
17.82
17.13
16.20
15.08
13.79
12.32
10.62
8.68
6.53
4.27
2.06
0.02
-1.81
-3.49
-5.17
-7.01
-9.19
-11.78
-14.75
-17.91
-20.97
-23.60
-25.44
-26.27
-25.99
-24.64
-22.34
-19.27
-15.58
-11.35
-6.69
-1.71
3.38
8.34
12.88
16.72
19.71
21.80
23.09
23.77
24.05
24.10
24.01
23.80
23.45
23.00
22.44
21.81
21.09
20.22
19.07
17.53
15.50
12.95
10.01
6.89
3.87
1.20
-1.06
-3.05
-5.05
-7.38
-10.24
-13.64
-17.39
-21.13
-24.45
-26.94
-28.27
-28.24
-26.86
-24.37
-21.11
-17.42
-13.46
-9.27
-4.80
-0.08
4.70
9.20
13.09
16.15
18.39
19.97
21.10
21.88
22.30
22.31
21.90
21.20
20.46
19.90
19.61
19.46
19.13
18.26
16.61
14.20
11.27
8.19
5.28
2.72
0.52
-1.45
-3.37
-5.47
-7.97
-11.06
-14.79
-19.00
-23.24
-26.94
-29.52
-30.63
-30.23
-28.52
-25.84
-22.51
-18.71
-14.51
-9.95
-5.11
-0.18
4.62
9.03
12.88
16.06
18.56
20.38
21.50
21.90
21.61
20.76
19.65
18.64
18.02
17.88
18.02
18.08
17.66
16.52
14.63
12.21
9.54
6.90
4.47
2.29
0.33
-1.51
-3.37
-5.46
-7.99
-11.13
-14.92
-19.16
-23.44
-27.14
-29.67
-30.65
-30.04
-28.17
-25.53
-22.58
-19.50
-16.18
-12.36
-7.83
-2.68
2.73
7.85
12.17
15.39
17.53
18.80
19.50
19.87
20.03
20.00
19.81
19.46
18.99
18.42
17.71
16.78
15.57
14.07
12.35
10.55
8.80
7.18
5.63
4.08
2.39
0.44
-1.82
-4.40
-7.28
-10.42
-13.73
-17.10
-20.36
-23.34
-25.82
-27.66
-28.74
-28.98
-28.34
-26.81
-24.43
-21.24
-17.35
-12.88
-7.96
-2.73
2.52
7.49
11.77
15.05
17.17
18.20
18.45
18.30
18.10
18.04
18.16
18.30
18.29
17.98
17.29
16.27
14.97
13.52
11.95
10.28
8.53
6.72
4.93
3.25
1.72
0.25
-1.35
-3.31
-5.84
-8.96
-12.52
-16.22
-19.73
-22.76
-25.11
-26.70
-27.49
-27.52
-26.77
-25.25
-22.92
-19.75
-15.78
-11.16
-6.14
-1.09
3.61
7.64
10.81
13.13
14.71
15.76
16.47
16.96
17.30
17.48
17.43
17.11
16.47
15.53
14.35
13.05
11.75
10.54
9.41
8.29
7.05
5.61
3.93
2.08
0.15
-1.77
-3.69
-5.71
-7.92
-10.42
-13.20
-16.20
-19.29
-22.33
-25.18
-27.63
-29.44
-30.32
-30.01
-28.38
-25.45
-21.46
-16.74
-11.67
-6.57
-1.68
2.87
6.98
10.58
13.58
15.92
17.63
18.80
19.58
20.09
20.33
20.21
19.63
18.62
17.34
16.10
15.14
14.51
14.06
13.52
12.65
11.36
9.70
7.78
5.71
3.54
1.28
-1.03
-3.35
-5.63
-7.89
-10.21
-12.70
-15.40
-18.20
-20.88
-23.11
-24.58
-25.02
-24.32
-22.55
-19.88
-16.57
-12.86
-8.91
-4.81
-0.59
3.67
7.80
11.55
14.68
17.04
18.66
19.69
20.32
20.68
20.70
20.28
19.31
17.88
16.24
14.74
13.66
13.08
12.82
12.53
11.85
10.52
8.54
6.08
3.47
1.03
-0.98
-2.49
-3.58
-4.48
-5.58
-7.24
-9.81
-13.38
-17.75
-22.33
-26.24
-28.59
-28.80
-26.82
-23.17
-18.78
-14.55
-11.08
-8.48
-6.38
-4.25
-1.64
1.60
5.31
9.06
12.40
14.98
16.64
17.31
17.04
15.89
14.01
11.68
9.32
7.41
6.31
6.08
6.45
6.91
6.91
6.05
4.25
1.68
-1.29
-4.23
-6.80
-8.82
-10.32
-11.57
-12.92
-14.71
-17.06
-19.85
-22.72
-25.25
-27.06
-27.92
-27.77
-26.63
-24.55
-21.59
-17.81
-13.33
-8.35
-3.18
1.78
6.13
9.56
11.89
13.19
13.68
13.69
13.53
13.42
13.41
13.45
13.41
13.14
12.53
11.54
10.22
8.69
7.14
5.74
4.60
3.71
2.89
1.91
0.48
-1.62
-4.51
-8.15
-12.36
-16.87
-21.32
-25.40
-28.83
-31.41
-33.07
-33.80
-33.68
-32.83
-31.35
-29.34
-26.75
-23.48
-19.40
-14.42
-8.64
-2.41
3.78
9.36
13.91
17.23
19.37
20.59
21.21
21.54
21.77
22.00
22.18
22.18
21.83
20.97
19.59
17.83
15.97
14.29
12.95
11.88
10.82
9.43
7.47
4.90
1.81
-1.61
-5.25
-9.01
-12.83
-16.54
-19.92
-22.72
-24.82
-26.21
-27.01
-27.33
-27.16
-26.37
-24.74
-22.05
-18.23
-13.31
-7.53
-1.23
5.17
11.17
16.32
20.28
22.91
24.33
24.85
24.91
24.89
25.04
25.37
25.70
25.78
25.38
24.42
22.99
21.25
19.39
17.53
15.68
13.77
11.76
9.63
7.40
5.10
2.74
0.27
-2.35
-5.15
-8.10
-11.14
-14.22
-17.35
-20.57
-23.90
-27.22
-30.23
-32.54
-33.74
-33.61
-32.13
-29.40
-25.60
-20.89
-15.38
-9.27
-2.88
3.41
9.18
14.12
18.10
21.14
23.34
24.82
25.67
25.99
25.86
25.41
24.72
23.84
22.82
21.69
20.52
19.41
18.43
17.55
16.64
15.49
13.88
11.75
9.16
6.34
3.55
0.99
-1.27
-3.36
-5.49
-7.88
-10.65
-13.82
-17.28
-20.80
-24.12
-26.94
-28.97
-29.95
-29.73
-28.29
-25.75
-22.36
-18.35
-13.90
-9.12
-4.07
1.14
6.29
11.06
15.09
18.15
20.12
21.11
21.31
20.95
20.26
19.40
18.48
17.63
16.94
16.44
16.09
15.74
15.18
14.21
12.73
10.75
8.40
5.87
3.36
1.00
-1.15
-3.11
-4.97
-6.85
-8.90
-11.26
-14.00
-17.09
-20.32
-23.39
-25.92
-27.56
-28.10
-27.48
-25.79
-23.17
-19.79
-15.75
-11.17
-6.18
-0.93
4.30
9.20
13.48
16.89
19.31
20.81
21.54
21.74
21.64
21.38
21.03
20.61
20.09
19.48
18.79
18.05
17.24
16.33
15.17
13.62
11.61
9.14
6.38
3.55
0.90
-1.46
-3.50
-5.34
-7.13
-9.04
-11.19
-13.66
-16.50
-19.67
-23.03
-26.28
-29.04
-30.85
-31.39
-30.50
-28.27
-24.95
-20.91
-16.47
-11.86
-7.17
-2.43
2.34
7.02
11.38
15.15
18.04
19.94
20.90
21.14
20.93
20.48
19.91
19.25
18.53
17.83
17.22
16.78
16.43
15.96
15.09
13.59
11.42
8.72
5.82
3.01
0.50
-1.67
-3.64
-5.59
-7.72
-10.22
-13.14
-16.52
-20.22
-24.02
-27.57
-30.46
-32.33
-32.93
-32.19
-30.25
-27.33
-23.70
-19.53
-14.96
-10.08
-5.06
-0.12
4.42
8.29
11.30
13.44
14.83
15.65
16.10
16.27
16.17
15.81
15.20
14.50
13.85
13.42
13.17
12.95
12.49
11.55
10.04
8.06
5.78
3.39
1.01
-1.34
-3.62
-5.81
-7.90
-9.92
-12.04
-14.45
-17.33
-20.63
-24.08
-27.19
-29.42
-30.35
-29.78
-27.78
-24.59
-20.59
-16.14
-11.56
-7.05
-2.73
1.37
5.20
8.73
11.89
14.60
16.79
18.45
19.61
20.29
20.55
20.42
19.93
19.15
18.17
17.09
16.00
14.94
13.87
12.72
11.39
9.80
7.95
5.87
3.65
1.36
-0.97
-3.37
-5.94
-8.75
-11.89
-15.36
-19.06
-22.81
-26.31
-29.20
-31.12
-31.80
-31.08
-29.00
-25.74
-21.64
-17.01
-12.13
-7.17
-2.20
2.73
7.52
11.97
15.85
18.91
21.02
22.21
22.64
22.57
22.20
21.72
21.21
20.73
20.31
19.89
19.34
18.47
17.14
15.27
12.99
10.52
8.11
5.93
3.99
2.19
0.40
-1.54
-3.73
-6.27
-9.25
-12.71
-16.57
-20.61
-24.43
-27.52
-29.47
-30.02
-29.18
-27.12
-24.14
-20.48
-16.34
-11.84
-7.10
-2.26
2.48
6.90
10.81
14.09
16.68
18.58
19.85
20.55
20.79
20.68
20.32
19.82
19.22
18.54
17.76
16.86
15.84
14.71
13.46
12.08
10.50
8.70
6.71
4.55
2.29
-0.04
-2.40
-4.80
-7.22
-9.65
-12.09
-14.54
-16.99
-19.33
-21.31
-22.52
-22.63
-21.45
-19.05
-15.75
-11.94
-7.93
-3.85
0.28
4.42
8.45
12.16
15.28
17.62
19.11
19.84
19.99
19.75
19.33
18.89
18.54
18.28
18.08
17.80
17.36
16.64
15.60
14.19
12.38
10.18
7.66
5.01
2.49
0.37
-1.18
-2.19
-2.91
-3.72
-4.99
-6.93
-9.47
-12.32
-14.99
-17.01
-18.06
-18.00
-16.87
-14.79
-11.89
-8.26
-4.01
0.63
5.33
9.63
13.15
15.67
17.25
18.12
18.61
18.90
19.03
18.91
18.46
17.73
16.90
16.22
15.86
15.83
15.93
15.93
15.61
14.91
13.90
12.66
11.24
9.59
7.58
5.15
2.28
-0.90
-4.21
-7.48
-10.64
-13.70
-16.70
-19.60
-22.25
-24.33
-25.54
-25.62
-24.55
-22.52
-19.88
-16.96
-14.02
-11.14
-8.30
-5.47
-2.66
0.04
2.52
4.66
6.39
7.65
8.39
8.65
8.51
8.18
7.90
7.86
8.13
8.61
9.03
9.15
8.81
8.00
6.86
5.53
4.13
2.67
1.17
-0.37
-1.93
-3.51
-5.19
-7.08
-9.33
-11.93
-14.70
-17.29
-19.31
-20.42
-20.47
-19.50
-17.70
-15.30
-12.50
-9.50
-6.52
-3.82
-1.70
-0.40
-0.01
-0.35
-1.09
-1.82
-2.19
-2.12
-1.69
-1.10
-0.54
-0.10
0.22
0.42
0.51
0.38
-0.03
-0.76
-1.73
-2.80
-3.83
-4.74
-5.57
-6.43
-7.46
-8.74
-10.25
-11.94
-13.67
-15.26
-16.57
-17.39
-17.53
-16.86
-15.34
-13.03
-10.12
-6.89
-3.59
-0.46
2.34
4.72
6.63
8.08
9.10
9.75
10.06
10.07
9.82
9.39
8.87
8.37
7.88
7.37
6.72
5.82
4.64
3.24
1.78
0.40
-0.81
-1.87
-2.86
-3.91
-5.13
-6.61
-8.45
-10.67
-13.23
-15.97
-18.58
-20.68
-21.95
-22.21
-21.49
-19.97
-17.93
-15.59
-13.05
-10.28
-7.25
-3.96
-0.57
2.66
5.43
7.54
8.99
9.90
10.46
10.83
11.02
10.99
10.65
10.00
9.10
8.13
7.23
6.54
6.06
5.66
5.17
4.40
3.30
1.94
0.48
-0.90
-2.12
-3.29
-4.59
-6.22
-8.24
-10.60
-13.10
-15.49
-17.53
-19.00
-19.75
-19.68
-18.79
-17.19
-15.06
-12.59
-9.89
-6.99
-3.88
-0.55
2.87
6.12
8.92
11.02
12.35
13.04
13.30
13.36
13.32
13.18
12.87
12.34
11.69
11.03
10.45
9.91
9.23
8.22
6.77
4.95
2.97
1.08
-0.60
-2.10
-3.58
-5.25
-7.23
-9.51
-12.00
-14.59
-17.15
-19.57
-21.66
-23.17
-23.80
-23.30
-21.60
-18.79
-15.17
-11.11
-6.93
-2.87
0.94
4.39
7.40
9.88
11.77
13.07
13.84
14.18
14.17
13.88
13.42
12.89
12.43
12.08
11.82
11.50
10.93
9.98
8.64
7.06
5.40
3.81
2.29
0.78
-0.80
-2.49
-4.22
-5.95
-7.63
-9.32
-11.06
-12.84
-14.49
-15.74
-16.30
-15.99
-14.81
-12.95
-10.66
-8.12
-5.42
-2.51
0.60
3.85
7.02
9.79
11.89
13.17
13.68
13.61
13.25
12.85
12.58
12.53
12.67
12.95
13.23
13.36
13.17
12.54
11.44
9.98
8.39
6.92
5.74
4.86
4.15
3.36
2.30
0.88
-0.87
-2.85
-4.97
-7.10
-9.11
-10.82
-12.02
-12.52
-12.24
-11.24
-9.64
-7.64
-5.39
-2.97
-0.47
2.05
4.47
6.65
8.45
9.82
10.71
11.13
11.09
10.62
9.75
8.57
7.17
5.67
4.21
2.90
1.87
1.25
1.09
1.38
1.98
2.73
3.44
4.01
4.42
4.71
4.90
4.97
4.82
4.33
3.41
2.05
0.35
-1.44
-3.03
-4.10
-4.46
-4.04
-2.95
-1.37
0.47
2.40
4.30
6.09
7.62
8.76
9.37
9.41
8.94
8.13
7.11
5.98
4.76
3.48
2.16
0.83
-0.45
-1.70
-2.99
-4.38
-5.90
-7.52
-9.11
-10.47
-11.40
-11.74
-11.42
-10.52
-9.30
-8.11
-7.34
-7.27
-7.95
-9.11
-10.31
-11.05
-10.97
-9.97
-8.24
-6.08
-3.79
-1.53
0.66
2.81
4.83
6.54
7.70
8.14
7.87
7.13
6.31
5.82
5.96
6.87
8.45
10.38
12.18
13.23
12.91
10.75
6.56
0.54
-6.74
-14.46
-21.73
-27.86
-32.40
-35.31
-36.81
-37.28
-37.09
-36.44
-35.35
-33.66
-31.25
-28.06
-24.20
-19.88
-15.27
-10.55
-5.77
-1.00
3.64
7.93
11.63
14.53
16.53
17.65
17.96
17.59
16.69
15.42
13.96
12.48
11.10
9.85
8.68
7.49
6.20
4.72
3.05
1.21
-0.73
-2.64
-4.36
-5.71
-6.56
-6.90
-6.88
-6.73
-6.68
-6.88
-7.32
-7.85
-8.25
-8.33
-7.97
-7.17
-6.05
-4.75
-3.38
-1.99
-0.51
1.15
3.06
5.19
7.38
9.32
10.73
11.33
11.01
9.80
7.88
5.52
3.03
0.67
-1.31
-2.78
-3.76
-4.35
-4.79
-5.29
-6.06
-7.18
-8.62
-10.33
-12.20
-14.13
-16.03
-17.88
-19.63
-21.27
-22.75
-23.93
-24.64
-24.62
-23.66
-21.61
-18.49
-14.48
-9.86
-4.91
0.12
5.06
9.81
14.27
18.33
21.87
24.71
26.71
27.76
27.90
27.25
26.07
24.61
23.07
21.56
20.09
18.66
17.30
16.01
14.81
13.66
12.43
10.96
9.14
6.93
4.35
1.48
-1.65
-5.02
-8.62
-12.33
-15.89
-18.95
-21.14
-22.23
-22.15
-21.01
-19.02
-16.40
-13.29
-9.81
-5.99
-1.86
2.49
6.92
11.20
15.04
18.13
20.26
21.40
21.66
21.33
20.71
20.05
19.49
19.07
18.76
18.48
18.11
17.52
16.58
15.22
13.43
11.32
9.02
6.72
4.51
2.42
0.35
-1.85
-4.37
-7.31
-10.67
-14.26
-17.76
-20.82
-23.09
-24.35
-24.50
-23.56
-21.57
-18.61
-14.76
-10.17
-5.05
0.32
5.63
10.60
15.01
18.71
21.63
23.74
25.04
25.58
25.51
25.06
24.46
23.89
23.41
22.96
22.37
21.55
20.44
19.12
17.71
16.28
14.89
13.49
12.05
10.52
8.88
7.11
5.19
3.12
0.86
-1.63
-4.40
-7.46
-10.78
-14.20
-17.43
-20.12
-21.93
-22.66
-22.27
-20.92
-18.83
-16.18
-13.10
-9.65
-5.89
-1.91
2.14
6.06
9.63
12.66
15.03
16.65
17.53
17.76
17.50
16.98
16.39
15.86
15.44
15.10
14.75
14.30
13.64
12.76
11.63
10.29
8.79
7.19
5.55
3.93
2.39
0.94
-0.43
-1.77
-3.13
-4.53
-5.98
-7.48
-9.07
-10.80
-12.68
-14.68
-16.61
-18.23
-19.28
-19.52
-18.83
-17.18
-14.63
-11.34
-7.52
-3.43
0.63
4.37
7.55
10.06
11.87
13.04
13.73
14.09
14.28
14.39
14.41
14.31
13.99
13.42
12.63
11.70
10.71
9.70
8.70
7.70
6.71
5.75
4.84
3.97
3.07
2.06
0.86
-0.53
-2.07
-3.69
-5.31
-6.92
-8.51
-10.14
-11.83
-13.56
-15.25
-16.74
-17.81
-18.29
-18.05
-17.12
-15.64
-13.79
-11.77
-9.72
-7.67
-5.60
-3.47
-1.29
0.87
2.89
4.63
6.05
7.12
7.90
8.40
8.60
8.48
8.06
7.45
6.86
6.49
6.45
6.74
7.17
7.49
7.45
6.89
5.79
4.27
2.58
0.99
-0.24
-1.02
-1.44
-1.79
-2.40
-3.51
-5.18
-7.32
-9.68
-12.04
-14.21
-16.06
-17.45
-18.22
-18.27
-17.60
-16.38
-14.84
-13.25
-11.66
-9.95
-7.91
-5.38
-2.37
0.86
3.90
6.33
7.89
8.52
8.40
7.88
7.34
7.05
7.13
7.51
7.96
8.21
8.11
7.68
7.03
6.34
5.71
5.15
4.60
4.00
3.30
2.57
1.84
1.12
0.38
-0.48
-1.51
-2.71
-4.06
-5.54
-7.11
-8.75
-10.47
-12.20
-13.84
-15.19
-16.03
-16.19
-15.60
-14.30
-12.47
-10.37
-8.20
-6.09
-4.09
-2.17
-0.32
1.45
3.10
4.52
5.68
6.56
7.18
7.59
7.84
7.97
7.96
7.79
7.42
6.87
6.20
5.54
4.99
4.63
4.42
4.27
4.03
3.59
2.92
2.04
1.02
-0.09
-1.28
-2.52
-3.81
-5.10
-6.30
-7.38
-8.39
-9.43
-10.67
-12.15
-13.75
-15.21
-16.16
-16.31
-15.56
-14.01
-11.91
-9.54
-7.13
-4.82
-2.68
-0.73
1.00
2.51
3.75
4.72
5.40
5.78
5.87
5.76
5.55
5.34
5.18
5.07
4.95
4.78
4.58
4.44
4.43
4.50
4.48
4.12
3.21
1.74
-0.03
-1.71
-2.91
-3.49
-3.57
-3.52
-3.72
-4.42
-5.67
-7.31
-9.12
-10.88
-12.42
-13.59
-14.29
-14.42
-13.95
-12.90
-11.37
-9.48
-7.35
-5.09
-2.83
-0.69
1.24
2.90
4.33
5.59
6.69
7.59
8.16
8.32
8.06
7.50
6.87
6.35
6.03
5.85
5.70
5.41
4.92
4.22
3.37
2.43
1.44
0.45
-0.53
-1.47
-2.32
-3.09
-3.82
-4.64
-5.75
-7.28
-9.23
-11.43
-13.59
-15.40
-16.69
-17.45
-17.82
-17.95
-17.86
-17.49
-16.67
-15.29
-13.35
-11.02
-8.53
-6.11
-3.92
-2.00
-0.36
1.03
2.15
2.98
3.52
3.88
4.20
4.68
5.38
6.21
6.94
7.33
7.25
6.79
6.20
5.75
5.58
5.67
5.84
5.89
5.66
5.11
4.30
3.28
2.12
0.85
-0.50
-1.90
-3.34
-4.81
-6.31
-7.81
-9.24
-10.46
-11.33
-11.72
-11.56
-10.81
-9.51
-7.67
-5.34
-2.64
0.23
3.01
5.43
7.32
8.68
9.62
10.35
11.06
11.85
12.72
13.61
14.40
15.02
15.39
15.52
15.45
15.30
15.16
15.15
15.28
15.54
15.88
16.23
16.58
16.89
17.11
17.12
16.74
15.85
14.44
12.65
10.75
9.00
7.58
6.51
5.67
4.91
4.14
3.41
2.85
2.58
2.62
2.82
2.91
2.65
1.95
0.84
-0.49
-1.90
-3.30
-4.69
-6.06
-7.29
-8.24
-8.79
-9.00
-9.10
-9.39
-10.07
-11.09
-12.22
-13.10
-13.57
-13.65
-13.54
-13.44
-13.41
-13.34
-13.09
-12.56
-11.84
-11.18
-10.88
-11.18
-12.15
-13.67
-15.43
-17.05
-18.17
-18.53
-18.06
-16.85
-15.07
-12.91
-10.52
-8.02
-5.54
-3.25
-1.33
0.07
0.89
1.16
1.01
0.62
0.11
-0.40
-0.90
-1.38
-1.88
-2.47
-3.17
-4.00
-4.92
-5.88
-6.81
-7.64
-8.37
-9.01
-9.62
-10.29
-11.15
-12.30
-13.83
-15.77
-18.08
-20.70
-23.45
-26.13
-28.44
-30.05
-30.72
-30.34
-28.97
-26.83
-24.16
-21.13
-17.80
-14.15
-10.23
-6.15
-2.13
1.56
4.70
7.18
8.99
10.25
11.08
11.62
11.95
12.18
12.39
12.61
12.84
13.00
12.94
12.47
11.49
9.95
8.00
5.84
3.69
1.68
-0.19
-2.00
-3.89
-5.95
-8.25
-10.76
-13.44
-16.14
-18.64
-20.66
-21.88
-22.04
-21.04
-18.93
-15.92
-12.31
-8.35
-4.23
-0.03
4.22
8.51
12.75
16.81
20.48
23.57
25.96
27.58
28.47
28.70
28.38
27.62
26.59
25.44
24.32
23.28
22.26
21.08
19.54
17.51
15.00
12.15
9.17
6.27
3.56
1.03
-1.43
-3.98
-6.77
-9.89
-13.32
-16.88
-20.22
-22.91
-24.50
-24.74
-23.60
-21.25
-18.02
-14.22
-10.11
-5.86
-1.61
2.53
6.50
10.23
13.72
16.95
19.82
22.16
23.79
24.61
24.66
24.17
23.44
22.74
22.20
21.83
21.48
21.00
20.22
19.06
17.43
15.30
12.72
9.80
6.74
3.78
1.06
-1.39
-3.69
-6.03
-8.58
-11.41
-14.42
-17.36
-19.88
-21.65
-22.42
-22.09
-20.74
-18.54
-15.72
-12.45
-8.82
-4.84
-0.54
3.95
8.38
12.41
15.72
18.09
19.56
20.29
20.56
20.66
20.78
21.04
21.44
21.87
22.12
22.03
21.46
20.40
18.97
17.31
15.59
13.87
12.14
10.37
8.57
6.75
4.93
3.05
1.01
-1.33
-4.02
-7.00
-10.13
-13.22
-16.11
-18.67
-20.72
-22.03
-22.30
-21.33
-19.07
-15.74
-11.79
-7.66
-3.68
0.03
3.56
7.03
10.49
13.84
16.85
19.28
20.98
21.95
22.29
22.19
21.85
21.37
20.85
20.30
19.75
19.21
18.68
18.12
17.44
16.50
15.18
13.47
11.42
9.20
6.99
4.91
3.01
1.22
-0.55
-2.43
-4.56
-7.01
-9.79
-12.74
-15.59
-18.03
-19.73
-20.48
-20.19
-18.93
-16.87
-14.22
-11.21
-7.99
-4.66
-1.27
2.14
5.49
8.60
11.27
13.33
14.72
15.51
15.87
15.93
15.76
15.36
14.72
13.88
12.97
12.10
11.32
10.59
9.79
8.83
7.70
6.42
5.06
3.62
2.06
0.36
-1.46
-3.34
-5.20
-7.04
-8.96
-11.08
-13.49
-16.17
-18.90
-21.37
-23.23
-24.16
-24.00
-22.76
-20.62
-17.84
-14.71
-11.44
-8.09
-4.66
-1.12
2.49
6.02
9.25
11.93
13.89
15.11
15.61
15.54
15.01
14.13
13.02
11.78
10.58
9.56
8.87
8.53
8.44
8.44
8.30
7.86
7.03
5.84
4.41
2.83
1.17
-0.58
-2.50
-4.67
-7.13
-9.89
-12.93
-16.20
-19.64
-23.09
-26.27
-28.78
-30.24
-30.38
-29.20
-26.97
-24.07
-20.88
-17.59
-14.18
-10.55
-6.65
-2.59
1.31
4.71
7.31
9.05
10.08
10.74
11.42
12.43
13.88
15.74
17.78
19.78
21.53
22.91
23.79
24.04
23.53
22.21
20.16
17.63
15.01
12.64
10.71
9.18
7.86
6.49
4.94
3.18
1.30
-0.65
-2.65
-4.74
-6.92
-9.10
-11.09
-12.66
-13.60
-13.83
-13.35
-12.28
-10.77
-8.98
-7.03
-5.02
-3.03
-1.14
0.59
2.10
3.40
4.58
5.75
7.03
8.47
9.98
11.38
12.40
12.83
12.51
11.45
9.75
7.60
5.20
2.75
0.44
-1.60
-3.29
-4.61
-5.56
-6.20
-6.58
-6.74
-6.74
-6.65
-6.46
-6.22
-5.93
-5.64
-5.41
-5.33
-5.45
-5.79
-6.32
-6.95
-7.55
-7.96
-7.97
-7.39
-6.05
-3.94
-1.23
1.78
4.76
7.41
9.65
11.50
13.03
14.34
15.40
16.15
16.53
16.48
16.06
15.34
14.46
13.49
12.48
11.41
10.24
8.94
7.48
5.86
4.08
2.13
-0.01
-2.31
-4.70
-7.06
-9.25
-11.20
-12.88
-14.37
-15.76
-17.16
-18.64
-20.21
-21.77
-23.12
-23.97
-24.00
-23.00
-20.94
-18.01
-14.55
-10.97
-7.60
-4.68
-2.32
-0.53
0.71
1.51
2.02
2.49
3.09
3.91
4.88
5.80
6.42
6.59
6.31
5.73
5.12
4.70
4.58
4.68
4.75
4.54
3.84
2.63
1.05
-0.62
-2.17
-3.50
-4.67
-5.90
-7.37
-9.20
-11.32
-13.52
-15.55
-17.17
-18.22
-18.60
-18.29
-17.28
-15.58
-13.25
-10.41
-7.26
-4.07
-1.13
1.37
3.36
4.95
6.26
7.43
8.47
9.31
9.83
9.99
9.82
9.40
8.84
8.18
7.43
6.59
5.69
4.78
3.85
2.90
1.80
0.46
-1.20
-3.14
-5.20
-7.22
-9.03
-10.61
-12.04
-13.51
-15.20
-17.18
-19.37
-21.56
-23.45
-24.74
-25.20
-24.71
-23.29
-21.08
