1675344251.00
64.000000
-0.00
-0.00
-0.00
-0.00
-0.00
-0.00
-0.00
-0.00
-0.00
-0.00
0.00
0.01
0.01
-0.00
-0.03
-0.05
-0.05
0.00
0.13
0.36
0.66
1.01
1.37
1.72
2.06
2.40
2.79
3.24
3.80
4.42
5.06
5.66
6.20
6.68
7.15
7.68
8.31
9.14
10.09
11.04
11.88
12.56
13.14
13.76
14.65
15.96
17.91
20.32
22.90
25.38
27.58
29.57
31.68
34.32
37.81
42.54
48.15
54.10
59.83
64.97
69.58
74.14
79.34
85.71
93.76
103.00
112.62
121.73
129.77
136.75
143.30
150.75
157.77
166.64
177.95
191.79
206.97
220.57
228.25
225.36
208.53
176.87
132.76
80.05
23.07
-34.94
-92.44
-149.16
-205.23
-260.37
-313.74
-363.87
-409.83
-450.91
-486.50
-515.74
-537.23
-549.22
-549.96
-538.37
-514.21
-478.67
-433.88
-382.45
-327.02
-269.84
-212.63
-156.66
-102.95
-52.37
-5.90
35.58
71.43
101.35
125.50
144.38
158.69
169.15
176.37
180.75
182.57
182.07
179.51
175.23
169.65
163.18
156.15
148.81
141.30
133.69
126.02
118.33
110.69
103.16
95.80
88.68
81.83
75.25
68.95
62.95
57.25
51.86
46.78
42.03
37.59
33.45
29.61
26.07
22.81
19.83
17.11
14.67
12.48
10.54
8.83
7.35
6.07
4.97
4.05
3.27
2.62
2.09
1.65
1.30
1.01
0.79
0.61
0.47
0.37
0.29
0.23
0.19
0.17
0.16
0.16
0.17
0.19
0.21
0.24
0.28
0.32
0.36
0.40
0.45
0.50
0.54
0.59
0.64
0.70
0.76
0.82
0.89
0.97
1.06
1.15
1.26
1.37
1.50
1.65
1.82
2.01
2.21
2.44
2.69
2.96
3.27
3.62
4.01
4.43
4.86
5.30
5.74
6.18
6.66
7.19
7.80
8.49
9.25
10.04
10.86
11.68
12.50
13.37
14.34
15.41
16.59
17.85
19.11
20.28
21.27
22.03
22.51
22.66
22.42
21.67
20.26
18.03
14.85
10.76
5.88
0.56
-4.79
-9.80
-14.25
-18.13
-21.56
-24.73
-27.70
-30.39
-32.55
-33.89
-34.23
-33.67
-32.61
-31.62
-31.22
-31.67
-32.84
-34.26
-35.38
-35.82
-35.53
-34.79
-34.11
-33.95
-34.72
-36.71
-40.01
-44.33
-48.70
-51.36
-50.25
-43.82
-31.89
-16.01
1.03
16.20
27.47
34.35
37.75
39.12
39.57
39.48
38.61
36.73
33.99
30.96
28.34
26.50
25.33
24.36
23.03
21.05
18.57
16.10
14.23
13.36
13.47
14.17
14.88
15.12
14.72
13.82
12.85
12.14
11.77
11.51
10.96
9.80
7.94
5.60
3.18
1.06
-0.59
-1.84
-3.01
-4.47
-6.55
-9.39
-12.88
-16.65
-20.14
-22.76
-23.95
-23.45
-21.26
-17.65
-13.05
-7.93
-2.68
2.38
6.97
10.88
13.97
16.18
17.58
18.27
18.34
17.83
16.75
15.16
13.25
11.25
9.37
7.75
6.38
5.22
4.31
3.70
3.42
3.34
3.16
2.49
1.08
-1.07
-3.67
-6.34
-8.78
-10.93
-12.88
-14.83
-16.92
-19.24
-21.81
-24.62
-27.61
-30.62
-33.33
-35.36
-36.24
-35.59
-33.21
-29.05
-23.27
-16.17
-8.21
0.04
7.90
14.76
20.08
23.57
25.21
25.23
24.04
22.13
19.92
17.71
15.66
13.80
12.11
10.60
9.30
8.24
7.42
6.80
6.25
5.66
4.91
3.94
2.73
1.28
-0.45
-2.49
-4.86
-7.56
-10.45
-13.43
-16.41
-19.39
-22.49
-25.87
-29.59
-33.47
-37.01
-39.48
-40.07
-38.25
-33.90
-27.44
-19.64
-11.37
-3.33
4.07
10.67
16.38
21.08
24.55
26.64
27.35
26.98
26.02
24.97
24.18
23.72
23.47
23.21
22.85
22.36
21.89
21.52
21.26
21.03
20.67
20.04
19.08
17.79
16.19
14.32
12.12
9.53
6.50
3.04
-0.72
-4.55
-8.20
-11.54
-14.60
-17.59
-20.78
-24.36
-28.26
-32.11
-35.28
-37.05
-36.80
-34.17
-29.20
-22.30
-14.19
-5.80
2.05
8.72
13.92
17.67
20.21
21.81
22.72
23.06
22.87
22.21
21.18
19.91
18.55
17.21
15.98
14.96
14.26
13.98
14.13
14.66
15.31
15.76
15.71
14.98
13.54
11.59
9.38
7.20
5.19
3.34
1.45
-0.75
-3.46
-6.70
-10.18
-13.47
-16.12
-17.94
-19.10
-20.05
-21.32
-23.30
-26.00
-29.06
-31.90
-33.83
-34.25
-32.74
-29.13
-23.58
-16.54
-8.75
-1.05
5.73
11.01
14.51
16.27
16.63
16.04
15.01
14.01
13.32
13.03
13.01
13.02
12.80
12.22
11.32
10.29
9.37
8.76
8.55
8.68
8.96
9.06
8.60
7.24
4.84
1.52
-2.32
-6.17
-9.60
-12.43
-14.76
-16.85
-18.97
-21.25
-23.64
-26.01
-28.32
-30.75
-33.65
-37.43
-42.31
-48.10
-54.15
-59.36
-62.45
-62.31
-58.36
-50.88
-40.89
-29.85
-19.13
-9.59
-1.39
5.84
12.53
18.79
24.15
27.86
29.19
27.96
24.68
20.39
16.16
12.67
9.85
6.97
2.98
-2.91
-10.83
-19.91
-28.67
-35.75
-40.43
-43.06
-44.86
-47.53
-52.57
-60.76
-71.70
-83.96
-95.34
-103.09
-104.28
-96.35
-78.25
-51.35
-19.80
10.70
34.43
47.63
49.80
43.67
33.67
23.86
16.34
10.92
7.02
4.02
1.61
-0.18
-1.17
-1.22
-0.58
0.27
0.81
2.66
7.57
16.05
26.82
37.63
46.44
51.69
52.77
49.71
46.05
45.23
48.62
55.06
62.41
69.29
75.10
80.23
85.31
94.89
113.17
141.45
177.64
218.37
261.22
304.99
350.70
375.98
366.33
322.99
262.53
203.08
153.76
115.16
83.93
57.53
34.32
16.99
7.97
6.42
8.71
11.19
15.75
19.33
19.90
15.35
6.75
-4.46
-18.76
-38.62
-65.79
-99.81
-138.80
-179.21
-218.10
-252.53
-272.95
-275.73
-264.98
-247.80
-229.14
-210.21
-188.84
-163.08
-132.16
-100.96
-71.81
-48.35
-32.79
-25.04
-23.57
-25.85
-29.68
-33.28
-35.71
-35.39
-33.02
-29.48
-25.30
-20.86
-16.27
-11.72
-7.54
-4.05
-1.80
-1.80
-4.14
-7.96
-12.03
-15.26
-17.20
-18.15
-18.72
-19.57
-21.51
-24.56
-28.10
-31.40
-34.00
-35.90
-37.40
-38.88
-40.57
-42.78
-45.60
-48.98
-52.87
-57.23
-61.79
-65.96
-68.70
-68.75
-65.13
-57.38
-45.76
-31.14
-14.83
1.79
17.53
31.52
43.26
52.53
59.32
63.81
66.28
67.13
66.81
65.81
64.57
63.39
62.32
61.28
60.10
58.68
57.09
55.46
53.96
52.59
51.17
49.39
46.97
43.77
39.87
35.53
31.06
26.70
22.53
18.47
14.32
9.90
5.15
0.17
-4.81
-9.54
-13.83
-17.58
-20.87
-23.87
-26.96
-30.55
-35.02
-40.43
-46.33
-51.81
-55.71
-57.01
-55.22
-50.61
-43.97
-36.30
-28.46
-20.79
-13.46
-6.69
-1.04
3.06
5.27
5.52
4.07
1.59
-0.80
-2.04
-1.53
0.60
3.90
7.66
11.11
13.61
14.77
14.93
14.28
12.64
9.24
3.93
-3.03
-11.08
-19.81
-28.95
-37.19
-44.04
-50.16
-57.75
-67.19
-77.90
-88.81
-99.23
-108.83
-115.03
-116.80
-115.43
-115.48
-117.73
-120.86
-122.33
-119.99
-112.13
-93.41
-61.05
-16.26
33.93
87.62
144.90
206.49
271.17
335.94
401.58
465.18
519.31
550.92
556.70
539.83
507.69
467.68
391.72
271.68
123.57
1.84
-90.84
-163.68
-231.60
-298.86
-365.00
-425.46
-467.56
-481.16
-463.71
-424.96
-372.96
-315.81
-260.21
-211.56
-172.43
-138.76
-107.25
-78.01
-56.79
-44.05
-37.77
-34.92
-33.96
-34.58
-34.44
-32.28
-28.51
-26.12
-24.50
-21.83
-16.36
-7.82
3.13
16.68
32.40
48.90
63.33
74.52
82.10
86.20
86.88
84.42
79.83
74.19
68.44
63.15
59.67
59.60
64.32
74.31
88.84
105.98
123.00
137.16
146.42
149.86
147.64
140.62
129.87
116.56
101.94
87.54
75.01
65.79
60.57
58.94
59.49
60.39
60.11
57.94
54.04
49.13
43.97
39.03
34.52
30.66
27.98
27.36
29.75
35.65
44.81
56.13
68.03
78.93
87.69
93.88
97.71
99.78
100.80
101.34
101.55
101.09
98.97
93.69
83.45
66.67
42.51
11.35
-24.96
-63.33
-99.89
-130.89
-153.51
-166.49
-170.27
-166.78
-158.67
-148.61
-138.65
-129.89
-122.64
-116.63
-111.49
-107.01
-103.33
-101.01
-100.77
-103.28
-108.75
-116.66
-125.72
-134.14
-140.01
-141.76
-138.51
-130.15
-117.31
-101.25
-83.57
-65.93
-49.72
-35.82
-24.47
-15.50
-8.49
-3.16
0.60
2.80
3.45
2.70
0.85
-1.73
-4.49
-6.77
-7.70
-6.42
-2.39
4.30
12.78
21.58
29.05
33.83
35.21
33.26
28.93
24.09
21.44
24.12
34.94
55.40
84.75
119.65
154.63
183.33
200.01
201.14
186.14
157.35
119.07
76.29
33.38
-6.54
-41.51
-70.34
-91.98
-105.40
-109.88
-105.48
-93.34
-75.52
-54.46
-32.39
-11.26
7.08
20.72
27.88
27.64
20.69
9.59
-1.70
-9.20
-10.34
-4.91
5.01
16.01
24.85
29.53
29.68
26.19
20.38
13.36
5.76
-2.11
-9.89
-16.99
-22.61
-26.13
-27.44
-26.96
-25.40
-23.14
-20.11
-15.92
-10.35
-3.78
2.80
8.12
11.24
11.73
9.62
5.02
-2.07
-11.49
-22.46
-33.36
-42.06
-46.88
-47.43
-44.87
-41.25
-38.34
-36.69
-35.48
-33.35
-29.51
-24.39
-19.44
-16.15
-15.08
-15.45
-15.66
-14.19
-10.47
-5.18
0.30
4.58
6.82
6.97
5.41
2.71
-0.62
-4.04
-6.77
-7.80
-6.12
-1.14
6.97
17.21
28.05
37.95
45.89
51.72
56.04
59.80
63.80
68.28
72.77
76.32
77.95
77.11
74.07
70.04
66.87
66.61
70.84
80.20
94.03
110.59
127.52
142.54
153.99
160.91
162.71
158.70
147.86
129.12
102.12
67.88
29.09
-10.33
-46.21
-74.99
-94.27
-102.78
-100.42
-88.34
-69.27
-47.71
-29.16
-18.53
-18.36
-27.62
-42.17
-56.49
-65.97
-68.57
-64.90
-57.16
-47.65
-37.69
-27.68
-17.62
-7.84
0.83
7.45
11.49
13.17
13.45
13.70
15.28
19.18
25.71
34.36
43.83
52.42
58.54
61.27
60.62
57.31
52.26
46.04
38.71
30.06
20.00
8.89
-2.58
-13.82
-24.75
-35.85
-47.81
-60.89
-74.55
-87.52
-98.22
-105.44
-108.75
-108.55
-105.76
-101.32
-95.82
-89.25
-81.15
-70.87
-58.04
-42.87
-26.27
-9.69
5.33
17.64
26.74
32.81
36.43
38.27
38.82
38.39
37.17
35.38
33.24
30.86
28.12
24.72
20.35
15.00
9.13
3.68
-0.27
-1.90
-1.06
1.62
4.97
7.71
8.90
8.19
5.82
2.35
-1.54
-5.37
-8.88
-12.04
-14.95
-17.81
-20.81
-24.12
-27.77
-31.63
-35.42
-38.78
-41.45
-43.37
-44.77
-46.10
-47.92
-50.53
-53.80
-57.05
-59.10
-58.71
-54.95
-47.61
-37.18
-24.78
-11.69
0.87
12.02
21.28
28.45
33.56
36.84
38.62
39.35
39.48
39.35
39.23
39.23
39.40
39.71
40.02
40.21
40.14
39.79
39.24
38.64
38.10
37.59
36.93
35.86
34.18
31.82
28.88
25.63
22.36
19.30
16.64
14.46
12.74
11.38
10.08
8.49
6.22
3.03
-1.06
-5.68
-10.26
-14.19
-17.10
-18.96
-20.24
-21.60
-23.75
-27.07
-31.46
-36.36
-40.89
-44.12
-45.37
-44.33
-41.13
-36.23
-30.32
-24.17
-18.40
-13.44
-9.42
-6.27
-3.83
-2.02
-0.90
-0.66
-1.41
-3.07
-5.31
-7.63
-9.55
-10.74
-11.08
-10.59
-9.43
-7.70
-5.56
-3.19
-0.85
1.24
2.95
4.26
5.27
6.10
6.84
7.46
7.87
7.94
7.61
6.88
5.84
4.61
3.29
1.86
0.23
-1.76
-4.26
-7.30
-10.75
-14.35
-17.81
-20.87
-23.40
-25.37
-26.94
-28.31
-29.72
-31.36
-33.32
-35.48
-37.52
-38.93
-39.10
-37.51
-33.82
-28.08
-20.72
-12.49
-4.27
3.13
9.21
13.79
17.06
19.32
20.86
21.84
22.34
22.38
22.06
21.51
20.88
20.33
19.91
19.63
19.50
19.52
19.70
19.99
20.25
20.30
19.95
19.08
17.73
16.08
14.43
13.02
11.96
11.15
10.33
9.21
7.61
5.56
3.24
0.92
-1.20
-3.04
-4.62
-6.08
-7.52
-9.03
-10.62
-12.28
-13.96
-15.60
-17.16
-18.68
-20.26
-22.09
-24.35
-27.10
-30.19
-33.18
-35.40
-36.16
-34.94
-31.59
-26.40
-20.00
-13.16
-6.53
-0.54
4.59
8.80
12.02
14.19
15.28
15.37
14.70
13.56
12.25
10.98
9.82
8.86
8.15
7.77
7.82
8.29
9.05
9.86
10.46
10.63
10.27
9.42
8.17
6.68
5.03
3.28
1.40
-0.63
-2.83
-5.17
-7.58
-9.97
-12.26
-14.41
-16.41
-18.28
-20.08
-21.90
-23.77
-25.63
-27.31
-28.55
-29.18
-29.16
-28.75
-28.38
-28.50
-29.38
-30.91
-32.65
-33.84
-33.68
-31.44
-26.69
-19.38
-9.81
1.32
13.13
24.66
35.09
43.77
50.30
54.46
56.23
55.75
53.40
49.77
45.54
41.39
37.78
34.87
32.54
30.50
28.51
26.38
24.11
21.74
19.37
17.04
14.73
12.40
9.97
7.40
4.68
1.92
-0.80
-3.41
-5.93
-8.45
-11.04
-13.68
-16.26
-18.59
-20.52
-22.05
-23.32
-24.49
-25.70
-26.98
-28.26
-29.49
-30.70
-32.04
-33.75
-36.00
-38.84
-42.01
-45.00
-47.09
-47.55
-45.90
-41.99
-36.10
-28.78
-20.72
-12.57
-4.87
1.94
7.55
11.84
14.86
16.82
18.02
18.70
19.03
19.04
18.78
18.35
17.93
17.74
17.94
18.56
19.55
20.78
22.10
23.35
24.39
25.08
25.34
25.16
24.53
23.51
22.15
20.55
18.80
16.96
15.05
13.09
11.09
9.19
7.62
6.71
6.62
7.17
7.79
7.62
5.72
1.37
-5.74
-15.44
-27.13
-39.83
-52.27
-63.13
-71.14
-75.45
-75.72
-72.25
-65.81
-57.45
-48.25
-39.07
-30.50
-22.87
-16.28
-10.72
-6.14
-2.49
0.26
2.22
3.54
4.49
5.36
6.37
7.63
9.17
10.94
12.87
14.87
16.80
18.50
19.82
20.65
21.02
20.96
20.51
19.67
18.43
16.79
14.85
12.73
10.47
7.95
4.96
1.36
-2.82
-7.24
-11.39
-14.83
-17.42
-19.37
-21.24
-23.66
-27.12
-31.74
-37.24
-42.88
-47.65
-50.49
-50.51
-47.26
-40.82
-31.80
-21.19
-10.16
0.21
9.11
16.04
20.97
24.10
25.82
26.56
26.62
26.17
25.29
24.03
22.49
20.86
19.41
18.42
18.15
18.71
20.06
21.90
23.75
25.09
25.46
24.70
22.94
20.51
17.84
15.25
12.87
10.61
8.26
5.54
2.23
-1.74
-6.26
-11.05
-15.73
-19.91
-23.37
-26.09
-28.36
-30.66
-33.53
-37.41
-42.39
-48.09
-53.61
-57.74
-59.19
-57.07
-51.11
-41.84
-30.34
-17.95
-5.93
4.84
13.88
21.05
26.44
30.22
32.55
33.64
33.73
33.11
32.17
31.28
30.83
31.07
32.15
34.03
36.54
39.38
42.25
44.86
46.99
48.48
49.18
48.94
47.59
44.98
41.03
35.86
29.77
23.29
16.97
11.32
6.61
2.90
0.09
-2.00
-3.48
-4.47
-5.01
-5.28
-5.48
-5.83
-6.42
-7.02
-7.06
-5.74
-2.23
4.02
13.16
24.78
38.09
51.95
65.03
75.92
83.18
85.56
82.23
73.09
58.88
41.09
21.60
2.20
-15.73
-31.44
-44.62
-55.22
-63.24
-68.70
-71.74
-72.67
-72.01
-70.31
-68.03
-65.41
-62.53
-59.36
-55.91
-52.32
-48.82
-45.72
-43.25
-41.54
-40.63
-40.42
-40.72
-41.29
-41.83
-42.11
-42.02
-41.60
-41.10
-40.86
-41.18
-42.14
-43.43
-44.40
-44.21
-42.08
-37.60
-30.82
-22.26
-12.67
-2.87
6.42
14.69
21.50
26.56
29.67
30.74
29.84
27.23
23.30
18.57
13.63
9.03
5.20
2.42
0.74
0.06
0.18
0.92
2.12
3.69
5.48
7.25
8.65
9.29
8.88
7.41
5.13
2.45
-0.22
-2.70
-5.01
-7.34
-9.91
-12.92
-16.46
-20.54
-25.00
-29.51
-33.41
-35.84
-35.91
-33.01
-27.08
-18.63
-8.59
2.02
12.27
21.50
29.24
35.17
39.08
40.98
41.09
39.82
37.72
35.31
32.97
30.92
29.24
27.91
26.88
26.05
25.33
24.67
24.06
23.57
23.22
23.00
22.72
22.10
20.86
18.78
15.81
12.06
7.78
3.29
-1.17
-5.44
-9.53
-13.60
-17.97
-22.90
-28.44
-34.25
-39.56
-43.33
-44.54
-42.59
-37.42
-29.52
-19.74
-9.05
1.63
11.52
20.02
26.69
31.33
33.98
34.94
34.63
33.51
32.02
30.48
29.12
28.08
27.38
26.94
26.61
26.26
25.84
25.41
25.04
24.77
24.48
23.96
22.95
21.24
18.72
15.43
11.54
7.26
2.82
-1.59
-5.87
-9.98
-13.99
-18.07
-22.48
-27.42
-32.89
-38.54
-43.56
-46.85
-47.34
-44.33
-37.76
-28.32
-17.16
-5.58
5.28
14.68
22.32
28.16
32.32
34.93
36.11
35.97
34.78
32.97
31.10
29.70
29.06
29.16
29.69
30.26
30.55
30.49
30.18
29.80
29.40
28.92
28.16
26.96
25.23
22.95
20.20
17.03
13.52
9.67
5.53
1.12
-3.43
-7.92
-12.07
-15.59
-18.39
-20.63
-22.75
-25.36
-28.93
-33.52
-38.63
-43.21
-45.96
-45.79
-42.14
-35.16
-25.69
-14.83
-3.74
6.71
15.92
23.51
29.19
32.84
34.57
34.76
34.03
33.06
32.30
31.92
31.83
31.85
31.89
32.00
32.30
32.91
33.86
35.15
36.71
38.43
40.05
41.20
41.40
40.29
37.75
33.93
29.23
24.09
18.88
13.79
8.88
4.15
-0.43
-4.84
-9.08
-13.21
-17.34
-21.61
-26.17
-31.10
-36.46
-42.31
-48.59
-55.03
-61.08
-65.82
-68.21
-67.36
-62.88
-55.09
-44.92
-33.60
-22.26
-11.73
-2.48
5.22
11.17
15.22
17.36
17.87
17.25
16.16
15.17
14.63
14.61
15.02
15.70
16.51
17.41
18.37
19.39
20.48
21.61
22.67
23.41
23.54
22.84
21.25
19.00
16.49
14.15
12.21
10.59
8.96
6.90
4.13
0.65
-3.27
-7.22
-10.83
-13.91
-16.44
-18.56
-20.52
-22.56
-24.99
-28.07
-31.91
-36.38
-40.90
-44.46
-45.91
-44.25
-39.08
-30.79
-20.41
-9.31
1.26
10.45
17.88
23.51
27.46
29.81
30.66
30.18
28.69
26.67
24.65
23.05
22.05
21.56
21.29
20.95
20.40
19.75
19.32
19.40
20.06
21.09
22.00
22.27
21.57
19.84
17.32
14.38
11.34
8.44
5.75
3.30
1.04
-1.10
-3.21
-5.42
-7.83
-10.48
-13.29
-16.11
-18.77
-21.11
-23.11
-24.91
-26.86
-29.34
-32.63
-36.66
-40.90
-44.40
-46.02
-44.81
-40.31
-32.72
-22.92
-12.17
-1.79
7.17
14.12
18.96
21.96
23.58
24.22
24.14
23.52
22.50
21.25
20.04
19.08
18.54
18.42
18.55
18.78
18.97
19.12
19.26
19.41
19.57
19.60
19.38
18.76
17.65
16.06
14.05
11.72
9.20
6.59
3.99
1.45
-1.07
-3.61
-6.24
-9.05
-11.98
-14.90
-17.62
-19.94
-21.79
-23.33
-24.85
-26.78
-29.47
-33.07
-37.38
-41.82
-45.47
-47.36
-46.60
-42.75
-35.92
-26.81
-16.51
-6.23
3.08
10.83
16.87
21.30
24.30
25.98
26.43
25.77
24.28
22.38
20.55
19.22
18.64
18.79
19.49
20.49
21.56
22.64
23.70
24.75
25.70
26.35
26.44
25.80
24.46
22.58
20.45
18.25
16.05
13.74
11.22
8.42
5.39
2.23
-0.97
-4.18
-7.39
-10.52
-13.43
-15.92
-17.94
-19.58
-21.19
-23.17
-25.82
-29.29
-33.41
-37.75
-41.61
-44.12
-44.43
-41.93
-36.46
-28.44
-18.83
-8.81
0.50
8.35
14.46
18.87
21.79
23.40
23.85
23.26
21.82
19.82
17.58
15.43
13.65
12.43
11.84
11.83
12.27
12.96
13.74
14.50
15.17
15.72
16.03
15.93
15.24
13.90
11.98
9.72
7.38
5.13
2.99
0.79
-1.62
-4.38
-7.41
-10.55
-13.57
-16.33
-18.82
-21.14
-23.43
-25.81
-28.41
-31.31
-34.58
-38.12
-41.57
-44.24
-45.23
-43.72
-39.25
-31.97
-22.62
-12.24
-1.98
7.28
14.96
20.79
24.75
26.92
27.48
26.75
25.14
23.10
21.08
19.31
17.88
16.74
15.84
15.17
14.86
15.01
15.60
16.45
17.20
17.51
17.20
16.29
14.93
13.32
11.56
9.66
7.60
5.38
3.03
0.53
-2.21
-5.32
-8.80
-12.44
-15.87
-18.71
-20.79
-22.24
-23.52
-25.16
-27.59
-30.89
-34.81
-38.77
-41.93
-43.48
-42.67
-39.13
-32.93
-24.64
-15.18
-5.60
3.19
10.59
16.31
20.34
22.81
23.97
24.06
23.38
22.18
20.67
19.04
17.39
15.83
14.47
13.41
12.73
12.51
12.82
13.62
14.80
16.07
17.08
17.46
16.96
15.57
13.48
10.97
8.33
5.68
3.05
0.32
-2.59
-5.73
-9.01
-12.27
-15.27
-17.83
-19.85
-21.38
-22.67
-24.04
-25.93
-28.60
-32.05
-35.87
-39.25
-41.18
-40.73
-37.41
-31.25
-22.93
-13.47
-3.96
4.69
11.96
17.65
21.75
24.32
25.43
25.11
23.50
20.83
17.49
13.96
10.70
8.10
6.36
5.54
5.57
6.29
7.53
9.11
10.80
12.31
13.31
13.49
12.67
10.89
8.43
5.75
3.27
1.25
-0.36
-1.83
-3.52
-5.72
-8.44
-11.52
-14.64
-17.55
-20.11
-22.42
-24.70
-27.21
-30.08
-33.24
-36.34
-38.73
-39.74
-38.73
-35.36
-29.60
-21.80
-12.64
-2.94
6.45
14.74
21.37
26.04
28.71
29.59
29.01
27.37
25.07
22.45
19.82
17.44
15.57
14.32
13.74
13.75
14.18
14.81
15.39
15.73
15.67
15.16
14.25
13.02
11.60
10.02
8.30
6.32
4.01
1.33
-1.66
-4.80
-7.94
-10.91
-13.70
-16.32
-18.90
-21.59
-24.52
-27.80
-31.39
-35.14
-38.62
-41.16
-41.99
-40.39
-36.04
-29.08
-20.22
-10.46
-0.90
7.60
14.47
19.47
22.63
24.09
24.11
22.98
21.06
18.77
16.53
14.67
13.41
12.79
12.66
12.82
13.06
13.25
13.35
13.43
13.51
13.60
13.61
13.42
12.92
12.01
10.63
8.71
6.21
3.15
-0.41
-4.27
-8.19
-11.87
-15.11
-17.84
-20.13
-22.19
-24.31
-26.81
-29.93
-33.68
-37.80
-41.62
-44.19
-44.51
-41.85
-36.06
-27.59
-17.51
-7.09
2.46
10.35
16.27
20.29
22.75
24.04
24.48
24.25
23.48
22.22
20.58
18.69
16.72
14.93
13.55
12.74
12.62
13.17
14.25
15.59
16.81
17.53
17.47
16.49
14.70
12.33
9.71
7.10
4.65
2.34
0.03
-2.46
-5.24
-8.25
-11.29
-14.07
-16.34
-18.02
-19.21
-20.22
-21.35
-22.80
-24.50
-26.06
-26.87
-26.24
-23.62
-18.86
-12.22
-4.42
3.59
10.88
16.74
20.81
23.11
23.87
23.43
22.11
20.11
17.49
14.16
9.91
4.54
-2.02
-9.54
-17.37
-24.52
-29.89
-32.61
-32.31
-29.24
-24.23
-18.40
-12.82
-8.25
-5.05
-3.23
-2.60
-2.90
-3.82
-5.12
-6.53
-7.82
-8.87
-9.66
-10.31
-10.98
-11.81
-12.81
-13.98
-15.36
-17.10
-19.52
-22.95
-27.51
-32.94
-38.47
-43.00
-45.34
-44.63
-40.56
-33.51
-24.31
-14.08
-3.88
5.40
13.16
19.04
22.93
24.98
25.55
25.12
24.18
23.12
22.21
21.59
21.30
21.38
21.80
22.49
23.35
24.25
25.10
25.84
26.45
26.92
27.21
27.26
26.92
26.10
24.64
22.48
19.60
16.07
12.07
7.91
3.94
0.42
-2.54
-5.09
-7.60
-10.52
-14.17
-18.57
-23.29
-27.54
-30.33
-30.79
-28.47
-23.46
-16.34
-8.04
0.53
8.61
15.71
21.54
25.94
28.76
29.93
29.58
27.99
25.59
22.87
20.20
17.83
15.87
14.38
13.41
12.97
13.02
13.42
13.92
14.30
14.40
14.19
13.70
12.91
11.75
10.06
7.70
4.63
0.96
-3.09
-7.20
-11.11
-14.65
-17.82
-20.80
-23.86
-27.35
-31.47
-36.20
-41.12
-45.48
-48.26
-48.52
-45.63
-39.54
-30.82
-20.48
-9.66
0.61
9.68
17.16
22.88
26.71
28.55
28.48
26.86
24.32
21.66
19.53
18.23
17.66
17.45
17.20
16.71
16.01
15.31
14.82
14.64
14.69
14.77
14.64
14.03
12.82
10.94
8.42
5.36
1.86
-1.96
-5.97
-9.97
-13.79
-17.26
-20.44
-23.57
-26.96
-30.77
-34.75
-38.14
-39.85
-38.83
-34.53
-27.18
-17.70
-7.37
2.56
11.25
18.32
23.74
27.60
30.01
31.02
30.73
29.39
27.39
25.20
23.21
21.65
20.55
19.78
19.15
18.50
17.81
17.20
16.85
16.88
17.27
17.74
17.90
17.32
15.71
13.05
9.57
5.64
1.66
-2.14
-5.66
-8.91
-11.96
-14.90
-17.87
-21.05
-24.67
-28.81
-33.27
-37.43
-40.32
-40.88
-38.33
-32.51
-24.00
-13.98
-3.81
5.36
12.82
18.37
22.10
24.22
24.91
24.32
22.66
20.28
17.61
15.11
13.11
11.68
10.73
10.05
9.44
8.83
8.27
7.91
7.84
8.02
8.25
8.25
7.66
6.28
4.08
1.22
-2.01
-5.30
-8.47
-11.51
-14.53
-17.71
-21.18
-24.96
-28.93
-32.81
-36.13
-38.23
-38.38
-35.91
-30.50
-22.34
-12.24
-1.36
9.08
18.12
25.33
30.69
34.41
36.70
37.63
37.16
35.33
32.34
28.62
24.79
21.52
19.28
18.31
18.49
19.44
20.64
21.63
22.08
21.84
20.93
19.35
17.05
14.00
10.16
5.63
0.62
-4.54
-9.49
-13.96
-17.82
-21.18
-24.31
-27.63
-31.52
-36.22
-41.61
-47.19
-52.11
-55.35
-56.01
-53.54
-47.92
-39.63
-29.57
-18.80
-8.33
1.03
8.77
14.67
18.73
21.15
22.18
22.16
21.41
20.24
18.91
17.61
16.49
15.67
15.21
15.14
15.37
15.76
16.08
16.09
15.64
14.72
13.46
12.03
10.47
8.64
6.28
3.19
-0.61
-4.82
-8.90
-12.41
-15.12
-17.20
-19.10
-21.40
-24.54
-28.68
-33.59
-38.64
-42.94
-45.43
-45.23
-41.77
-35.06
-25.69
-14.72
-3.41
7.11
16.02
22.96
27.92
31.13
32.91
33.59
33.50
32.94
32.16
31.37
30.63
29.91
29.17
28.42
27.76
27.44
27.67
28.52
29.80
31.14
32.04
32.12
31.16
29.17
26.34
22.92
19.20
15.50
12.18
9.57
7.81
6.77
5.89
4.39
1.45
-3.43
-10.22
-18.45
-27.41
-36.42
-45.06
-52.97
-59.67
-64.40
-66.23
-64.35
-58.52
-49.33
-38.03
-26.18
-15.15
-5.81
1.52
6.85
10.33
12.12
12.39
11.41
9.61
7.56
5.84
4.93
5.07
6.18
7.99
10.09
12.11
13.86
15.33
16.63
17.85
18.93
19.63
19.65
18.78
17.02
14.62
11.95
9.32
6.86
4.44
1.84
-1.10
-4.32
-7.56
-10.51
-12.95
-14.95
-16.86
-19.17
-22.34
-26.56
-31.63
-36.97
-41.70
-44.89
-45.71
-43.70
-38.87
-31.66
-22.89
-13.52
-4.46
3.58
10.12
14.88
17.78
18.87
18.40
16.75
14.44
11.97
9.74
7.95
6.64
5.79
5.33
5.27
5.68
6.54
7.70
8.86
9.56
9.33
7.87
5.14
1.42
-2.78
-6.90
-10.61
-13.98
-17.50
-21.82
-27.42
-34.25
-41.69
-48.72
-54.37
-58.13
-60.24
-61.60
-63.54
-67.26
-73.51
-82.17
-92.17
-101.64
-108.25
-109.86
-105.13
-94.11
-78.39
-60.60
-43.35
-27.99
-13.67
2.73
25.45
57.88
100.46
149.62
198.37
238.71
264.57
274.05
269.60
256.27
239.04
220.72
201.37
179.28
152.47
119.87
81.48
37.92
-9.88
-60.36
-110.69
-156.70
-193.65
-218.11
-229.63
-231.22
-228.07
-225.21
-225.29
-227.78
-230.01
-229.26
-224.51
-216.70
-207.51
-197.24
-183.79
-163.20
-131.45
-86.55
-29.32
37.12
108.71
181.47
251.70
315.39
367.92
404.57
421.84
418.84
397.87
363.88
323.03
281.37
244.00
214.72
195.89
188.12
189.79
197.11
204.85
208.05
203.77
192.08
175.66
158.44
143.51
131.93
122.67
113.83
104.09
93.61
83.78
76.09
71.07
67.87
64.88
60.83
55.66
50.66
47.82
48.90
54.68
64.84
78.14
92.91
107.50
120.59
131.40
139.77
146.07
150.95
154.83
157.47
157.72
153.86
144.13
127.50
104.18
75.67
44.16
11.88
-19.65
-49.81
-78.73
-106.85
-134.64
-162.66
-191.57
-221.70
-252.22
-280.22
-300.92
-309.07
-301.46
-279.08
-247.64
-215.87
-192.30
-182.14
-185.91
-200.15
-219.66
-240.05
-258.87
-275.63
-291.03
-306.03
-321.77
-340.08
-363.71
-395.79
-438.18
-489.23
-542.59
-587.98
-614.30
-613.94
-586.09
-537.23
-478.36
-420.36
-369.83
-327.46
-289.32
-250.15
-206.51
-158.32
-108.61
-61.93
-22.59
6.55
24.54
32.37
32.60
28.59
23.86
21.34
22.83
28.69
37.82
47.70
54.74
55.27
46.98
30.35
9.25
-9.90
-20.27
-17.17
0.40
29.64
65.66
103.60
140.41
175.26
209.01
243.15
278.98
317.10
357.06
397.18
434.51
465.30
486.11
494.97
492.03
479.23
459.24
434.14
404.87
371.59
334.55
294.80
254.15
214.48
176.98
141.90
109.03
78.41
50.79
27.36
9.04
-4.32
-14.25
-23.10
-33.09
-45.34
-59.39
-73.38
-84.95
-92.27
-94.88
-93.99
-92.03
-91.79
-95.37
-103.49
-115.33
-128.88
-141.62
-151.30
-156.56
-157.06
-153.37
-146.36
-136.69
-124.49
-109.62
-92.18
-73.22
-54.93
-39.98
-30.58
-27.42
-29.50
-34.78
-41.10
-46.52
-49.07
-46.43
-36.47
-18.87
3.42
24.18
36.32
35.61
23.60
7.51
-3.42
-3.18
7.10
19.40
22.87
9.58
-21.44
-64.02
-108.46
-146.24
-173.39
-190.98
-202.81
-212.41
-220.98
-227.08
-228.24
-222.85
-211.41
-196.28
-180.33
-165.40
-151.32
-136.38
-118.41
-96.37
-71.17
-45.47
-22.56
-5.05
6.27
12.55
16.19
19.70
24.67
31.26
38.47
44.88
49.39
51.80
52.67
53.04
53.85
55.55
57.98
60.58
62.63
63.57
63.15
61.42
58.60
55.05
51.09
46.96
42.74
38.39
33.60
28.00
21.21
13.11
4.01
-5.30
-13.64
-19.73
-22.48
-21.34
-16.37
-8.16
2.38
14.25
26.60
38.75
50.14
60.33
68.91
75.58
80.18
82.78
83.66
83.25
82.00
80.32
78.47
76.64
74.93
73.38
72.02
70.85
69.81
68.81
67.68
66.25
64.36
61.90
58.79
55.09
50.87
46.26
41.41
36.41
31.38
26.39
21.49
16.62
11.58
6.07
-0.20
-7.23
-14.58
-21.31
-26.23
-28.25
-26.76
-21.76
-13.80
-3.76
7.45
19.02
30.27
40.59
49.47
56.48
61.48
64.56
66.09
66.51
66.23
65.51
64.46
63.09
61.42
59.54
57.62
55.87
54.50
53.62
53.17
52.98
52.72
52.03
50.57
48.21
45.01
41.26
37.29
33.36
29.51
25.58
21.38
16.83
12.11
7.60
3.71
0.71
-1.39
-2.88
-4.20
-5.85
-8.22
-11.47
-15.50
-19.88
-23.89
-26.64
-27.20
-24.92
-19.60
-11.56
-1.57
9.43
20.52
31.03
40.50
48.63
55.15
59.82
62.45
63.07
62.00
59.81
57.22
54.81
52.96
51.71
50.90
50.25
49.55
48.69
47.71
46.67
45.63
44.59
43.43
41.98
40.02
37.41
34.09
30.13
25.75
21.26
17.01
13.19
9.83
6.72
3.49
-0.21
-4.59
-9.59
-14.95
-20.32
-25.40
-30.08
-34.44
-38.72
-43.20
-48.17
-53.81
-60.12
-66.79
-73.17
-78.26
-80.98
-80.39
-76.05
-68.15
-57.48
-45.22
-32.62
-20.72
-10.20
-1.39
5.70
11.24
15.46
18.58
20.82
22.31
23.15
23.39
23.07
22.25
21.04
19.58
18.06
16.65
15.44
14.45
13.62
12.87
12.11
11.27
10.29
9.10
7.71
6.13
4.50
2.95
1.61
0.50
-0.51
-1.62
-3.01
-4.79
-6.92
-9.29
-11.74
-14.17
-16.49
-18.65
-20.60
-22.37
-24.06
-25.89
-28.14
-31.06
-34.74
-39.00
-43.34
-47.07
-49.37
-49.48
-46.87
-41.44
-33.49
-23.78
-13.29
-3.03
6.21
13.94
20.00
24.45
27.45
29.17
29.71
29.25
27.99
26.23
24.35
22.67
21.47
20.85
20.72
20.89
21.12
21.24
21.18
20.99
20.73
20.41
19.94
19.15
17.90
16.14
13.99
11.64
9.31
7.13
5.09
3.12
1.11
-0.95
-3.01
-4.98
-6.82
-8.56
-10.36
-12.42
-14.87
-17.71
-20.77
-23.84
-26.76
-29.57
-32.46
-35.66
-39.24
-42.95
-46.18
-48.13
-48.09
-45.62
-40.77
-33.93
-25.74
-16.91
-8.07
0.26
7.63
13.63
17.95
20.42
21.12
20.36
18.70
16.71
14.89
13.52
12.63
12.11
11.84
11.72
11.76
11.99
12.44
13.06
13.74
14.30
14.57
14.43
13.81
12.71
11.14
9.15
6.79
4.12
1.23
-1.77
-4.77
-7.69
-10.51
-13.22
-15.83
-18.35
-20.88
-23.56
-26.62
-30.18
-34.15
-38.08
-41.27
-42.89
-42.32
-39.31
-34.05
-27.08
-19.02
-10.46
-1.86
6.40
13.98
20.54
25.73
29.30
31.15
31.39
30.30
28.30
25.87
23.42
21.25
19.48
18.11
17.05
16.18
15.46
14.86
14.40
14.04
13.68
13.17
12.35
11.15
9.57
7.65
5.42
2.88
-0.02
-3.30
-6.88
-10.62
-14.32
-17.82
-21.04
-24.01
-26.82
-29.64
-32.64
-36.06
-40.09
-44.73
-49.67
-54.18
-57.27
-57.93
-55.53
-50.08
-42.18
-32.86
-23.13
-13.78
-5.20
2.48
9.22
14.95
19.50
22.70
24.49
24.97
24.35
22.92
20.99
18.84
16.69
14.77
13.24
12.24
11.80
11.85
12.20
12.56
12.61
12.13
11.04
9.45
7.59
5.65
3.74
1.76
-0.42
-2.96
-5.91
-9.21
-12.72
-16.33
-19.90
-23.31
-26.43
-29.14
-31.44
-33.52
-35.74
-38.52
-42.08
-46.26
-50.47
-53.77
-55.13
-53.76
-49.34
-42.08
-32.65
-22.06
-11.38
-1.56
6.79
13.42
18.37
21.91
24.32
25.81
26.47
26.36
25.53
24.10
22.27
20.26
18.33
16.68
15.50
14.91
14.97
15.59
16.57
17.61
18.34
18.47
17.84
16.50
14.64
12.53
10.42
8.42
6.47
4.41
2.07
-0.64
-3.65
-6.78
-9.85
-12.75
-15.54
-18.38
-21.48
-24.94
-28.65
-32.30
-35.37
-37.26
-37.42
-35.47
-31.24
-24.88
-16.78
-7.55
2.04
11.21
19.23
25.57
29.93
32.33
33.06
32.58
31.37
29.79
28.05
26.16
24.09
21.86
19.63
17.69
16.32
15.64
15.61
15.97
16.41
16.62
16.42
15.69
14.43
12.63
10.33
7.58
4.47
1.09
-2.47
-6.09
-9.69
-13.14
-16.36
-19.29
-21.99
-24.62
-27.39
-30.52
-34.17
-38.36
-42.94
-47.57
-51.63
-54.42
-55.17
-53.34
-48.75
-41.66
-32.69
-22.68
-12.46
-2.74
5.94
13.22
18.92
22.96
25.42
26.51
26.53
25.85
24.82
23.72
22.72
21.86
21.14
20.49
19.88
19.36
18.97
18.76
18.70
18.68
18.52
18.03
17.07
15.62
13.76
11.64
9.40
7.08
4.61
1.87
-1.24
-4.67
-8.24
-11.68
-14.75
-17.37
-19.62
-21.68
-23.76
-26.03
-28.60
-31.54
-34.83
-38.30
-41.55
-43.96
-44.83
-43.53
-39.78
-33.71
-25.87
-17.00
-7.84
1.00
9.07
16.08
21.81
26.14
29.03
30.58
31.01
30.60
29.64
28.39
27.09
25.92
25.02
24.47
24.28
24.38
24.63
24.86
24.93
24.75
24.27
23.50
22.41
21.03
19.34
17.40
15.23
12.87
10.28
7.40
4.17
0.63
-3.06
-6.66
-9.97
-12.91
-15.59
-18.20
-21.00
-24.14
-27.68
-31.52
-35.38
-38.74
-40.91
-41.13
-38.86
-33.97
-26.87
-18.33
-9.26
-0.42
7.73
14.98
21.21
26.32
30.14
32.59
33.71
33.72
32.96
31.77
30.39
29.02
27.78
26.77
26.05
25.63
25.46
25.42
25.38
25.28
25.03
24.51
23.59
22.14
20.13
17.68
15.02
12.41
9.98
7.67
5.25
2.47
-0.82
-4.59
-8.60
-12.53
-16.10
-19.16
-21.78
-24.16
-26.59
-29.37
-32.71
-36.71
-41.23
-45.98
-50.38
-53.72
-55.22
-54.27
-50.57
-44.29
-35.97
-26.45
-16.57
-7.07
1.58
9.16
15.61
20.93
25.14
28.22
30.20
31.14
31.18
30.55
29.50
28.32
27.19
26.20
25.32
24.53
23.85
23.36
23.16
23.20
23.31
23.17
22.49
21.10
19.11
16.75
14.34
12.05
9.89
7.74
5.45
2.91
0.14
-2.75
-5.62
-8.34
-10.88
-13.28
-15.62
-17.98
-20.39
-22.82
-25.24
-27.65
-30.10
-32.65
-35.33
-38.16
-41.14
-44.32
-47.82
-51.71
-55.85
-59.82
-62.85
-64.07
-62.73
-58.48
-51.50
-42.36
-31.97
-21.24
-10.98
-1.78
6.00
12.24
16.95
20.29
22.46
23.69
24.22
24.25
23.96
23.49
22.94
22.37
21.87
21.51
21.34
21.37
21.54
21.70
21.74
21.53
21.02
20.20
19.04
17.49
15.51
13.18
10.65
8.14
5.85
3.85
2.04
0.23
-1.80
-4.15
-6.82
-9.72
-12.70
-15.56
-18.05
-19.92
-20.90
-20.86
-19.88
-18.33
-16.79
-15.83
-15.84
-16.76
-18.14
-19.21
-19.20
-17.51
-13.95
-8.66
-2.05
5.34
13.02
20.51
27.42
33.39
38.13
41.46
43.32
43.78
42.96
41.05
38.31
35.06
31.68
28.57
26.04
24.20
23.00
22.19
21.53
20.81
19.94
18.94
17.84
16.65
15.30
13.69
11.74
9.39
6.68
3.67
0.45
-2.93
-6.46
-10.12
-13.92
-17.80
-21.68
-25.40
-28.75
-31.55
-33.67
-35.19
-36.38
-37.69
-39.63
-42.51
-46.30
-50.53
-54.35
-56.72
-56.70
-53.74
-47.85
-39.55
-29.78
-19.54
-9.69
-0.73
7.11
13.78
19.23
23.27
25.67
26.27
25.18
22.79
19.72
16.64
14.02
11.99
10.36
8.72
6.63
3.88
0.56
-2.90
-5.92
-8.05
-9.21
-9.92
-11.13
-13.90
-18.92
-26.19
-34.94
-43.96
-52.02
-58.38
-62.92
-66.11
-68.73
-71.56
-75.14
-79.60
-84.34
-87.66
-86.64
-77.73
-58.17
-27.77
9.89
47.77
77.28
91.30
86.63
65.00
32.00
-5.16
-39.82
-67.05
-83.61
-87.35
-76.94
-52.09
-14.19
33.66
87.15
141.89
194.40
242.52
285.22
321.98
352.18
374.79
388.42
391.72
384.11
366.44
341.41
313.25
286.47
264.33
247.47
233.68
219.00
199.62
173.77
142.46
108.93
77.13
50.23
29.74
15.58
6.87
2.54
1.78
3.91
8.11
13.16
17.56
20.01
19.90
17.72
14.90
13.21
14.06
17.81
23.70
30.25
36.01
40.16
42.83
44.82
47.14
50.57
55.29
60.87
66.24
69.74
69.35
63.07
49.41
27.93
-0.65
-34.75
-72.69
-113.25
-155.66
-198.92
-240.80
-277.40
-303.70
-315.19
-309.72
-288.69
-256.94
-221.27
-188.45
-163.57
-149.26
-146.03
-153.10
-169.20
-192.80
-221.79
-253.28
-283.76
-309.87
-329.37
-341.81
-348.51
-351.85
-354.12
-356.52
-358.69
-358.99
-355.24
-345.61
-329.32
-306.86
-279.84
-250.60
-221.65
-195.06
-171.90
-151.98
-134.01
-116.30
-97.51
-77.27
-56.27
-35.87
-17.23
-0.85
13.59
26.70
38.92
50.26
60.49
69.75
78.84
89.20
102.28
118.92
139.16
162.46
188.21
216.03
245.64
276.13
305.44
330.09
345.86
348.98
337.50
312.21
276.65
236.12
196.21
161.25
133.31
111.85
94.28
76.88
56.00
29.53
-1.98
-34.73
-62.03
-75.86
-69.31
-39.32
11.18
73.03
132.78
176.55
194.28
182.98
147.31
97.51
45.40
0.35
-33.14
-55.42
-69.68
-79.34
-86.29
-90.65
-91.69
-89.21
-84.14
-78.36
-73.93
-72.29
-73.81
-77.85
-83.23
-88.71
-93.31
-96.44
-97.63
-96.40
-92.16
-84.36
-73.02
-59.08
-44.56
-32.14
-24.34
-22.53
-26.29
-33.54
-41.21
-46.39
-47.30
-43.69
-36.78
-28.65
-21.49
-16.99
-16.01
-18.50
-23.75
-30.66
-37.95
-44.44
-49.00
-50.75
-49.06
-43.71
-34.91
-23.30
-9.77
4.68
19.00
32.29
43.69
52.55
58.51
61.54
62.00
60.52
57.86
54.78
51.94
49.79
48.55
48.19
48.42
48.78
48.75
47.93
46.13
43.44
40.13
36.57
33.05
29.74
26.61
23.51
20.23
16.65
12.82
8.89
5.17
1.89
-0.79
-2.98
-4.91
-7.01
-9.63
-13.02
-17.15
-21.67
-25.93
-29.15
-30.58
-29.66
-26.22
-20.44
-12.89
-4.36
4.30
12.29
19.02
24.07
27.28
28.69
28.48
26.96
24.50
21.49
18.31
15.30
12.70
10.67
9.27
8.48
8.23
8.38
8.83
9.43
10.07
10.63
10.97
10.91
10.26
8.87
6.72
3.91
0.74
-2.45
-5.39
-8.00
-10.42
-13.00
-16.09
-19.93
-24.50
-29.48
-34.33
-38.34
-40.79
-41.10
-38.92
-34.22
-27.32
-18.88
-9.70
-0.62
7.67
14.67
20.11
23.87
25.97
26.47
25.52
23.36
20.36
16.98
13.74
11.05
9.15
8.10
7.77
7.97
8.55
9.39
10.34
11.21
11.75
11.66
10.72
8.90
6.33
3.25
-0.11
-3.64
-7.34
-11.27
-15.46
-19.94
-24.70
-29.70
-34.83
-39.80
-44.06
-46.80
-47.24
-44.81
-39.43
-31.53
-21.95
-11.67
-1.54
7.77
15.85
22.41
27.28
30.34
31.59
31.19
29.44
26.84
23.91
21.16
19.00
17.63
17.05
17.08
17.47
17.97
18.42
18.70
18.71
18.36
17.52
16.08
13.96
11.15
7.72
3.83
-0.35
-4.67
-9.08
-13.65
-18.51
-23.83
-29.68
-35.94
-42.25
-47.95
-52.18
-54.04
-52.85
-48.32
-40.68
-30.66
-19.27
-7.56
3.56
13.46
21.79
28.37
33.16
36.16
37.45
37.24
35.85
33.77
31.52
29.57
28.27
27.69
27.65
27.85
27.93
27.70
27.14
26.32
25.38
24.33
23.12
21.60
19.61
17.05
13.85
10.03
5.70
1.01
-3.85
-8.69
-13.36
-17.79
-21.99
-26.10
-30.34
-34.95
-40.12
-45.75
-51.35
-56.00
-58.54
-57.89
-53.42
-45.21
-34.01
-21.05
-7.74
4.69
15.34
23.75
29.85
33.86
36.16
37.19
37.37
37.07
36.59
36.13
35.83
35.64
35.45
35.10
34.56
33.97
33.58
33.59
34.01
34.60
34.93
34.55
33.16
30.73
27.44
23.61
19.61
15.66
11.90
8.34
4.88
1.45
-2.04
-5.65
-9.35
-13.07
-16.68
-20.03
-23.03
-25.73
-28.37
-31.36
-35.15
-40.04
-45.91
-52.17
-57.72
-61.26
-61.61
-58.11
-50.81
-40.52
-28.56
-16.39
-5.23
4.17
11.55
17.11
21.21
24.30
26.74
28.76
30.48
31.96
33.21
34.23
35.04
35.66
36.10
36.40
36.64
36.93
37.33
37.83
38.32
38.54
38.21
37.12
35.24
32.73
29.90
27.03
24.28
21.66
19.07
16.35
13.46
10.44
7.36
4.27
1.13
-2.16
-5.62
-9.21
-12.75
-16.09
-19.18
-22.15
-25.25
-28.76
-32.84
-37.55
-42.82
-48.47
-54.13
-59.15
-62.67
-63.68
-61.33
-55.28
-45.85
-33.98
-21.01
-8.25
3.27
12.94
20.57
26.27
30.29
32.93
34.45
35.12
35.21
35.00
34.75
34.70
34.94
35.46
36.13
36.85
37.53
38.18
38.77
39.21
39.31
38.87
37.78
36.09
33.94
31.55
29.02
26.35
23.41
20.09
16.37
12.35
8.27
4.42
0.96
-2.02
-4.63
-7.04
-9.45
-12.01
-14.78
-17.71
-20.67
-23.50
-26.10
-28.44
-30.67
-33.06
-35.99
-39.75
-44.37
-49.47
-54.22
-57.47
-58.10
-55.38
-49.20
-40.09
-29.08
-17.36
-6.05
4.04
12.42
18.85
23.28
25.84
26.75
26.41
25.32
23.99
22.85
22.14
21.90
22.02
22.32
22.70
23.13
23.65
24.30
25.08
25.85
26.38
26.42
25.78
24.33
22.10
19.23
15.97
12.67
9.61
6.95
4.66
2.50
0.18
-2.54
-5.70
-9.15
-12.57
-15.63
-18.14
-20.12
-21.80
-23.56
-25.81
-28.87
-32.79
-37.30
-41.74
-45.17
-46.59
-45.21
-40.70
-33.32
-23.86
-13.39
-3.02
6.31
13.96
19.61
23.21
24.88
24.89
23.63
21.50
18.96
16.38
14.04
12.12
10.70
9.76
9.29
9.22
9.45
9.87
10.34
10.74
11.02
11.18
11.17
10.88
10.10
8.59
6.19
3.00
-0.67
-4.38
-7.79
-10.73
-13.31
-15.80
-18.48
-21.51
-24.98
-28.87
-33.11
-37.52
-41.70
-45.01
-46.60
-45.68
-41.83
-35.15
-26.32
-16.42
-6.59
2.25
9.57
15.22
19.25
21.80
22.91
22.59
20.89
18.04
14.46
10.76
7.55
5.28
4.07
3.76
3.97
4.28
4.36
4.07
3.41
2.42
1.13
-0.51
-2.62
-5.35
-8.85
-13.16
-18.24
-23.91
-29.89
-35.89
-41.70
-47.20
-52.45
-57.58
-62.74
-68.05
-73.40
-78.41
-82.34
-84.17
-82.82
-77.43
-67.63
-53.74
-36.69
-17.81
1.44
19.74
36.04
49.66
60.25
67.80
72.47
74.66
74.82
73.43
70.98
67.92
64.64
61.45
58.58
56.16
54.24
52.76
51.62
50.64
49.58
48.11
45.86
42.45
37.59
31.16
23.31
14.38
4.89
-4.61
-13.61
-21.75
-28.80
-34.66
-39.35
-43.08
-46.17
-49.05
-52.10
-55.47
-58.97
-61.93
-63.44
-62.43
-58.13
-50.23
-39.13
-25.83
-11.66
2.00
14.07
23.94
31.42
36.55
39.48
40.38
39.48
37.14
33.89
30.37
27.10
24.42
22.47
21.24
20.67
20.75
21.50
22.89
24.84
27.11
29.42
31.41
32.78
33.31
32.89
31.54
29.43
26.77
23.72
20.38
16.68
12.47
7.62
2.03
-4.22
-10.96
-17.97
-25.05
-32.10
-39.01
-45.51
-51.07
-54.84
-55.88
-53.42
-47.19
-37.58
-25.56
-12.46
0.42
12.05
21.83
29.53
35.18
38.91
40.90
41.34
40.52
38.89
36.96
35.30
34.41
34.57
35.80
37.83
40.26
42.64
44.59
45.86
46.30
45.89
44.63
42.56
39.70
36.11
31.77
26.74
21.10
15.02
8.79
2.76
-2.68
-7.29
-10.98
-13.90
-16.38
-18.86
-21.82
-25.62
-30.51
-36.37
-42.67
-48.42
-52.30
-53.02
-49.76
-42.43
-31.83
-19.35
-6.61
5.05
14.76
22.21
27.50
30.92
32.81
33.42
33.02
31.89
30.36
28.76
27.40
26.47
25.99
25.84
25.81
25.70
25.34
24.68
23.62
22.10
19.98
17.19
13.72
9.69
5.29
0.70
-3.98
-8.68
-13.36
-17.91
-22.24
-26.21
-29.78
-33.00
-35.97
-38.91
-42.04
-45.56
-49.56
-53.89
-58.01
-61.07
-62.03
-59.99
-54.50
-45.76
-34.58
-22.15
-9.73
1.63
11.26
18.81
24.19
27.46
28.77
28.40
26.77
24.39
21.79
19.45
17.70
16.71
16.55
17.20
18.57
20.46
22.53
24.38
25.60
25.90
25.21
23.56
21.15
18.13
14.64
10.79
6.60
2.12
-2.64
-7.64
-12.70
-17.57
-21.97
-25.73
-28.87
-31.68
-34.62
-38.21
-42.73
-48.18
-54.13
-59.79
-64.12
-66.04
-64.76
-59.97
-51.97
-41.64
-30.22
-19.00
-9.09
-1.23
4.24
7.26
8.02
6.80
3.97
-0.07
-4.94
-10.24
-15.62
-20.74
-25.31
-29.09
-31.98
-34.05
-35.55
-36.81
-38.19
-39.89
-41.97
-44.25
-46.54
-48.64
-50.51
-52.26
-54.11
-56.27
-58.87
-61.77
-64.61
-66.92
-68.26
-68.45
-67.60
-66.08
-64.37
-62.97
-62.34
-62.86
-64.75
-67.88
-71.69
-75.23
-77.42
-77.45
-74.98
-70.19
-63.39
-54.63
-43.34
-28.38
-8.47
17.15
47.99
82.00
115.70
144.98
166.15
177.04
177.55
169.48
155.73
139.20
121.98
105.09
88.75
72.79
57.01
41.15
24.98
8.22
-9.12
-26.41
-42.28
-54.69
-61.46
-61.05
-53.39
-40.25
-24.88
-11.03
-1.68
1.95
0.66
-3.47
-8.17
-12.10
-15.15
-18.09
-21.73
-26.26
-30.99
-34.71
-36.16
-34.47
-29.30
-20.79
-9.43
4.03
18.63
33.25
46.77
58.14
66.61
71.78
73.65
72.56
69.08
63.82
57.30
49.89
41.84
33.29
24.39
15.30
6.09
-3.14
-12.35
-21.40
-30.08
-38.14
-45.45
-52.13
-58.55
-65.33
-73.09
-82.16
-92.35
-102.81
-112.13
-118.73
-121.29
-119.28
-113.20
-104.52
-95.13
-86.69
-80.10
-75.10
-70.24
-63.13
-50.80
-30.38
0.13
40.90
89.72
142.07
192.15
234.46
265.31
283.50
289.99
286.84
276.09
259.21
237.24
211.37
183.29
155.10
128.80
105.65
85.92
69.09
54.35
41.12
29.27
19.03
10.73
4.41
-0.38
-4.51
-9.08
-14.95
-22.45
-31.22
-40.43
-49.09
-56.49
-62.44
-67.24
-71.49
-75.70
-80.18
-84.81
-89.12
-92.37
-93.75
-92.55
-88.37
-81.20
-71.42
-59.60
-46.30
-31.98
-17.08
-2.25
11.64
23.54
32.63
38.68
42.26
44.51
46.62
49.22
52.13
54.54
55.39
53.96
50.24
44.89
38.93
33.47
29.25
26.63
25.46
25.28
25.48
25.50
25.04
24.15
23.37
23.60
25.71
30.11
36.14
41.95
44.76
41.76
31.07
12.71
-11.29
-37.35
-61.37
-79.90
-90.85
-93.78
-89.55
-79.82
-66.44
-51.12
-35.26
-19.94
-5.96
6.14
15.96
23.32
28.15
30.50
30.49
28.33
24.37
19.18
13.49
8.10
3.69
0.61
-1.20
-2.18
-2.98
-4.27
-6.53
-9.95
-14.44
-19.68
-25.28
-30.91
-36.47
-42.08
-48.05
-54.60
-61.61
-68.48
-74.14
-77.31
-76.93
-72.48
-64.15
-52.80
-39.71
-26.20
-13.41
-2.14
7.14
14.28
19.35
22.59
24.40
25.23
25.48
25.40
25.07
24.42
23.42
22.15
20.91
20.12
20.21
21.34
23.37
25.80
27.94
29.15
28.97
27.35
24.52
20.97
17.18
13.52
10.07
6.63
2.80
-1.88
-7.66
-14.33
-21.14
-26.89
-30.20
-30.00
-25.90
-18.30
-8.29
2.79
13.76
23.77
32.34
39.16
43.97
46.49
46.61
44.42
40.39
35.18
29.47
23.79
18.40
13.33
8.53
3.97
-0.22
-3.83
-6.64
-8.56
-9.76
-10.60
-11.61
-13.28
-15.90
-19.53
-23.96
-28.76
-33.41
-37.45
-40.57
-42.73
-44.13
-45.16
-46.27
-47.74
-49.50
-51.00
-51.27
-49.20
-43.82
-34.72
-22.20
-7.17
9.11
25.37
40.68
54.53
66.76
77.44
86.78
95.11
102.95
110.96
119.92
130.50
143.20
158.26
175.70
195.33
216.83
239.73
263.49
287.57
311.40
334.24
355.06
372.32
384.07
388.34
383.74
370.01
348.24
320.61
289.73
257.91
226.63
196.47
167.37
138.96
110.81
82.50
53.61
23.78
-7.01
-38.21
-68.56
-96.33
-119.83
-138.00
-150.77
-159.12
-164.60
-168.82
-172.98
-177.73
-183.25
-189.61
-196.95
-205.60
-215.93
-228.22
-242.33
-257.66
-273.09
-287.31
-299.15
-308.02
-314.09
-318.22
-321.53
-324.86
-328.39
-331.46
-332.75
-330.75
-324.17
-312.35
-295.41
-274.20
-250.15
-224.97
-200.36
-177.74
-158.08
-141.80
-128.85
-118.72
-110.72
-104.11
-98.26
-92.82
-87.73
-83.10
-79.06
-75.51
-71.94
-67.39
-60.63
-50.48
-36.16
-17.60
4.51
28.87
53.83
77.79
99.39
117.76
132.53
143.78
151.96
157.74
161.86
164.87
167.10
168.41
168.33
166.18
161.29
153.32
142.31
128.84
113.95
99.06
85.68
75.26
68.82
66.63
67.96
71.10
73.64
73.16
68.02
57.91
44.06
28.89
15.19
5.29
0.39
0.31
3.48
7.40
9.09
5.88
-4.06
-21.09
-43.91
-69.73
-94.96
-116.06
-130.44
-136.94
-135.93
-128.89
-117.84
-104.87
-91.78
-80.07
-70.87
-65.08
-63.26
-65.56
-71.67
-80.88
-92.25
-104.88
-118.05
-131.21
-143.96
-155.81
-166.18
-174.50
-180.27
-183.33
-183.80
-182.11
-178.79
-174.33
-169.05
-163.05
-156.27
-148.57
-139.78
-129.67
-118.05
-104.67
-89.39
-72.20
-53.31
-33.23
-12.66
7.60
26.94
45.18
62.70
80.36
99.29
120.44
144.18
170.08
196.87
222.82
246.21
265.75
280.89
291.74
298.81
302.67
303.73
302.19
298.16
291.82
283.58
273.98
263.54
252.65
241.44
229.99
218.31
206.42
194.22
181.28
166.82
149.91
129.79
106.24
79.77
51.55
23.00
-4.51
-29.90
-52.44
-71.70
-87.40
-99.54
-108.43
-114.81
-119.70
-124.25
-129.40
-135.72
-143.32
-151.89
-160.87
-169.47
-176.65
-181.17
-181.69
-177.18
-167.32
-152.76
-135.04
-116.15
-97.92
-81.53
-67.34
-55.17
-44.67
-35.67
-28.19
-22.24
-17.50
-13.24
-8.56
-2.66
4.75
13.41
22.69
31.85
40.40
48.19
55.37
62.31
69.44
77.15
85.69
95.12
105.26
115.64
125.57
134.24
140.88
144.91
146.04
144.26
139.86
133.22
124.75
114.67
103.16
90.42
76.93
63.56
51.49
41.96
35.82
33.34
34.11
37.20
41.44
45.69
48.93
50.35
49.37
45.64
39.21
30.52
20.36
9.72
-0.51
-9.70
-17.58
-24.14
-29.52
-33.83
-37.06
-39.14
-39.99
-39.67
-38.31
-36.21
-33.69
-31.10
-28.79
-27.11
-26.45
-27.09
-29.18
-32.60
-37.06
-42.09
-47.27
-52.34
-57.22
-61.96
-66.68
-71.52
-76.56
-81.73
-86.79
-91.19
-94.07
-94.37
-91.22
-84.22
-73.67
-60.55
-46.23
-32.12
-19.26
-8.31
0.52
7.22
11.85
14.57
15.60
15.29
14.12
12.56
11.03
9.71
8.63
7.69
6.83
6.07
5.55
5.43
5.82
6.69
7.82
8.88
9.51
9.40
8.39
6.46
3.77
0.57
-2.76
-5.93
-8.77
-11.31
-13.82
-16.71
-20.37
-24.88
-29.95
-34.78
-38.34
-39.62
-37.98
-33.35
-26.15
-17.21
-7.40
2.43
11.58
19.51
25.76
29.99
32.09
32.15
30.53
27.72
24.25
20.58
17.04
13.81
10.99
8.58
6.55
4.93
3.73
2.93
2.47
2.21
1.85
1.14
-0.15
-2.10
-4.67
-7.72
-11.09
-14.62
-18.19
-21.70
-25.09
-28.40
-31.81
-35.58
-39.83
-44.41
-48.73
-51.84
-52.68
-50.40
-44.75
-36.10
-25.40
-13.86
-2.57
7.71
16.55
23.83
29.50
33.50
35.78
36.32
35.31
33.08
30.15
27.02
24.13
21.76
20.02
18.85
18.09
17.53
17.00
16.40
15.73
15.06
14.36
13.48
12.15
10.11
7.25
3.73
-0.17
-4.11
-7.93
-11.65
-15.42
-19.35
-23.50
-27.88
-32.48
-37.36
-42.47
-47.55
-51.92
-54.56
-54.36
-50.55
-43.00
-32.33
-19.83
-6.98
4.93
15.04
23.04
29.04
33.23
35.84
37.00
36.85
35.61
33.64
31.35
29.11
27.18
25.63
24.44
23.53
22.88
22.47
22.29
22.26
22.18
21.85
21.07
19.70
17.63
14.83
11.30
7.11
2.41
-2.55
-7.49
-12.16
-16.40
-20.23
-23.79
-27.38
-31.38
-36.08
-41.57
-47.60
-53.45
-58.02
-60.10
-58.67
-53.30
-44.28
-32.60
-19.66
-6.89
4.60
14.15
21.55
26.92
30.43
32.32
32.79
32.06
30.42
28.19
25.72
23.33
21.27
19.73
18.82
18.55
18.82
19.47
20.22
20.78
20.89
20.41
19.25
17.49
15.30
12.89
10.48
8.15
5.80
3.16
-0.04
-3.93
-8.38
-12.99
-17.25
-20.80
-23.55
-25.72
-27.78
-30.22
-33.41
-37.50
-42.29
-47.24
-51.46
-53.91
-53.56
-49.78
-42.47
-32.19
-19.98
-7.13
5.11
15.81
24.42
30.69
34.65
36.50
36.59
35.36
33.28
30.77
28.17
25.73
23.59
21.86
20.62
19.94
19.85
20.32
21.19
22.25
23.24
23.85
23.86
23.09
21.46
19.02
15.98
12.56
8.99
5.40
1.79
-1.89
-5.71
-9.61
-13.48
-17.12
-20.42
-23.34
-26.03
-28.75
-31.84
-35.56
-39.93
-44.56
-48.62
-50.97
-50.45
-46.37
-38.72
-28.26
-16.29
-4.23
6.82
16.22
23.79
29.54
33.48
35.55
35.70
34.10
31.21
27.74
24.44
21.85
20.16
19.22
18.71
18.37
18.13
18.11
18.47
19.20
20.08
20.68
20.60
19.58
17.62
14.95
11.83
8.47
4.97
1.33
-2.42
-6.21
-9.91
-13.45
-16.77
-19.92
-22.92
-25.82
-28.72
-31.78
-35.29
-39.43
-44.13
-48.89
-52.73
-54.49
-53.17
-48.33
-40.22
-29.76
-18.11
-6.41
4.49
14.04
21.92
27.94
31.98
34.07
34.40
33.37
31.45
29.13
26.75
24.50
22.46
20.68
19.24
18.29
17.95
18.24
19.03
19.97
20.64
20.68
19.94
18.48
16.52
14.29
11.91
9.32
6.39
2.96
-0.96
-5.24
-9.67
-13.99
-18.03
-21.70
-24.97
-27.86
-30.43
-32.84
-35.34
-38.28
-41.96
-46.45
-51.37
-55.84
-58.69
-58.76
-55.32
-48.30
-38.30
-26.41
-13.85
-1.73
9.12
18.18
25.14
29.89
32.47
33.12
32.24
30.37
28.06
25.77
23.80
22.25
21.12
20.39
20.02
20.05
20.49
21.31
22.39
23.53
24.43
24.83
24.54
23.47
21.70
19.43
16.86
14.15
11.28
8.15
4.59
0.61
-3.59
-7.65
-11.23
-14.18
-16.59
-18.80
-21.18
-24.07
-27.65
-31.97
-36.81
-41.74
-46.00
-48.67
-48.80
-45.80
-39.59
-30.69
-20.01
-8.63
2.44
12.39
20.64
26.85
30.90
32.91
33.24
32.35
30.68
28.61
26.36
24.07
21.90
20.01
18.55
17.61
17.17
17.10
17.20
17.25
17.09
16.61
15.75
14.49
12.81
10.66
8.06
5.09
1.90
-1.36
-4.61
-7.87
-11.20
-14.68
-18.22
-21.69
-24.88
-27.75
-30.43
-33.27
-36.69
-40.90
-45.71
-50.45
-54.07
-55.43
-53.63
-48.31
-39.77
-28.86
-16.75
-4.59
6.73
16.62
24.74
30.85
34.85
36.73
36.67
35.10
32.60
29.75
26.99
24.52
22.38
20.53
19.02
17.96
17.52
17.77
18.59
19.66
20.53
20.78
20.11
18.53
16.27
13.64
11.00
8.49
6.09
3.60
0.79
-2.50
-6.31
-10.48
-14.77
-18.91
-22.68
-25.97
-28.86
-31.60
-34.57
-38.13
-42.40
-47.08
-51.44
-54.40
-54.89
-52.12
-45.85
-36.45
-24.84
-12.22
0.22
11.44
20.75
27.79
32.51
35.06
35.80
35.16
33.60
31.59
29.45
27.46
25.76
24.43
23.49
22.97
22.87
23.15
23.72
24.45
25.13
25.56
25.56
25.01
23.88
22.14
19.79
16.84
13.30
9.26
4.83
0.22
-4.35
-8.71
-12.74
-16.43
-19.83
-23.03
-26.14
-29.37
-32.99
-37.31
-42.36
-47.74
-52.50
-55.33
-55.01
-50.79
-42.80
-31.97
-19.69
-7.38
3.86
13.44
21.13
26.93
30.87
33.01
33.44
32.40
30.28
27.61
24.88
22.53
20.75
19.51
18.64
18.00
17.60
17.60
18.12
19.10
20.20
20.86
20.59
19.14
16.64
13.49
10.12
6.76
3.40
-0.19
-4.25
-8.86
-13.87
-18.98
-23.82
-28.14
-31.90
-35.30
-38.65
-42.32
-46.58
-51.57
-57.20
-63.10
-68.55
-72.56
-74.03
-72.06
-66.29
-57.07
-45.43
-32.75
-20.46
-9.64
-0.98
5.25
9.01
10.36
9.48
6.65
2.36
-2.76
-7.96
-12.57
-16.13
-18.54
-20.09
-21.28
-22.62
-24.35
-26.41
-28.50
-30.31
-31.73
-32.94
-34.24
-35.88
-37.89
-39.96
-41.68
-42.70
-42.97
-42.65
-41.97
-41.03
-39.67
-37.48
-34.04
-29.12
-22.87
-15.74
-8.41
-1.55
4.30
8.96
12.65
16.17
20.86
28.35
40.12
57.03
78.91
104.58
132.19
159.78
185.79
209.36
230.36
249.09
266.07
281.77
296.55
310.62
324.09
336.97
349.12
360.14
369.26
375.37
377.21
373.70
364.28
349.20
329.37
306.14
280.83
254.47
227.66
200.75
173.98
147.67
122.27
98.34
76.48
57.39
41.74
30.10
22.68
19.14
18.37
18.63
17.89
14.36
6.92
-4.66
-19.91
-37.93
-57.64
-77.88
-97.46
-115.17
-130.18
-142.48
-153.21
-164.49
-178.75
-197.74
-221.79
-249.71
-279.10
-307.04
-330.57
-347.13
-354.85
-353.01
-342.59
-326.46
-308.98
-294.86
-287.62
-288.49
-296.12
-307.27
-318.13
-325.57
-327.93
-324.94
-317.37
-306.35
-292.89
-277.73
-261.40
-244.30
-226.85
-209.55
-192.86
-177.20
-162.90
-150.26
-139.52
-130.79
-123.83
-117.91
-111.75
-103.82
-92.80
-77.96
-59.53
-38.51
-16.37
5.40
25.64
43.64
59.03
71.70
81.57
88.66
93.03
94.95
94.77
92.99
90.07
86.50
82.66
78.92
75.63
73.09
71.49
70.82
70.85
71.22
71.43
71.03
69.68
67.17
63.45
58.59
52.79
46.24
39.14
31.65
23.91
16.12
8.41
0.91
-6.48
-13.89
-21.42
-28.81
-35.32
-39.79
-40.98
-38.03
-30.88
-20.29
-7.62
5.58
18.04
28.92
37.83
44.66
49.36
51.93
52.42
51.05
48.34
45.06
42.08
40.19
39.83
40.99
43.29
46.14
48.99
51.55
53.73
55.60
57.23
58.52
59.21
58.91
57.27
54.08
49.38
43.44
36.70
29.64
22.62
15.83
9.26
2.71
-4.08
-11.32
-18.94
-26.50
-33.14
-37.74
-39.17
-36.63
-30.00
-19.90
-7.62
5.30
17.43
27.79
35.96
41.97
46.08
48.56
49.60
49.33
47.94
45.76
43.27
40.95
39.15
38.01
37.38
37.03
36.74
36.47
36.32
36.49
37.04
37.83
38.41
38.23
36.76
33.73
29.21
23.56
17.33
11.07
5.17
-0.23
-5.19
-9.95
-14.81
-19.97
-25.55
-31.50
-37.52
-43.07
-47.30
-49.20
-47.84
-42.67
-33.80
-22.07
-8.87
4.24
15.98
25.54
32.73
37.68
40.69
42.01
41.86
40.47
38.14
35.24
32.18
29.39
27.24
25.96
25.66
26.27
27.54
29.09
30.55
31.59
32.05
31.86
30.98
29.41
27.05
23.85
19.83
15.17
10.15
5.14
0.43
-3.84
-7.71
-11.35
-15.02
-18.93
-23.20
-27.89
-32.93
-38.06
-42.78
-46.27
-47.57
-45.82
-40.59
-32.04
-21.01
-8.71
3.58
14.81
24.31
31.76
37.10
40.38
41.73
41.41
39.71
37.04
33.86
30.66
27.86
25.79
24.60
24.25
24.53
25.16
25.84
26.35
26.50
26.18
25.30
23.83
21.77
19.19
16.17
12.77
9.05
5.02
0.70
-3.83
-8.42
-12.94
-17.24
-21.25
-24.90
-28.20
-31.21
-34.15
-37.35
-41.20
-45.87
-51.06
-55.88
-58.97
-58.95
-54.94
-46.91
-35.82
-23.18
-10.67
0.41
9.32
15.91
20.29
22.70
23.31
22.27
19.77
16.16
11.89
7.47
3.35
-0.10
-2.70
-4.37
-5.19
-5.39
-5.33
-5.51
-6.47
-8.65
-12.23
-17.07
-22.78
-28.92
-35.18
-41.52
-48.19
-55.49
-63.53
-71.89
-79.58
-85.20
-87.33
-85.08
-78.45
-68.44
-56.87
-45.94
-37.52
-32.61
-30.91
-30.85
-29.99
-25.84
-16.68
-2.19
16.48
37.09
57.04
74.15
86.98
94.92
97.96
96.41
90.91
82.43
72.33
62.17
53.38
46.94
43.13
41.64
41.74
42.60
43.47
43.83
43.37
42.00
39.83
37.08
33.94
30.45
26.43
21.52
15.48
8.34
0.50
-7.32
-14.33
-19.99
-24.13
-27.07
-29.40
-31.84
-34.90
-38.67
-42.73
-46.18
-47.84
-46.63
-41.91
-33.72
-22.87
-10.67
1.39
12.06
20.59
26.75
30.70
32.74
33.23
32.52
31.05
29.41
28.21
27.95
28.81
30.60
32.92
35.33
37.57
39.63
41.63
43.62
45.49
46.83
47.16
46.05
43.33
39.16
33.92
28.01
21.73
15.18
8.35
1.29
-5.78
-12.49
-18.42
-23.37
-27.44
-30.99
-34.51
-38.41
-42.89
-47.88
-53.07
-57.95
-61.85
-63.98
-63.60
-60.20
-53.72
-44.60
-33.73
-22.25
-11.25
-1.56
6.27
12.05
15.84
17.89
18.50
17.99
16.62
14.65
12.32
10.00
8.12
7.09
7.19
8.46
10.66
13.37
16.12
18.49
20.19
21.06
21.06
20.31
18.99
17.35
15.59
13.78
11.91
9.85
7.47
4.69
1.54
-1.83
-5.22
-8.36
-11.08
-13.32
-15.26
-17.26
-19.80
-23.29
-27.80
-32.93
-37.71
-40.89
-41.26
-38.10
-31.40
-21.92
-10.89
0.32
10.62
19.34
26.24
31.31
34.62
36.23
36.22
34.76
32.18
28.92
25.46
22.19
19.36
17.13
15.58
14.83
14.96
16.01
17.83
20.07
22.15
23.44
23.41
21.80
18.77
14.78
10.48
6.44
2.91
-0.19
-3.22
-6.57
-10.45
-14.75
-19.12
-23.15
-26.51
-29.09
-31.00
-32.57
-34.22
-36.42
-39.51
-43.52
-47.98
-51.89
-53.95
-52.93
-48.09
-39.46
-27.85
-14.58
-1.13
11.20
21.55
29.50
34.97
38.14
39.29
38.73
36.86
34.12
31.02
28.08
25.72
24.19
23.52
23.50
23.84
24.30
24.82
25.45
26.29
27.28
28.17
28.49
27.80
25.83
22.64
18.67
14.50
10.64
7.33
4.49
1.82
-0.99
-4.11
-7.49
-10.88
-14.03
-16.73
-18.93
-20.74
-22.42
-24.33
-26.82
-30.14
-34.29
-38.84
-42.96
-45.52
-45.40
-41.87
-34.78
-24.70
-12.70
-0.07
12.00
22.62
31.22
37.47
41.19
42.27
40.76
36.93
31.27
24.46
17.27
10.38
4.38
-0.38
-3.71
-5.56
-6.06
-5.42
-3.89
-1.75
0.71
3.15
5.22
6.59
7.07
6.65
5.54
4.07
2.55
1.09
-0.34
-1.93
-3.82
-6.05
-8.49
-10.98
-13.33
-15.44
-17.29
-18.92
-20.43
-22.02
-23.98
-26.57
-29.90
-33.69
-37.27
-39.61
-39.65
-36.62
-30.35
-21.29
-10.49
0.79
11.36
20.34
27.24
31.96
34.62
35.41
34.55
32.26
28.83
24.75
20.60
17.01
14.44
13.04
12.66
12.93
13.51
14.18
14.91
15.69
16.45
16.95
16.88
15.97
14.20
11.72
8.83
5.77
2.60
-0.79
-4.60
-8.89
-13.49
-18.01
-22.02
-25.24
-27.66
-29.57
-31.40
-33.63
-36.57
-40.34
-44.78
-49.41
-53.41
-55.71
-55.29
-51.45
-44.12
-33.95
-22.12
-9.98
1.31
10.99
18.69
24.38
28.15
30.12
30.45
29.37
27.20
24.36
21.31
18.48
16.23
14.77
14.16
14.35
15.20
16.51
18.05
19.56
20.74
21.33
21.14
20.10
18.26
15.76
12.74
9.35
5.73
2.02
-1.63
-5.17
-8.58
-11.94
-15.29
-18.62
-21.82
-24.70
-27.19
-29.34
-31.41
-33.82
-36.99
-41.11
-45.95
-50.78
-54.44
-55.69
-53.51
-47.52
-38.15
-26.52
-14.03
-2.01
8.61
17.38
24.20
29.12
32.16
33.41
32.97
31.17
28.51
25.58
22.93
20.89
19.58
18.91
18.74
18.97
19.61
20.69
22.12
23.59
24.68
24.97
24.21
22.48
20.09
17.43
14.74
12.06
9.26
6.18
2.78
-0.84
-4.53
-8.09
-11.39
-14.33
-16.83
-18.81
-20.27
-21.36
-22.40
-23.84
-26.13
-29.52
-33.93
-38.78
-43.05
-45.47
-44.91
-40.74
-33.13
-23.00
-11.71
-0.69
8.97
16.69
22.31
25.90
27.62
27.63
26.14
23.49
20.15
16.64
13.45
10.90
9.13
8.10
7.67
7.70
8.04
8.62
9.36
10.09
10.54
10.39
9.36
7.33
4.42
0.89
-2.96
-6.95
-11.10
-15.56
-20.47
-25.84
-31.53
-37.15
-42.38
-46.97
-50.93
-54.48
-58.02
-61.89
-66.20
-70.63
-74.37
-76.22
-74.91
-69.49
-59.68
-45.97
-29.53
-11.86
5.59
21.61
35.39
46.42
54.44
59.37
61.37
60.86
58.48
54.98
51.04
47.21
43.81
41.05
38.99
37.66
36.94
36.66
36.54
36.27
35.64
34.49
32.77
30.45
27.52
23.96
19.77
15.02
9.84
4.43
-1.01
-6.25
-11.13
-15.48
-19.26
-22.56
-25.63
-28.81
-32.40
-36.55
-41.12
-45.57
-49.10
-50.70
-49.55
-45.12
-37.48
-27.20
-15.34
-3.08
8.45
18.38
26.21
31.75
35.08
36.37
35.96
34.20
31.52
28.38
25.18
22.29
19.96
18.36
17.51
17.38
17.86
18.80
20.00
21.14
21.86
21.79
20.65
18.42
15.30
11.70
8.10
4.85
2.08
-0.27
-2.36
-4.41
-6.52
-8.69
-10.89
-13.03
-14.98
-16.68
-18.09
-19.38
-20.86
-22.99
-26.25
-30.86
-36.57
-42.54
-47.37
-49.52
-47.72
-41.48
-31.27
-18.44
-4.78
7.99
18.65
26.67
32.11
35.42
37.11
37.68
37.49
36.84
35.91
34.83
33.68
32.51
31.41
30.51
29.98
29.90
30.27
30.97
31.73
32.34
32.59
32.40
31.72
30.55
28.88
26.67
23.93
20.65
16.92
12.81
8.49
4.16
0.02
-3.75
-7.06
-9.93
-12.51
-14.97
-17.45
-19.99
-22.56
-25.06
-27.41
-29.65
-31.92
-34.46
-37.61
-41.59
-46.37
-51.46
-55.92
-58.49
-58.02
-53.82
-45.95
-35.15
-22.66
-9.83
2.18
12.56
20.88
26.99
30.97
33.02
33.44
32.60
30.88
28.74
26.59
24.82
23.72
23.34
23.61
24.27
25.09
25.87
26.52
27.00
27.25
27.22
26.87
26.19
25.22
23.99
22.49
20.70
18.56
16.09
13.34
10.42
7.40
4.34
1.26
-1.82
-4.79
-7.50
-9.80
-11.66
-13.28
-14.96
-17.11
-19.95
-23.44
-27.24
-30.83
-33.78
-35.89
-37.23
-38.12
-38.95
-40.03
-41.59
-43.66
-46.09
-48.44
-49.98
-49.79
-46.98
-41.01
-31.94
-20.49
-7.85
4.65
15.80
24.77
31.16
34.98
36.56
36.36
34.91
32.69
30.08
27.42
25.01
23.14
22.04
21.85
22.49
23.71
25.09
26.25
26.92
27.00
26.60
25.82
24.71
23.16
21.02
18.14
14.51
10.35
5.99
1.77
-2.06
-5.42
-8.41
-11.18
-13.91
-16.78
-19.87
-23.25
-26.84
-30.53
-34.09
-37.33
-40.18
-42.72
-45.31
-48.36
-52.27
-57.16
-62.70
-68.07
-72.12
-73.60
-71.58
-65.71
-56.38
-44.62
-31.83
-19.39
-8.35
0.73
7.73
12.90
16.60
19.22
21.03
22.24
23.00
23.48
23.90
24.47
25.38
26.65
28.23
29.91
31.50
32.93
34.22
35.52
36.90
38.29
39.38
39.74
39.00
37.03
34.01
30.37
26.61
23.09
19.96
17.09
14.19
10.93
7.06
2.48
-2.67
-8.11
-13.42
-18.26
-22.47
-26.20
-29.88
-34.11
-39.51
-46.41
-54.72
-63.75
-72.30
-78.90
-82.21
-81.41
-76.56
-68.59
-59.03
-49.52
-41.31
-34.83
-29.68
-24.82
-19.06
-11.50
-1.88
9.34
21.18
32.52
42.43
50.34
56.10
59.77
61.54
61.70
60.62
58.81
56.81
55.10
53.93
53.23
52.73
52.05
50.93
49.33
47.49
45.88
45.00
45.25
46.60
48.62
50.49
51.25
50.15
46.80
41.35
34.34
26.61
19.16
12.96
8.76
6.83
6.73
7.40
7.39
5.41
0.85
-5.99
-14.01
-21.65
-27.39
-30.04
-28.88
-23.69
-14.84
-3.30
9.30
20.98
29.81
34.40
34.22
29.62
21.68
11.95
2.19
-5.83
-10.62
-11.34
-8.02
-1.72
5.70
12.17
15.98
16.20
12.80
6.58
-1.12
-8.78
-14.88
-18.17
-17.97
-14.34
-8.24
-1.33
4.37
7.10
5.80
0.45
-7.94
-17.58
-26.37
-32.45
-34.68
-32.95
-28.17
-22.13
-16.91
-14.40
-15.75
-21.05
-29.28
-38.54
-46.46
-50.79
-49.99
-43.63
-32.56
-18.71
-4.56
7.46
15.55
18.81
17.30
11.88
4.03
-4.38
-11.38
-15.32
-15.37
-11.79
-5.96
0.02
4.05
4.71
1.67
-4.22
-11.34
-17.76
-21.76
-22.19
-18.70
-11.84
-2.95
6.09
13.24
16.88
16.18
11.30
3.34
-5.97
-14.74
-21.35
-24.84
-25.22
-23.43
-21.13
-20.12
-21.80
-26.64
-33.98
-42.29
-49.56
-53.86
-53.74
-48.50
-38.43
-24.75
-9.54
4.61
15.22
20.43
19.52
13.04
2.61
-9.39
-20.43
-28.28
-31.57
-30.16
-25.31
-19.33
-14.99
-14.46
-18.56
-26.47
-36.14
-45.12
-51.46
-54.26
-53.74
-50.83
-46.61
-41.90
-37.14
-32.39
-27.48
-22.09
-15.81
-8.13
1.27
12.19
23.64
34.08
42.06
47.11
50.15
53.29
58.81
67.99
80.33
93.79
105.82
114.67
120.28
124.24
128.91
136.40
147.70
162.65
180.26
199.44
219.33
239.31
258.64
276.09
289.77
297.34
296.59
285.96
264.93
234.19
195.49
151.29
104.26
56.76
10.62
-32.96
-73.16
-109.20
-140.14
-165.02
-183.21
-194.78
-200.57
-201.93
-200.25
-196.64
-191.89
-186.71
-181.92
-178.55
-177.54
-179.48
-184.38
-191.58
-200.00
-208.39
-215.70
-221.38
-225.52
-228.83
-232.33
-237.00
-243.16
-250.23
-256.74
-260.72
-260.47
-255.18
-245.23
-231.98
-217.13
-202.03
-187.31
-172.84
-158.29
-143.55
-128.98
-115.12
-102.28
-90.28
-78.50
-66.29
-53.37
-39.98
-26.67
-13.92
-1.78
10.20
22.78
36.77
52.54
69.94
88.10
105.61
121.01
133.23
142.05
148.39
154.21
161.80
173.77
192.30
218.79
253.19
293.23
333.98
368.30
388.83
389.63
369.11
330.06
278.88
223.34
170.17
123.43
84.35
52.64
26.92
6.94
-7.29
-15.54
-17.47
-12.79
-1.25
17.20
42.88
75.24
115.02
159.74
204.48
244.36
276.78
300.05
310.44
310.71
296.42
266.72
225.58
180.40
138.44
103.16
76.45
56.65
40.42
23.64
4.75
-16.60
-40.18
-65.62
-91.96
-117.00
-137.57
-149.87
-152.02
-144.09
-129.47
-113.53
-101.27
-95.12
-94.26
-96.03
-97.48
-97.68
-97.23
-98.00
-101.71
-108.74
-117.91
-127.24
-135.12
-140.74
-144.26
-145.98
-146.03
-144.28
-140.43
-134.46
-126.78
-118.42
-110.63
-104.49
-100.47
-98.41
-97.70
-97.47
-96.91
-95.40
-92.71
-88.96
-84.46
-79.58
-74.58
-69.66
-64.91
-60.43
-56.28
-52.33
-48.20
-43.23
-36.68
-28.02
-17.18
-4.64
8.67
21.64
33.27
42.86
50.07
54.84
57.30
57.74
56.55
54.24
51.37
48.44
45.78
43.46
41.26
38.83
35.86
32.27
28.27
24.31
20.94
18.56
17.31
17.01
17.27
17.53
17.28
16.08
13.68
10.00
5.12
-0.75
-7.20
-13.72
-19.76
-24.81
-28.63
-31.35
-33.34
-35.06
-36.68
-37.80
-37.47
-34.51
-28.05
-18.02
-5.29
8.53
21.63
32.59
40.68
45.92
48.78
49.84
49.61
48.39
46.41
43.88
41.05
38.12
35.23
32.34
29.30
25.89
22.02
17.78
13.45
9.41
6.00
3.27
1.05
-0.96
-2.95
-4.80
-6.17
-6.68
-6.25
-5.22
-4.31
-4.32
-5.75
-8.67
-12.70
-17.30
-21.99
-26.50
-30.73
-34.58
-37.75
-39.69
-39.73
-37.37
-32.48
-25.48
-17.21
-8.72
-0.86
5.93
11.69
16.72
21.34
25.63
29.29
31.86
33.04
32.92
32.15
31.60
32.05
33.80
36.57
39.74
42.76
45.45
48.00
50.75
53.68
56.34
57.81
57.24
54.18
48.83
41.95
34.46
27.14
20.29
13.90
7.75
1.69
-4.20
-9.70
-14.60
-18.85
-22.62
-26.20
-29.76
-33.18
-35.99
-37.46
-36.87
-33.85
-28.53
-21.59
-14.11
-7.21
-1.81
1.64
3.15
3.05
1.82
-0.12
-2.40
-4.77
-6.95
-8.67
-9.66
-9.81
-9.20
-8.16
-7.10
-6.36
-6.08
-6.16
-6.30
-6.19
-5.70
-5.06
-4.71
-5.15
-6.69
-9.33
-12.71
-16.29
-19.50
-22.01
-23.70
-24.76
-25.56
-26.62
-28.39
-31.05
-34.37
-37.63
-39.69
-39.40
-35.93
-29.15
-19.66
-8.60
2.70
13.20
22.22
29.61
35.46
39.95
43.16
45.20
46.14
46.23
45.74
44.96
44.10
43.22
42.31
41.39
40.57
39.96
39.67
39.69
39.82
39.82
39.38
38.23
36.14
32.90
28.35
22.50
15.47
7.56
-0.88
-9.64
-18.72
-28.38
-39.05
-51.18
-64.98
-80.28
-96.41
-112.17
-126.10
-136.68
-142.63
-143.15
-137.97
-127.48
-112.55
-94.60
-75.29
-56.36
-39.29
-24.99
-13.67
-4.93
2.01
7.89
13.15
17.85
21.80
24.76
26.67
27.65
27.95
27.77
27.25
26.43
25.38
24.12
22.54
20.41
17.34
13.06
7.52
0.98
-6.15
-13.53
-21.01
-28.60
-36.22
-43.51
-49.84
-54.56
-57.30
-58.15
-57.61
-56.39
-55.21
-54.61
-54.87
-55.89
-57.05
-57.25
-55.14
-49.62
-40.31
-27.82
-13.63
0.32
12.22
20.83
25.65
26.86
25.00
20.78
14.82
7.74
0.24
-6.85
-12.52
-15.89
-16.46
-14.47
-10.78
-6.63
-3.10
-0.68
0.79
1.97
3.57
6.12
9.73
14.16
18.92
23.43
27.11
29.50
30.30
29.42
26.98
23.30
18.75
13.70
8.29
2.36
-4.54
-12.98
-23.39
-35.58
-48.67
-61.15
-71.23
-77.43
-78.87
-75.40
-67.45
-55.92
-41.99
-27.15
-13.02
-1.09
7.67
13.13
15.97
17.36
18.37
19.62
21.17
22.75
24.22
25.69
27.54
30.14
33.65
37.90
42.59
47.35
51.85
55.75
58.60
59.91
59.34
57.02
53.60
50.14
47.69
46.81
47.41
48.90
50.57
51.98
53.14
54.30
55.74
57.44
59.17
60.76
62.34
64.54
68.25
74.22
82.52
92.30
101.87
109.17
112.46
110.91
104.81
95.44
84.48
73.40
63.04
53.53
44.58
35.87
27.33
19.19
11.76
5.16
-0.71
-6.16
-11.52
-16.92
-22.28
-27.36
-31.93
-35.87
-39.27
-42.27
-45.13
-48.03
-51.12
-54.47
-58.07
-61.88
-65.87
-70.08
-74.59
-79.55
-85.16
-91.49
-98.55
-106.19
-114.25
-122.52
-130.76
-138.56
-145.28
-150.04
-151.97
-150.55
-145.81
-138.49
-129.82
-121.13
-113.51
-107.58
-103.53
-101.19
-100.21
-100.11
-100.19
-99.45
-96.69
-90.63
-80.26
-65.26
-46.17
-24.39
-1.81
19.75
39.01
55.41
69.11
80.56
90.26
98.55
105.68
111.94
117.78
123.71
130.00
136.59
142.93
148.22
151.57
152.14
149.29
142.49
131.35
115.66
95.56
71.71
45.21
17.58
-9.45
-34.09
-54.67
-69.73
-78.28
-80.04
-75.57
-66.22
-53.82
-40.25
-27.00
-15.04
-4.91
3.07
8.65
11.64
12.07
10.33
7.21
3.61
0.29
-2.31
-4.15
-5.37
-6.07
-6.20
-5.57
-4.05
-1.73
1.06
3.84
6.14
7.68
8.34
8.13
7.11
5.30
2.74
-0.48
-4.21
-8.21
-12.27
-16.16
-19.73
-22.92
-25.79
-28.61
-31.81
-35.80
-40.65
-45.90
-50.44
-52.88
-51.95
-46.99
-38.20
-26.48
-13.11
0.67
13.92
26.04
36.65
45.46
52.21
56.74
59.08
59.47
58.33
56.17
53.44
50.50
47.59
44.94
42.81
41.54
41.49
42.84
45.44
48.71
51.74
53.53
53.33
50.95
46.74
41.46
35.88
30.48
25.26
19.85
13.80
6.93
-0.52
-8.05
-15.10
-21.38
-26.96
-32.18
-37.41
-42.89
-48.64
-54.43
-59.88
-64.42
-67.27
-67.50
-64.26
-57.10
-46.24
-32.69
-17.89
-3.42
9.50
20.20
28.48
34.44
38.21
39.94
39.78
38.02
35.15
31.82
28.69
26.26
24.75
24.13
24.25
24.88
25.86
27.09
28.45
29.76
30.77
31.29
31.14
30.28
28.77
26.66
23.96
20.57
16.40
11.48
6.07
0.62
-4.32
-8.35
-11.41
-13.82
-16.20
-19.23
-23.42
-28.90
-35.32
-41.82
-47.18
-50.14
-49.70
-45.41
-37.55
-27.03
-15.00
-2.52
9.72
21.40
32.32
42.21
50.57
56.84
60.63
61.99
61.45
59.80
57.83
56.03
54.54
53.24
51.96
50.70
49.60
48.90
48.78
49.30
50.41
52.02
54.06
56.42
58.93
61.16
62.54
62.47
60.59
56.94
51.94
46.19
40.14
33.85
27.09
19.52
11.07
2.08
-6.92
-15.47
-23.59
-31.81
-40.85
-51.02
-61.80
-71.67
-78.55
-80.50
-76.54
-67.07
-53.80
-39.20
-25.72
-15.04
-7.71
-3.20
-0.44
1.59
3.32
4.50
4.55
3.01
0.02
-3.59
-6.68
-8.21
-7.77
-5.64
-2.58
0.58
3.37
5.70
7.77
9.81
11.89
13.92
15.67
16.91
17.41
16.94
15.22
12.01
7.27
1.22
-5.63
-12.61
-19.10
-24.73
-29.36
-33.13
-36.29
-39.10
-41.71
-44.01
-45.61
-45.73
-43.49
-38.14
-29.41
-17.67
-3.88
10.68
24.74
37.29
47.69
55.65
61.26
65.02
67.73
70.39
73.87
78.66
84.66
91.32
97.92
103.98
109.50
115.06
121.53
129.84
140.46
153.10
166.62
179.08
188.22
191.93
188.77
178.35
161.36
139.49
115.02
90.39
67.40
46.78
27.84
8.78
-12.50
-37.36
-65.69
-95.87
-125.41
-151.95
-173.91
-190.64
-202.02
-208.01
-208.52
-203.74
-194.58
-182.78
-170.66
-160.33
-153.00
-148.69
-146.33
-144.41
-141.54
-136.85
-130.23
-122.11
-113.23
-104.33
-95.91
-88.05
-80.54
-72.96
-64.92
-56.16
-46.61
-36.43
-25.91
-15.56
-5.97
2.17
8.33
12.22
13.91
13.84
12.67
11.04
9.42
8.00
6.66
5.22
3.53
1.71
0.04
-1.08
-1.41
-1.09
-0.66
-0.90
-2.55
-5.86
-10.35
-14.91
-18.10
-18.58
-15.58
-9.04
0.46
11.95
24.47
37.18
49.51
60.91
70.85
78.80
84.31
87.30
88.05
87.22
85.60
83.89
82.46
81.28
80.02
78.13
75.11
70.54
64.21
56.03
46.05
34.40
21.42
7.62
-6.19
-19.13
-30.44
-39.69
-46.94
-52.61
-57.22
-61.04
-64.07
-66.02
-66.69
-66.12
-64.67
-62.81
-60.88
-59.08
-57.55
-56.69
-57.14
-59.58
-64.26
-70.47
-76.48
-79.98
-78.93
-72.35
-60.58
-45.16
-28.06
-11.09
4.58
18.34
29.90
38.98
45.30
48.72
49.43
48.12
45.78
43.46
41.91
41.39
41.62
41.94
41.60
40.03
37.06
32.88
27.96
22.84
17.91
13.33
9.00
4.76
0.59
-3.26
-6.28
-7.90
-7.84
-6.33
-4.20
-2.59
-2.56
-4.48
-7.88
-11.47
-13.74
-13.70
-11.47
-8.33
-6.27
-7.23
-12.28
-21.18
-32.50
-44.15
-54.13
-61.11
-64.53
-64.42
-61.03
-54.56
-45.18
-33.18
-19.28
-4.70
8.98
20.32
28.47
33.48
36.12
37.37
37.85
37.56
35.97
32.58
27.54
21.78
16.70
13.45
12.23
12.17
11.85
10.13
6.83
2.85
-0.40
-1.81
-1.21
0.71
2.94
4.89
6.69
8.90
11.85
15.11
17.49
17.62
14.73
9.02
1.55
-6.31
-13.59
-19.87
-25.11
-29.07
-31.01
-29.77
-24.39
-14.61
-1.20
14.36
30.40
45.62
59.41
71.72
82.75
92.52
100.75
106.98
110.85
112.40
112.28
111.62
111.68
113.42
117.18
122.53
128.43
133.60
136.85
137.27
134.21
127.24
116.11
100.77
81.24
57.52
29.34
-3.81
-42.17
-85.03
-130.00
-173.06
-209.31
-234.65
-247.09
-247.44
-238.67
-224.54
-208.07
-190.72
-172.59
-153.24
-132.59
-111.27
-90.35
-70.62
-52.21
-34.57
-17.15
0.07
16.18
29.66
39.07
43.84
44.67
43.35
42.06
42.49
45.18
49.52
54.20
57.99
60.34
61.56
62.62
64.51
67.69
71.88
76.19
79.57
81.32
81.31
79.98
78.01
75.97
74.06
72.13
69.81
66.73
62.79
58.11
53.03
47.93
43.06
38.46
34.03
29.56
24.84
19.68
13.90
7.50
0.67
-6.03
-11.71
-15.27
-15.67
-12.28
-5.05
5.43
18.07
31.59
44.82
56.82
67.00
74.99
80.59
83.72
84.48
83.22
80.52
77.10
73.60
70.41
67.57
64.93
62.42
60.20
58.66
58.28
59.25
61.35
63.96
66.31
67.78
68.14
67.53
66.25
64.53
62.27
59.14
54.74
48.85
41.56
33.09
23.64
13.19
1.63
-10.95
-23.97
-36.22
-46.25
-52.88
-55.79
-55.58
-53.59
-51.27
-49.77
-49.73
-51.42
-54.95
-60.39
-67.68
-76.53
-86.36
-96.45
-106.21
-115.40
-124.19
-132.91
-141.82
-150.87
-159.70
-167.81
-174.72
-180.19
-184.24
-187.11
-189.08
-190.44
-191.43
-192.21
-192.89
-193.47
-193.92
-194.15
-194.16
-194.06
-194.17
-194.92
-196.63
-199.26
-202.22
-204.34
-204.05
-199.77
-190.33
-175.35
-155.46
-132.20
-107.77
-84.43
-64.06
-47.76
-35.78
-27.83
-23.37
-22.02
-23.69
-28.50
-36.63
-48.09
-62.64
-79.74
-98.47
-117.64
-135.79
-151.38
-163.03
-169.88
-171.85
-169.48
-163.72
-155.26
-144.08
-129.44
-110.49
-87.07
-60.36
-32.68
-6.85
14.77
30.75
40.69
44.91
44.15
39.55
32.82
26.30
22.73
24.52
33.13
48.50
69.24
93.07
117.52
140.51
160.71
177.67
191.64
203.21
212.73
219.93
223.96
223.73
218.50
208.21
193.57
175.83
156.39
136.53
117.28
99.45
83.70
70.57
60.36
53.15
48.54
45.81
43.92
41.87
38.86
34.54
29.06
22.85
16.41
10.04
3.77
-2.62
-9.44
-16.94
-25.21
-34.08
-43.08
-51.35
-57.77
-61.08
-60.27
-54.84
-45.06
-31.93
-16.95
-1.67
12.64
25.21
35.69
43.99
50.04
53.77
55.18
54.52
52.39
49.62
47.07
45.29
44.44
44.30
44.53
44.94
45.59
46.71
48.50
50.84
53.22
54.82
54.79
52.56
48.07
41.73
34.30
26.62
19.31
12.69
6.72
1.02
-4.97
-11.91
-20.29
-30.17
-40.94
-51.26
-59.29
-63.24
-61.93
-55.25
-44.09
-30.04
-14.83
0.11
13.73
25.40
34.68
41.33
45.34
47.02
47.01
46.09
44.97
44.22
44.16
45.08
47.35
51.38
57.52
65.81
75.84
86.71
97.29
106.45
113.37
117.72
119.57
119.34
117.60
114.84
111.44
107.46
102.63
96.35
87.85
76.40
61.45
42.87
21.10
-2.76
-26.94
-49.19
-67.12
-78.90
-83.72
-82.14
-75.89
-67.25
-58.30
-50.40
-44.02
-39.13
-35.58
-33.46
-33.04
-34.40
-37.15
-40.33
-42.73
-43.31
-41.64
-38.06
-33.41
-28.64
-24.38
-20.85
-17.99
-15.79
-14.46
-14.45
-16.14
-19.65
-24.65
-30.48
-36.47
-42.10
-47.23
-51.97
-56.52
-61.00
-65.35
-69.40
-73.02
-76.26
-79.29
-82.25
-84.92
-86.48
-85.54
-80.38
-69.51
-52.05
-28.09
1.39
34.70
69.77
104.37
136.31
163.64
184.94
199.60
207.87
210.74
209.52
205.35
198.89
190.40
180.03
168.08
155.20
142.16
129.50
117.22
104.65
90.61
73.66
52.43
26.08
-5.41
-40.94
-78.30
-114.60
-147.09
-173.94
-194.80
-210.68
-223.35
-234.46
-244.88
-254.52
-262.45
-267.31
-267.59
-261.97
-249.58
-230.25
-204.58
-173.77
-139.12
-101.81
-62.81
-23.13
15.82
52.24
84.35
111.13
132.87
151.25
168.67
187.17
207.54
228.98
249.60
267.20
280.19
288.04
291.21
290.70
287.47
282.07
274.59
265.01
253.59
241.02
228.43
216.99
207.42
199.73
193.23
186.86
179.79
171.95
164.14
157.87
154.67
155.27
159.00
163.71
166.27
163.63
153.95
137.13
114.91
90.29
66.84
48.08
36.95
35.24
43.01
58.17
76.69
93.45
103.81
105.06
97.15
82.27
63.64
44.07
25.22
7.74
-8.06
-21.46
-31.23
-36.11
-35.61
-30.43
-22.45
-14.22
-8.13
-5.92
-8.39
-15.54
-26.83
-41.48
-58.59
-77.14
-96.01
-113.99
-129.97
-143.25
-153.74
-162.08
-169.50
-177.36
-186.63
-197.34
-208.43
-218.02
-224.05
-225.02
-220.45
-210.79
-197.10
-180.50
-162.00
-142.55
-123.21
-105.27
-90.04
-78.49
-70.87
-66.59
-64.50
-63.31
-62.05
-60.27
-57.94
-55.30
-52.64
-50.30
-48.62
-47.91
-48.38
-49.99
-52.45
-55.31
-58.18
-60.87
-63.45
-66.08
-68.87
-71.66
-74.14
-75.96
-76.89
-76.84
-75.90
-74.21
-71.95
-69.49
-67.35
-65.99
-65.50
-65.27
-64.08
-60.64
-54.21
-45.21
-35.07
-25.58
-18.11
-13.10
-10.12
-8.49
-7.91
-8.75
-11.77
-17.53
-25.75
-35.27
-44.42
-51.70
-56.41
-58.83
-59.95
-60.83
-62.01
-63.17
-63.42
-61.88
-58.47
-54.05
-50.20
-48.41
-49.28
-52.27
-55.91
-58.59
-59.21
-57.51
-53.79
-48.31
-40.88
-30.81
-17.40
-0.57
18.73
38.60
56.82
71.69
82.75
90.84
97.63
104.74
112.94
121.75
129.67
134.94
136.27
133.33
126.76
117.76
107.48
96.68
85.58
74.07
62.07
49.78
37.64
26.22
15.99
7.18
-0.27
-6.54
-11.76
-15.94
-18.88
-20.22
-19.62
-17.02
-12.86
-8.08
-3.85
-1.11
-0.09
-0.09
0.14
1.82
5.43
10.44
15.48
19.06
20.20
19.01
16.55
14.55
14.90
19.15
28.31
42.66
61.74
84.43
109.01
133.52
155.95
174.51
187.85
195.17
196.34
191.95
183.36
172.39
160.94
150.49
141.66
134.06
126.54
117.65
106.10
90.94
71.66
48.22
21.33
-7.27
-34.84
-58.08
-74.09
-81.21
-79.51
-70.54
-56.47
-39.25
-20.16
0.04
20.57
40.17
57.11
69.50
75.76
74.87
66.28
49.85
25.79
-5.03
-40.95
-79.38
-117.22
-151.46
-179.90
-201.59
-216.76
-226.34
-231.39
-232.55
-229.89
-223.07
-211.67
-195.50
-174.85
-150.41
-123.18
-94.15
-64.15
-33.76
-3.44
26.28
54.61
80.55
103.07
121.41
135.31
144.90
150.46
152.13
149.86
143.59
133.48
120.15
104.60
87.91
70.94
54.10
37.53
21.25
5.36
-9.94
-24.47
-38.18
-51.18
-63.63
-75.61
-86.99
-97.49
-106.81
-114.90
-122.28
-130.19
-140.50
-155.21
-175.67
-201.73
-231.38
-260.90
-285.90
-302.55
-308.87
-305.18
-293.76
-277.81
-260.17
-242.53
-225.13
-207.31
-188.01
-166.34
-141.87
-114.60
-84.96
-53.93
-23.07
5.55
29.71
47.80
59.33
65.28
67.73
69.20
71.83
76.76
84.00
92.58
101.03
107.92
112.31
113.92
113.10
110.60
107.22
103.55
99.84
96.02
91.78
86.67
80.25
72.19
62.38
51.05
38.82
26.51
14.99
4.82
-3.94
-11.64
-18.93
-26.44
-34.60
-43.45
-52.64
-61.43
-68.92
-74.22
-76.88
-77.19
-76.15
-75.23
-75.82
-78.71
-83.66
-89.63
-95.20
-99.14
-100.81
-100.26
-97.92
-94.38
-90.15
-85.59
-80.89
-75.94
-70.21
-62.67
-51.99
-36.99
-17.23
6.60
32.75
58.94
83.12
104.17
122.07
137.60
151.54
164.10
174.59
181.76
184.44
182.17
175.51
165.66
154.01
141.67
129.36
117.67
107.37
99.35
94.34
92.46
93.00
94.66
96.07
96.35
95.25
93.01
89.91
86.01
81.10
74.88
67.03
57.14
44.54
28.18
6.95
-19.87
-52.17
-88.95
-128.60
-169.39
-209.79
-248.17
-282.37
-309.37
-325.59
-327.73
-314.03
-285.09
-243.99
-195.57
-145.20
-97.67
-56.54
-23.93
-0.69
13.45
19.73
20.20
17.36
13.67
10.93
9.91
10.39
11.55
12.45
12.65
12.39
12.41
13.50
15.87
18.78
20.59
19.27
13.06
1.21
-15.71
-36.04
-57.56
-78.18
-96.45
-111.65
-123.56
-132.20
-137.58
-139.73
-138.87
-135.61
-130.92
-125.90
-121.28
-116.98
-111.92
-104.20
-91.80
-73.35
-48.86
-19.84
11.03
40.77
67.02
88.53
105.11
117.34
125.86
131.09
133.23
132.47
129.28
124.54
119.34
114.68
111.12
108.64
106.78
104.94
102.72
100.08
97.28
94.64
92.36
90.38
88.49
86.47
84.23
81.76
79.07
76.13
72.83
69.21
65.51
62.24
60.06
59.52
60.91
64.09
68.54
73.50
78.14
81.65
83.44
83.25
81.38
78.74
76.74
76.91
80.53
88.28
100.17
115.83
134.62
155.74
178.01
199.60
218.18
231.36
237.49
236.21
228.38
215.56
199.13
179.83
157.88
133.50
107.42
80.98
55.67
32.59
12.20
-5.66
-21.35
-35.12
-47.16
-57.73
-67.50
-77.44
-88.51
-101.30
-115.68
-130.92
-145.98
-159.98
-172.44
-183.28
-192.69
-200.92
-208.18
-214.65
-220.50
-225.90
-230.95
-235.49
-239.10
-240.90
-239.64
-233.71
-221.34
-200.90
-171.42
-133.24
-88.28
-40.04
6.98
48.20
79.94
100.27
109.45
109.89
105.63
101.43
101.37
107.77
120.43
136.75
152.75
164.37
168.73
164.68
152.77
134.73
112.85
89.51
66.83
46.53
29.64
16.43
6.45
-1.26
-7.83
-14.21
-20.96
-28.12
-35.31
-41.89
-47.19
-50.82
-52.75
-53.36
-53.22
-52.87
-52.62
-52.54
-52.59
-52.66
-52.72
-52.66
-52.23
-51.01
-48.43
-43.88
-36.88
-27.17
-14.80
-0.11
16.26
33.50
50.74
67.22
82.35
95.78
107.40
117.25
125.48
132.14
137.05
139.55
138.48
132.41
120.10
101.12
76.22
47.42
17.65
-9.76
-31.72
-45.79
-50.51
-45.69
-32.41
-12.97
9.56
32.06
51.98
67.82
79.18
86.37
90.01
90.77
89.19
85.83
81.25
76.04
70.65
65.28
59.88
54.15
47.76
40.56
32.68
24.62
17.17
11.18
7.40
6.30
7.95
12.12
18.19
25.05
30.97
33.50
29.90
17.87
-3.55
-33.43
-69.05
-106.72
-142.90
-175.04
-201.84
-222.76
-237.42
-245.30
-245.96
-239.58
-227.43
-211.71
-194.89
-178.73
-163.74
-149.24
-133.97
-116.98
-98.33
-79.22
-61.60
-47.42
-37.91
-33.05
-31.51
-31.06
-29.30
-24.46
-15.99
-4.88
6.70
15.99
20.63
19.35
12.40
1.39
-11.14
-22.47
-30.23
-32.84
-29.73
-21.41
-9.19
4.99
19.11
31.55
41.56
49.40
56.19
63.39
72.26
83.44
96.78
111.45
126.18
139.59
150.45
157.92
161.70
161.91
158.92
153.02
144.34
132.84
118.64
102.16
84.21
65.84
47.94
31.14
15.69
1.60
-11.20
-22.83
-33.43
-43.12
-51.97
-59.88
-66.52
-71.48
-74.48
-75.72
-75.91
-76.15
-77.45
-80.21
-83.90
-87.04
-87.69
-84.14
-75.53
-62.22
-45.63
-27.75
-10.48
4.77
17.27
26.75
33.25
37.00
38.48
38.54
38.30
38.94
41.30
45.63
51.54
58.27
64.97
71.09
76.50
81.38
86.09
90.95
96.11
101.54
107.02
112.17
116.45
119.21
119.80
117.88
113.61
107.79
101.79
97.18
95.26
96.54
100.56
106.05
111.38
115.13
116.59
115.91
113.93
111.76
110.19
109.20
107.61
103.19
93.07
74.45
45.26
4.75
-46.28
-105.32
-168.31
-229.95
-284.40
-326.28
-351.70
-359.19
-349.99
-327.61
-296.87
-262.79
-229.62
-200.49
-177.27
-160.76
-150.72
-145.98
-144.64
-144.54
-143.84
-141.43
-137.17
-131.71
-125.98
-120.73
-116.14
-111.83
-107.05
-101.15
-93.96
-86.00
-78.32
-72.10
-68.07
-66.12
-65.24
-63.90
-60.78
-55.35
-48.27
-41.18
-35.93
-33.95
-35.60
-40.10
-45.82
-50.70
-52.65
-49.72
-40.20
-22.83
2.80
35.74
73.28
111.26
144.88
170.11
184.93
190.04
188.45
184.33
181.49
182.16
186.60
193.52
200.97
207.13
210.74
211.17
208.27
202.20
193.48
182.88
171.48
160.36
150.37
141.82
134.31
126.81
117.87
105.99
90.07
69.76
45.53
18.54
-9.74
-37.84
-64.49
-88.52
-108.61
-123.33
-131.34
-131.94
-125.54
-113.81
-99.34
-84.86
-72.39
-62.71
-55.41
-49.32
-43.28
-36.68
-29.67
-22.93
-17.16
-12.69
-9.31
-6.42
-3.48
-0.33
2.74
5.08
6.15
5.75
4.23
2.29
0.63
-0.51
-1.52
-3.30
-6.75
-12.19
-19.02
-25.84
-31.11
-33.87
-34.22
-33.29
-32.75
-33.98
-37.62
-43.42
-50.46
-57.50
-63.18
-66.23
-65.50
-60.22
-50.23
-36.22
-19.51
-1.85
15.12
30.10
42.34
51.63
58.17
62.44
65.07
66.68
67.73
68.50
69.04
69.27
69.02
68.16
66.58
64.25
61.29
57.99
54.82
52.27
50.66
50.09
50.26
50.63
50.54
49.45
47.01
43.28
38.61
33.54
28.56
24.03
20.09
16.74
13.92
11.53
9.40
7.25
4.62
0.89
-4.60
-12.18
-21.75
-32.49
-43.00
-51.59
-56.69
-57.38
-53.63
-46.32
-37.03
-27.44
-18.97
-12.50
-8.38
-6.61
-7.02
-9.35
-13.21
-18.04
-23.06
-27.44
-30.52
-32.08
-32.38
-32.03
-31.61
-31.37
-31.20
-30.72
-29.58
-27.75
-25.52
-23.37
-21.71
-20.70
-20.08
-19.38
-18.10
-16.01
-13.26
-10.36
-7.99
-6.75
-6.98
-8.62
-11.28
-14.38
-17.29
-19.50
-20.75
-21.08
-20.95
-21.17
-22.64
-26.06
-31.47
-38.06
-44.26
-48.18
-48.27
-43.82
-35.28
-23.95
-11.55
0.47
11.27
20.67
28.81
35.76
41.19
44.47
45.05
42.79
38.18
32.18
25.75
19.49
13.43
7.28
0.73
-6.25
-13.26
-19.72
-25.24
-29.86
-34.13
-38.84
-44.72
-52.05
-60.59
-69.66
-78.40
-86.00
-92.03
-96.47
-99.71
-102.41
-105.22
-108.52
-112.30
-116.01
-118.75
-119.50
-117.39
-112.09
-103.90
-93.77
-83.11
-73.52
-66.26
-61.82
-59.48
-57.12
-51.60
-39.56
-18.58
11.89
50.19
92.95
136.17
176.36
211.35
240.36
263.51
281.15
293.35
299.58
298.94
290.60
274.31
250.95
222.67
192.54
163.78
138.87
118.81
103.20
90.67
79.81
69.75
60.43
52.36
46.18
42.28
40.71
41.11
42.86
45.21
47.44
49.11
50.21
51.00
51.72
52.30
52.27
50.99
48.11
43.97
39.46
35.73
33.61
33.27
34.08
34.65
32.90
26.10
11.15
-14.67
-52.57
-101.23
-156.47
-212.01
-261.16
-298.51
-321.13
-328.64
-322.46
-304.93
-278.62
-246.17
-210.39
-174.17
-140.26
-110.84
-87.20
-69.72
-58.02
-51.28
-48.62
-49.24
-52.50
-58.02
-65.41
-74.07
-82.98
-90.75
-95.97
-97.75
-96.28
-92.87
-89.39
-87.38
-87.13
-87.49
-86.41
-82.02
-73.79
-62.99
-52.24
-44.29
-40.68
-41.02
-43.14
-44.12
-41.61
-34.68
-23.96
-11.04
2.45
15.47
27.69
39.17
50.17
61.07
72.67
86.30
103.70
126.33
154.56
187.20
221.60
254.47
282.75
304.40
318.52
325.10
324.78
318.61
308.06
294.89
280.85
267.07
253.73
239.98
224.41
205.83
183.83
158.99
132.64
106.28
81.12
57.84
36.75
17.92
1.45
-12.60
-24.37
-34.31
-43.23
-51.99
-61.34
-71.61
-82.67
-93.98
-104.78
-114.26
-121.83
-127.36
-131.21
-134.24
-137.51
-141.94
-147.92
-155.06
-162.13
-167.37
-169.01
-165.75
-157.23
-144.09
-127.75
-109.93
-92.24
-75.91
-61.74
-50.25
-41.82
-36.67
-34.66
-35.16
-36.96
-38.53
-38.32
-35.11
-28.10
-16.92
-1.48
17.94
40.77
65.90
91.84
116.79
138.89
156.41
167.75
171.55
166.84
153.36
131.96
104.80
75.19
47.12
24.44
10.18
5.96
11.77
26.07
46.21
69.09
91.80
112.20
129.09
142.11
151.31
156.69
157.74
153.40
142.06
121.83
90.97
48.36
-5.81
-69.55
-138.87
-208.29
-271.86
-324.38
-362.31
-383.99
-389.36
-379.47
-356.22
-322.37
-281.68
-238.73
-198.27
-164.16
-138.37
-120.49
-108.23
-98.51
-88.88
-78.32
-67.28
-56.99
-48.46
-41.71
-35.74
-29.04
-20.44
-9.72
2.33
14.49
25.79
36.01
45.68
55.64
66.46
78.22
90.48
102.51
113.67
123.40
131.31
136.96
139.77
139.07
134.39
125.76
114.14
101.52
90.74
84.79
85.88
94.58
109.41
127.08
143.42
154.46
157.49
151.48
137.14
116.44
92.03
66.80
43.39
23.90
9.54
0.45
-4.30
-6.42
-7.91
-10.56
-15.58
-23.31
-33.31
-44.52
-55.53
-65.04
-72.15
-76.61
-78.88
-79.85
-80.61
-82.09
-84.81
-88.79
-93.62
-98.50
-102.52
-104.82
-104.97
-103.09
-99.93
-96.65
-94.49
-94.29
-96.22
-99.64
-103.15
-104.95
-103.21
-96.47
-84.07
-66.30
-44.35
-20.16
4.04
26.17
44.68
58.73
68.19
73.41
74.94
73.36
69.17
62.95
55.50
47.95
41.59
37.66
36.90
39.29
44.08
49.89
55.23
58.89
60.30
59.51
57.04
53.57
49.57
45.27
40.58
35.38
29.61
23.34
16.72
9.85
2.67
-5.03
-13.56
-23.15
-33.87
-45.44
-57.09
-67.58
-75.36
-78.91
-77.17
-69.95
-57.99
-42.84
-26.43
-10.64
3.14
14.14
22.15
27.31
29.95
30.49
29.45
27.45
25.13
23.05
21.47
20.39
19.57
18.76
17.91
17.24
17.23
18.38
20.95
24.91
29.79
34.81
39.06
41.50
41.13
37.20
29.34
17.84
3.65
-11.72
-26.59
-39.47
-49.38
-56.13
-60.19
-62.60
-64.64
-67.51
-72.03
-78.33
-85.74
-92.77
-97.51
-98.17
-93.55
-83.46
-68.66
-50.63
-31.10
-11.66
6.38
22.10
34.86
44.22
50.10
52.78
52.93
51.50
49.47
47.60
46.34
45.81
45.92
46.49
47.28
48.11
48.83
49.31
49.57
49.67
49.65
49.36
48.46
46.42
42.77
37.27
30.01
21.41
12.20
3.22
-4.68
-10.89
-15.26
-18.18
-20.57
-23.56
-28.14
-34.76
-43.14
-52.37
-61.09
-67.81
-71.22
-70.33
-64.68
-54.51
-40.72
-24.77
-8.42
6.67
19.32
29.03
35.97
40.75
44.10
46.53
48.17
48.87
48.44
46.94
44.80
42.75
41.59
41.86
43.68
46.72
50.28
53.44
55.23
54.74
51.28
44.51
34.66
22.61
9.74
-2.29
-12.09
-19.04
-23.49
-26.71
-30.31
-35.63
-43.11
-52.23
-61.62
-69.81
-75.60
-78.51
-78.72
-76.82
-73.61
-69.76
-65.80
-62.00
-58.38
-54.76
-50.96
-46.99
-43.27
-40.65
-40.13
-42.56
-48.21
-56.60
-66.59
-76.57
-84.87
-90.09
-91.49
-89.22
-84.39
-78.84
-74.63
-73.29
-75.32
-79.87
-85.04
-88.44
-88.08
-82.98
-73.65
-61.90
-50.40
-41.75
-37.80
-39.12
-44.97
-53.68
-63.21
-71.52
-76.85
-77.71
-72.87
-61.39
-42.83
-17.42
13.73
48.68
84.83
119.49
150.52
176.85
198.68
217.05
233.16
247.57
259.92
269.31
274.96
276.91
276.02
273.47
270.00
265.34
258.49
248.36
234.60
218.05
200.57
184.30
170.82
160.63
153.05
146.71
140.19
132.67
124.20
115.51
107.60
101.24
96.70
93.74
91.78
89.98
87.21
81.91
72.09
55.71
31.37
-0.96
-39.63
-81.49
-122.87
-160.53
-192.54
-218.33
-238.31
-253.17
-263.29
-268.66
-268.92
-263.81
-253.31
-237.81
-218.12
-195.29
-170.53
-144.91
-119.19
-93.61
-68.01
-41.97
-15.21
12.29
40.19
68.02
95.35
121.84
146.90
169.39
187.37
198.36
200.03
191.12
171.96
144.63
112.29
78.20
44.87
13.51
-15.76
-43.41
-69.74
-94.39
-116.05
-132.67
-141.76
-141.14
-129.50
-107.11
-75.92
-39.43
-2.00
31.89
58.23
73.81
76.57
65.82
42.62
10.01
-27.23
-63.55
-93.93
-115.15
-126.35
-128.61
-123.86
-113.78
-99.15
-80.23
-57.46
-32.25
-7.19
14.52
30.03
37.76
37.85
31.90
22.08
10.04
-3.91
-20.92
-43.07
-72.18
-108.64
-150.88
-195.47
-238.11
-274.76
-302.50
-319.89
-326.86
-324.36
-314.16
-298.66
-280.56
-262.25
-244.92
-227.83
-208.43
-183.29
-149.91
-108.20
-61.09
-13.66
28.80
62.92
88.41
107.69
124.21
140.51
156.84
171.34
181.29
184.64
180.94
171.15
156.85
139.48
120.19
100.36
82.12
68.34
61.81
64.08
74.65
91.10
109.97
128.21
144.12
157.52
169.20
179.99
190.03
198.53
204.01
204.94
200.31
189.94
174.39
154.69
131.84
106.48
78.80
48.52
15.24
-21.38
-61.26
-103.69
-147.18
-189.33
-227.02
-257.01
-276.50
-283.99
-279.60
-265.07
-243.29
-217.47
-190.50
-164.31
-139.73
-116.63
-94.50
-72.94
-52.18
-33.12
-17.13
-5.57
0.79
2.06
-0.75
-6.10
-12.43
-18.58
-23.97
-28.57
-32.63
-36.41
-39.93
-42.96
-45.00
-45.57
-44.34
-41.47
-37.60
-33.74
-31.07
-30.50
-32.21
-35.39
-38.32
-39.03
-36.11
-29.44
-20.23
-10.55
-2.36
3.24
6.24
7.28
7.19
6.44
5.30
4.20
4.06
6.19
11.71
20.90
32.94
46.23
58.95
69.69
77.73
82.98
85.74
86.41
85.40
83.09
79.84
75.92
71.55
66.91
62.23
57.81
54.06
51.33
49.80
49.36
49.64
50.08
50.11
49.24
47.22
44.09
40.26
36.32
32.91
30.45
28.92
27.87
26.64
24.58
21.26
16.55
10.68
4.11
-2.35
-7.71
-10.91
-11.10
-7.92
-1.65
6.88
16.60
26.44
35.61
43.71
50.62
56.42
61.25
65.19
68.19
70.09
70.62
69.64
67.19
63.56
59.25
54.79
50.64
47.08
44.28
42.26
40.91
40.00
39.11
37.79
35.70
32.75
29.14
25.23
21.42
17.91
14.70
11.56
8.11
3.96
-1.24
-7.67
-15.25
-23.48
-31.48
-38.03
-41.91
-42.20
-38.56
-31.33
-21.34
-9.65
2.76
15.12
26.89
37.60
46.84
54.30
59.86
63.64
65.94
67.07
67.26
66.64
65.28
63.38
61.20
59.05
57.11
55.40
53.79
52.12
50.29
48.33
46.28
44.12
41.72
38.89
35.47
31.39
26.76
21.81
16.81
11.96
7.37
2.94
-1.52
-6.31
-11.71
-17.89
-24.83
-32.21
-39.42
-45.57
-49.65
-50.72
-48.19
-41.97
-32.53
-20.84
-8.08
4.53
15.99
25.61
33.04
38.27
41.54
43.25
43.88
43.84
43.40
42.69
41.68
40.37
38.85
37.29
35.95
35.01
34.56
34.51
34.65
34.67
34.28
33.27
31.54
29.15
26.21
22.94
19.53
16.16
12.97
10.07
7.46
5.05
2.64
0.01
-3.03
-6.62
-10.79
-15.54
-20.85
-26.67
-32.73
-38.53
-43.28
-46.07
-46.11
-43.06
-37.12
-28.99
-19.63
-9.93
-0.60
7.96
15.50
21.81
26.66
29.84
31.29
31.16
29.92
28.11
26.30
24.81
23.73
22.90
22.09
21.13
20.00
18.87
17.96
17.40
17.13
16.90
16.36
15.22
13.35
10.82
7.85
4.69
1.48
-1.68
-4.85
-8.06
-11.35
-14.66
-17.89
-20.98
-23.88
-26.62
-29.26
-31.96
-34.85
-38.13
-41.82
-45.81
-49.68
-52.79
-54.35
-53.67
-50.35
-44.37
-36.13
-26.22
-15.40
-4.38
6.10
15.40
22.96
28.44
31.82
33.33
33.43
32.68
31.58
30.48
29.64
29.17
29.12
29.46
30.08
30.80
31.43
31.76
31.65
31.03
29.86
28.15
25.92
23.17
19.95
16.32
12.37
8.21
3.96
-0.28
-4.42
-8.37
-12.03
-15.33
-18.27
-20.92
-23.49
-26.28
-29.57
-33.53
-38.04
-42.63
-46.53
-48.81
-48.66
-45.61
-39.73
-31.56
-22.06
-12.22
-2.87
5.47
12.60
18.48
23.08
26.38
28.35
29.11
28.95
28.36
27.86
27.85
28.51
29.71
31.18
32.61
33.80
34.73
35.53
36.35
37.30
38.30
39.11
39.41
38.96
37.66
35.55
32.77
29.38
25.28
20.22
13.97
6.47
-2.04
-10.98
-19.62
-27.27
-33.54
-38.46
-42.49
-46.35
-50.88
-56.75
-64.30
-73.52
-83.93
-94.73
-104.94
-113.64
-120.32
-125.09
-128.74
-132.56
-137.87
-145.44
-155.25
-166.40
-177.69
-188.18
-197.41
-206.35
-215.98
-226.86
-238.56
-249.52
-257.30
-259.22
-252.99
-237.08
-212.26
-181.06
-147.88
-118.24
-97.22
-87.70
-89.25
-98.19
-108.17
-114.48
-113.36
-103.45
-85.39
-60.79
-31.38
1.11
34.67
68.83
98.37
120.84
135.07
141.69
142.96
142.08
142.22
145.82
158.24
174.56
193.67
214.20
235.42
257.91
283.52
314.73
353.54
407.19
466.50
527.78
585.66
633.78
665.78
676.83
665.62
635.94
605.59
576.73
560.13
561.06
577.24
600.24
619.60
627.49
565.63
507.09
444.15
378.48
309.71
236.84
160.50
84.12
13.07
-47.75
-87.44
-117.35
-141.53
-164.32
-188.29
-213.44
-237.80
-258.88
-275.13
-279.92
-282.51
-285.43
-290.95
-300.30
-313.31
-328.32
-342.71
-353.49
-354.01
-347.84
-335.43
-318.69
-300.27
-282.64
-267.26
-254.36
-243.22
-230.67
-218.25
-205.67
-193.13
-180.88
-168.97
-157.10
-144.86
-132.09
-118.24
-104.82
-92.63
-82.21
-73.53
-65.97
-58.52
-50.26
-40.73
-30.07
-18.95
-8.11
1.85
10.77
18.86
26.53
34.09
41.58
48.49
53.83
56.38
55.01
49.08
38.79
25.19
10.12
-4.32
-16.17
-24.09
-27.52
-26.81
-23.05
-17.91
-13.38
-11.42
-13.58
-20.58
-32.08
-46.74
-62.59
-77.61
-90.41
-100.54
-108.48
-115.33
-122.31
-130.36
-139.98
-151.23
-163.80
-177.11
-190.43
-202.83
-213.38
-221.29
-226.07
-227.69
-226.63
-223.72
-219.87
-215.85
-211.95
-208.04
-203.66
-198.37
-192.03
-184.94
-177.73
-171.14
-165.64
-161.24
-157.43
-153.26
-147.55
-139.12
-127.02
-110.79
-90.57
-67.24
-42.24
-17.32
5.94
26.37
43.39
56.97
67.37
74.93
79.91
82.53
82.99
81.64
79.04
75.82
72.59
69.68
67.07
64.43
61.33
57.52
53.08
48.38
43.89
39.92
36.37
32.92
29.04
24.40
19.03
13.31
7.86
3.25
-0.21
-2.65
-4.55
-6.56
-9.28
-13.07
-17.99
-23.76
-29.82
-35.30
-39.11
-40.00
-36.87
-29.18
-17.12
-1.74
15.34
32.36
47.86
60.86
70.98
78.27
83.08
85.92
87.44
88.39
89.45
91.21
94.02
97.91
102.48
106.84
109.66
109.38
104.72
95.08
80.82
63.10
43.37
22.79
1.87
-19.30
-40.61
-61.35
-80.19
-95.96
-108.43
-118.67
-128.46
-139.10
-150.33
-160.30
-166.53
-167.35
-162.74
-154.15
-143.34
-131.24
-117.55
-101.34
-82.05
-60.22
-37.31
-14.77
6.75
27.70
49.17
71.92
95.85
119.76
141.84
160.17
173.36
180.93
183.25
181.35
176.59
170.12
162.67
154.47
145.47
135.66
125.31
114.99
105.33
96.73
89.19
82.33
75.65
68.87
62.01
55.36
49.27
43.85
38.94
34.18
29.24
23.94
18.32
12.54
6.75
1.07
-4.44
-9.69
-14.55
-18.86
-22.53
-25.63
-28.43
-31.29
-34.58
-38.46
-42.80
-47.14
-50.66
-52.42
-51.52
-47.46
-40.33
-30.86
-20.21
-9.74
-0.60
6.47
11.19
13.73
14.52
14.06
12.82
11.12
9.21
7.33
5.68
4.49
3.87
3.70
3.61
3.22
2.28
0.99
-0.10
-0.33
0.70
2.77
5.10
6.66
6.67
4.87
1.63
-2.27
-6.00
-9.11
-11.67
-14.24
-17.62
-22.41
-28.71
-35.99
-43.22
-49.30
-53.50
-55.77
-56.69
-57.27
-58.46
-60.89
-64.70
-69.46
-74.16
-77.31
-77.05
-71.56
-59.65
-41.38
-18.32
6.59
29.98
49.14
62.98
72.31
79.24
86.02
93.90
102.64
110.78
116.60
119.05
118.27
115.42
111.98
108.99
106.66
104.51
101.88
98.56
94.83
91.30
88.41
86.05
83.49
79.79
74.25
66.83
58.19
49.34
41.22
34.32
28.61
23.75
19.34
15.11
11.04
7.24
3.92
1.21
-0.86
-2.45
-3.89
-5.60
-8.07
-11.62
-16.31
-21.87
-27.62
-32.62
-35.81
-36.20
-33.20
-26.79
-17.69
-7.16
3.27
12.24
18.93
23.16
25.20
25.47
24.28
21.77
18.00
13.17
7.70
2.25
-2.56
-6.29
-8.80
-10.11
-10.20
-8.92
-5.93
-0.95
6.05
14.73
24.36
33.91
42.28
48.43
51.59
51.38
47.84
41.50
33.16
23.79
14.27
5.26
-2.90
-10.09
-16.44
-22.13
-27.43
-32.65
-37.96
-43.47
-49.11
-54.66
-59.82
-64.22
-67.42
-68.86
-67.99
-64.41
-58.12
-49.71
-40.26
-31.10
-23.33
-17.46
-13.33
-10.39
-8.11
-6.30
-5.19
-5.12
-6.15
-7.89
-9.55
-10.31
-9.74
-7.96
-5.60
-3.41
-2.12
-2.35
-4.62
-9.38
-16.65
-25.77
-35.24
-43.06
-47.42
-47.48
-43.73
-37.71
-31.34
-26.10
-22.67
-20.97
-20.56
-21.03
-22.24
-24.31
-27.42
-31.77
-37.25
-43.53
-49.91
-55.53
-59.60
-61.60
-61.33
-58.70
-53.66
-46.12
-36.19
-24.54
-12.49
-1.79
6.04
10.25
11.17
10.05
8.41
7.50
7.92
9.55
11.83
14.04
15.60
16.17
15.64
14.10
11.73
8.76
5.41
1.95
-1.47
-4.84
-8.29
-12.11
-16.61
-21.96
-28.12
-34.87
-41.88
-48.82
-55.41
-61.41
-66.64
-71.05
-74.74
-77.99
-81.18
-84.55
-88.05
-91.37
-93.98
-95.39
-95.23
-93.26
-89.33
-83.29
-74.97
-64.30
-51.42
-36.73
-20.86
-4.60
11.14
25.42
37.38
46.33
51.92
54.25
53.84
51.51
48.12
44.45
41.10
38.44
36.62
35.54
34.84
34.05
32.73
30.68
28.05
25.20
22.58
20.43
18.68
16.91
14.52
11.02
6.27
0.64
-4.98
-9.53
-12.12
-12.46
-11.07
-9.15
-8.13
-9.25
-13.06
-19.32
-27.03
-34.85
-41.34
-45.32
-46.02
-43.18
-37.02
-28.19
-17.60
-6.26
4.90
15.21
24.30
32.11
38.76
44.40
49.12
52.99
56.05
58.52
60.66
62.82
65.15
67.57
69.69
70.95
70.80
68.82
64.97
59.44
52.73
45.36
37.78
30.19
22.58
14.78
6.66
-1.78
-10.37
-18.83
-26.85
-34.19
-40.74
-46.50
-51.63
-56.44
-61.28
-66.42
-71.80
-76.97
-81.08
-83.15
-82.33
-78.20
-70.77
-60.46
-47.88
-33.64
-18.42
-2.95
11.95
25.34
36.40
44.57
49.82
52.58
53.71
54.19
54.92
56.47
59.02
62.40
66.19
69.84
72.74
74.37
74.36
72.57
69.20
64.73
59.76
54.79
50.00
45.24
40.17
34.46
28.02
21.08
14.14
7.67
2.05
-2.63
-6.51
-9.94
-13.30
-16.87
-20.74
-24.57
-27.72
-29.31
-28.51
-24.84
-18.26
-9.24
1.47
12.99
24.47
35.13
44.37
51.77
57.27
61.16
64.04
66.59
69.27
72.17
74.96
77.09
78.10
77.86
76.59
74.81
73.07
71.72
70.80
70.06
69.08
67.49
64.99
61.43
56.79
51.08
44.34
36.64
27.98
18.39
7.95
-3.04
-13.95
-23.67
-30.85
-34.18
-32.88
-27.03
-17.65
-6.42
4.79
14.43
21.63
26.23
28.66
29.58
29.61
28.93
27.39
24.64
20.59
15.85
11.81
10.29
12.96
20.68
33.07
48.64
65.17
80.28
91.87
98.48
99.39
94.68
85.04
71.60
55.61
38.15
20.05
2.04
-14.93
-29.53
-40.11
-45.19
-43.99
-36.78
-25.13
-11.49
1.21
10.23
13.52
10.06
-0.02
-15.59
-34.85
-55.73
-76.30
-94.93
-110.50
-122.38
-130.35
-134.56
-135.49
-133.74
-129.94
-124.50
-117.56
-108.99
-98.58
-86.22
-72.22
-57.36
-42.88
-30.12
-20.12
-13.34
-9.55
-8.01
-7.79
-8.10
-8.39
-8.42
-8.08
-7.30
-5.97
-4.02
-1.49
1.49
4.70
7.85
10.78
13.35
15.55
17.35
18.71
19.53
19.71
19.16
17.93
16.16
14.02
11.60
8.90
5.81
2.27
-1.66
-5.76
-9.77
-13.48
-16.86
-20.04
-23.24
-26.71
-30.61
-35.09
-40.23
-45.98
-51.97
-57.50
-61.55
-63.09
-61.40
-56.32
-48.36
-38.42
-27.52
-16.46
-5.71
4.52
14.12
22.93
30.70
37.15
42.08
45.47
47.44
48.21
48.00
46.98
45.23
42.78
39.72
36.35
33.19
30.86
29.82
30.17
31.67
33.81
36.13
38.39
40.62
42.94
45.33
47.52
48.95
49.09
47.63
44.70
40.74
36.38
32.15
28.32
24.88
21.59
18.19
14.53
10.64
6.62
2.63
-1.22
-4.69
-7.33
-8.37
-6.82
-1.81
7.10
19.64
34.81
51.33
68.01
84.12
99.31
113.46
126.31
137.45
146.43
153.07
157.63
160.70
162.93
164.71
166.04
166.60
165.96
163.74
159.61
153.18
143.98
131.63
116.06
97.69
77.44
56.42
35.72
16.11
-1.98
-18.38
-33.03
-45.99
-57.38
-67.43
-76.39
-84.34
-91.21
-96.80
-100.95
-103.79
-105.76
-107.57
-109.88
-113.21
-117.70
-123.19
-129.21
-135.10
-140.07
-143.28
-144.04
-141.94
-137.05
-129.81
-120.92
-111.06
-100.80
-90.56
-80.66
-71.42
-63.14
-56.05
-50.20
-45.50
-41.82
-39.04
-37.16
-36.19
-36.05
-36.44
-36.90
-37.01
-36.48
-35.32
-33.84
-32.51
-31.78
-32.00
-33.26
-35.43
-38.21
-41.26
-44.31
-47.20
-49.84
-52.31
-54.71
-57.15
-59.73
-62.43
-65.14
-67.65
-69.79
-71.43
-72.66
-73.77
-75.21
-77.41
-80.40
-83.69
-86.20
-86.55
-83.47
-76.37
-65.50
-52.04
-37.65
-23.91
-11.94
-2.16
5.56
11.65
16.57
20.70
24.29
27.53
30.61
33.60
36.54
39.39
42.11
44.72
47.38
50.30
53.68
57.57
61.80
65.98
69.60
72.19
73.48
73.47
72.40
70.63
68.48
66.00
63.02
59.18
54.19
47.91
40.50
32.28
23.66
14.99
6.58
-1.28
-8.36
-14.54
-19.98
-25.02
-30.03
-35.15
-40.00
-43.71
-45.22
-43.67
-38.84
-31.21
-21.83
-11.90
-2.41
5.96
12.86
18.02
21.23
22.38
21.65
19.66
17.42
16.08
16.55
19.09
23.34
28.42
33.36
37.45
40.46
42.56
44.17
45.66
47.24
48.91
50.56
52.03
53.18
53.84
53.78
52.70
50.24
46.13
40.37
33.32
25.68
18.41
12.38
8.06
5.30
3.38
1.27
-1.84
-6.11
-11.01
-15.47
-18.55
-19.84
-19.68
-18.77
-17.75
-16.81
-15.68
-13.97
-11.61
-9.02
-6.99
-6.22
-7.01
-9.11
-11.98
-15.03
-17.95
-20.67
-23.36
-26.20
-29.34
-32.85
-36.69
-40.69
-44.62
-48.17
-51.13
-53.43
-55.26
-56.96
-58.97
-61.64
-65.15
-69.46
-74.37
-79.63
-85.00
-90.28
-95.31
-100.00
-104.39
-108.68
-113.21
-118.32
-124.07
-129.95
-134.86
-137.29
-135.81
-129.52
-118.39
-103.30
-85.72
-67.23
-49.17
-32.37
-17.27
-4.04
7.19
16.26
23.07
27.72
30.61
32.41
33.83
35.41
37.32
39.38
41.29
42.82
44.01
45.04
46.09
47.22
48.28
49.02
49.22
48.72
47.37
44.93
41.13
35.74
28.80
20.68
12.06
3.68
-4.01
-11.02
-17.73
-24.69
-32.22
-40.08
-47.45
-53.07
-55.71
-54.62
-49.82
-42.09
-32.72
-23.01
-13.97
-6.11
0.53
6.14
10.94
15.08
18.55
21.33
23.43
24.95
26.17
27.41
29.08
31.41
34.47
38.06
41.85
45.43
48.56
51.09
53.01
54.34
55.07
55.20
54.76
53.82
52.50
50.89
48.99
46.69
43.89
40.57
36.83
32.88
28.99
25.28
21.71
18.06
14.05
9.49
4.55
-0.27
-4.19
-6.44
-6.40
-3.83
1.29
8.71
18.05
28.74
39.98
50.72
59.84
66.45
70.16
71.25
70.45
68.70
66.72
64.83
63.04
61.20
59.23
57.29
55.68
54.73
54.61
55.11
55.72
55.78
54.71
52.20
48.31
43.37
37.83
32.11
26.49
21.03
15.45
9.04
0.70
-10.60
-25.29
-42.61
-60.39
-75.48
-84.71
-85.83
-78.23
-62.94
-42.28
-19.18
3.54
23.71
40.14
52.69
61.95
68.63
73.10
75.21
74.56
71.20
65.98
60.28
55.27
51.18
47.35
42.98
38.20
34.36
33.28
35.79
40.70
45.02
45.55
40.69
31.52
21.22
13.50
10.71
12.95
18.36
24.28
28.34
28.93
25.15
16.56
3.25
-13.92
-33.15
-52.06
-68.26
-80.22
-87.59
-91.11
-91.97
-91.34
-90.04
-88.62
-87.49
-86.84
-86.60
-86.24
-84.82
-81.35
-75.30
-66.95
-57.36
-47.93
-39.91
-33.92
-29.83
-26.96
-24.51
-21.95
-19.23
-16.77
-15.15
-14.79
-15.70
-17.43
-19.33
-20.81
-21.54
-21.51
-20.84
-19.67
-18.06
-16.09
-13.88
-11.70
-9.90
-8.73
-8.17
-7.99
-7.82
-7.41
-6.77
-6.20
-6.14
-6.94
-8.67
-11.08
-13.75
-16.26
-18.42
-20.35
-22.37
-24.92
-28.29
-32.46
-37.13
-41.65
-45.20
-46.97
-46.26
-42.72
-36.42
-27.84
-17.76
-7.18
2.96
11.91
19.20
24.66
28.41
30.70
31.84
32.19
32.03
31.61
31.07
30.50
29.93
29.41
29.03
28.90
29.09
29.62
30.40
31.24
31.92
32.21
31.92
30.95
29.29
27.05
24.37
21.47
18.48
15.45
12.35
9.15
5.86
2.53
-0.73
-3.91
-7.00
-10.11
-13.28
-16.55
-19.93
-23.41
-26.90
-30.21
-32.95
-34.54
-34.36
-31.92
-27.05
-19.99
-11.37
-2.10
6.89
14.79
21.01
25.24
27.35
27.49
25.93
23.17
19.83
16.55
13.92
12.23
11.50
11.42
11.58
11.65
11.50
11.24
11.07
11.16
11.55
12.12
12.70
13.16
13.48
13.75
14.09
14.57
15.16
15.65
15.78
15.26
13.93
11.83
9.16
6.23
3.31
0.53
-2.14
-4.89
-7.95
-11.53
-15.71
-20.41
-25.27
-29.74
-33.06
-34.46
-33.35
-29.56
-23.44
-15.81
-7.78
-0.44
5.43
9.41
11.56
12.24
11.93
11.04
9.87
8.59
7.30
6.13
5.22
4.66
4.53
4.78
5.32
6.08
7.00
8.07
9.25
10.48
11.64
12.59
13.19
13.38
13.13
12.41
11.25
9.69
7.78
5.64
3.35
0.97
-1.49
-4.07
-6.82
-9.74
-12.83
-16.05
-19.39
-22.88
-26.51
-30.23
-33.80
-36.86
-38.91
-39.47
-38.16
-34.84
-29.61
-22.85
-15.12
-7.03
0.81
7.88
13.78
18.27
21.27
22.92
23.46
23.20
22.41
21.28
19.92
18.41
16.84
15.37
14.14
13.25
12.70
12.46
12.43
12.57
12.82
13.12
13.29
13.16
12.55
11.40
9.74
7.72
5.55
3.40
1.41
-0.40
-2.08
-3.77
-5.64
-7.86
-10.57
-13.86
-17.70
-21.91
-26.09
-29.64
-31.85
-32.09
-30.01
-25.66
-19.50
-12.19
-4.39
3.43
10.96
17.96
24.14
29.08
32.36
33.68
33.04
30.75
27.30
23.26
19.13
15.26
11.85
8.94
6.50
4.32
2.22
0.05
-2.14
-4.19
-5.84
-6.96
-7.59
-7.94
-8.36
-9.16
-10.51
-12.42
-14.82
-17.57
-20.54
-23.55
-26.47
-29.20
-31.73
-34.21
-36.86
-39.82
-42.93
-45.65
-47.10
-46.32
-42.65
-35.95
-26.66
-15.64
-3.84
7.86
18.81
28.54
36.68
42.93
47.22
49.74
50.93
51.32
51.30
51.03
50.39
49.16
47.24
44.78
42.09
39.57
37.45
35.77
34.37
33.02
31.52
29.68
27.30
24.18
20.10
15.01
9.11
2.81
-3.37
-9.00
-13.95
-18.35
-22.54
-26.83
-31.42
-36.31
-41.34
-46.20
-50.44
-53.51
-54.84
-53.94
-50.58
-44.93
-37.42
-28.71
-19.44
-10.16
-1.30
6.79
13.85
19.65
24.07
27.11
28.90
29.63
29.57
29.07
28.53
28.37
28.88
30.12
31.90
33.87
35.57
36.71
37.16
36.88
35.89
34.19
31.76
28.69
25.10
21.18
17.06
12.77
8.25
3.49
-1.41
-6.28
-10.96
-15.40
-19.75
-24.20
-28.92
-33.84
-38.60
-42.67
-45.47
-46.52
-45.55
-42.48
-37.42
-30.66
-22.65
-14.00
-5.40
2.39
8.76
13.28
15.83
16.55
15.81
14.07
11.88
9.72
8.02
7.10
7.05
7.77
8.96
10.22
11.26
11.97
12.44
12.89
13.50
14.22
14.85
15.02
14.43
12.94
10.64
7.81
4.78
1.80
-1.08
-3.97
-7.11
-10.75
-15.03
-19.93
-25.24
-30.55
-35.29
-38.76
-40.27
-39.30
-35.70
-29.70
-21.96
-13.36
-4.73
3.30
10.36
16.24
20.86
24.15
26.11
26.83
26.54
25.56
24.16
22.57
20.89
19.24
17.67
16.29
15.18
14.39
13.90
13.61
13.38
12.99
12.18
10.71
8.42
5.33
1.62
-2.39
-6.37
-10.11
-13.57
-16.86
-20.20
-23.87
-28.05
-32.88
-38.35
-44.35
-50.59
-56.62
-61.72
-65.11
-66.00
-63.90
-58.75
-50.95
-41.32
-30.80
-20.25
-10.25
-1.16
6.85
13.60
18.86
22.41
24.13
24.10
22.65
20.23
17.42
14.69
12.43
10.87
10.04
9.83
10.02
10.34
10.49
10.24
9.41
7.93
5.84
3.28
0.47
-2.34
-5.04
-7.63
-10.24
-13.00
-15.84
-18.45
-20.29
-20.81
-19.65
-16.86
-12.85
-8.17
-3.19
2.19
8.63
17.18
28.94
44.62
64.15
86.65
110.50
133.69
154.14
170.09
180.20
183.68
180.33
170.60
155.60
136.97
116.58
96.19
77.16
60.30
45.88
33.80
23.82
15.75
9.59
5.48
3.66
4.35
7.57
13.13
20.64
29.58
39.34
49.11
57.90
64.58
68.17
68.37
65.91
62.46
60.12
60.55
64.28
70.49
77.45
83.18
86.10
85.33
80.63
72.07
59.87
44.26
25.63
4.65
-17.76
-40.52
-62.73
-83.94
-104.34
-124.72
-146.17
-169.56
-195.10
-222.12
-249.26
-274.99
-298.15
-318.21
-335.27
-349.67
-361.55
-370.62
-376.25
-377.90
-375.44
-369.40
-360.73
-350.30
-338.33
-324.13
-306.20
-282.76
-252.42
-214.73
-170.43
-121.31
-69.81
-18.54
30.21
74.71
113.88
147.13
174.18
194.93
209.60
218.87
224.08
226.98
229.15
231.33
233.08
232.98
229.44
221.68
210.38
197.61
186.09
178.14
174.71
174.98
176.77
177.36
174.59
167.74
157.64
146.30
135.92
128.06
123.12
120.50
118.97
117.36
114.79
110.75
105.04
97.69
88.94
79.30
69.46
59.97
51.11
42.64
33.96
24.27
12.93
-0.36
-15.41
-31.51
-47.46
-61.76
-72.97
-80.06
-82.74
-81.53
-77.58
-72.20
-66.42
-60.66
-54.77
-48.30
-40.94
-32.90
-25.11
-19.02
-16.22
-17.81
-23.96
-33.75
-45.39
-56.69
-65.62
-70.73
-71.34
-67.56
-60.20
-50.63
-40.46
-31.25
-24.08
-19.34
-16.77
-15.77
-15.89
-16.92
-18.71
-20.68
-21.63
-19.92
-14.21
-4.22
8.92
22.92
35.40
44.74
50.74
54.56
57.96
62.58
69.18
77.49
86.29
93.84
98.32
98.29
92.95
82.36
67.44
49.72
31.00
13.00
-3.02
-16.47
-27.46
-36.66
-45.01
-53.32
-61.94
-70.67
-78.85
-85.67
-90.55
-93.40
-94.61
-94.87
-94.88
-95.12
-95.70
-96.43
-97.01
-97.15
-96.72
-95.75
-94.27
-92.24
-89.41
-85.51
-80.34
-73.97
-66.73
-59.02
-51.03
-42.64
-33.49
-23.41
-12.73
-2.43
6.07
11.46
13.07
11.12
6.66
1.10
-4.26
-8.54
-11.33
-12.62
-12.57
-11.43
-9.51
-7.15
-4.76
-2.73
-1.42
-1.02
-1.63
-3.20
-5.63
-8.69
-12.07
-15.28
-17.78
-19.11
-18.93
-17.15
-14.04
-10.12
-6.17
-3.04
-1.54
-2.06
-4.58
-8.57
-13.16
-17.50
-20.97
-23.40
-25.04
-26.27
-27.43
-28.60
-29.58
-29.98
-29.49
-28.02
-25.78
-23.18
-20.66
-18.49
-16.68
-15.07
-13.46
-11.76
-10.05
-8.54
-7.38
-6.64
-6.19
-5.86
-5.51
-5.18
-5.06
-5.38
-6.22
-7.33
-8.05
-7.52
-4.90
0.27
7.92
17.50
28.15
38.92
48.91
57.30
63.37
66.51
66.31
62.69
56.07
47.41
38.09
29.68
23.58
20.62
20.81
23.33
26.77
29.68
31.08
30.70
28.91
26.36
23.60
20.97
18.68
17.02
16.40
17.13
19.01
21.10
21.96
20.10
14.77
6.41
-3.52
-12.99
-20.21
-24.18
-24.83
-22.93
-19.54
-15.64
-11.83
-8.22
-4.71
-1.22
2.07
4.75
6.33
6.63
5.90
4.84
4.24
4.58
5.78
7.25
8.21
8.09
6.74
4.36
1.30
-2.20
-6.00
-10.07
-14.21
-18.09
-21.29
-23.42
-24.31
-24.03
-22.80
-20.96
-18.84
-16.75
-15.00
-13.91
-13.68
-14.39
-15.91
-18.05
-20.62
-23.63
-27.20
-31.55
-36.73
-42.51
-48.28
-53.08
-55.84
-55.63
-52.10
-45.59
-37.11
-27.96
-19.25
-11.55
-4.76
1.67
8.25
15.09
21.75
27.28
30.67
31.32
29.20
25.11
20.36
16.43
14.51
15.13
18.11
22.66
27.74
32.34
35.73
37.56
37.72
36.34
33.63
29.91
25.57
20.96
16.43
12.12
8.07
4.13
0.10
-4.23
-8.98
-14.17
-19.70
-25.37
-30.85
-35.70
-39.34
-41.07
-40.22
-36.33
-29.37
-19.81
-8.52
3.48
15.28
26.33
36.39
45.35
53.03
59.10
63.15
64.96
64.71
63.00
60.68
58.56
57.06
56.15
55.32
53.85
51.06
46.57
40.47
33.23
25.61
18.38
12.04
6.73
2.20
-2.03
-6.44
-11.31
-16.62
-22.11
-27.38
-32.09
-36.03
-39.26
-42.04
-44.74
-47.78
-51.38
-55.53
-59.85
-63.58
-65.68
-64.99
-60.56
-52.02
-39.80
-25.18
-9.99
3.91
15.14
23.07
27.87
30.13
30.59
29.79
28.05
25.57
22.60
19.52
16.77
14.79
13.80
13.77
14.48
15.59
16.85
18.00
18.85
19.15
18.54
16.67
13.31
8.55
2.80
-3.29
-9.02
-13.81
-17.37
-19.53
-20.30
-19.82
-18.38
-16.44
-14.48
-12.95
-12.11
-12.13
-13.24
-15.81
-20.23
-26.61
-34.34
-41.98
-47.55
-49.16
-45.78
-37.67
-26.36
-14.10
-3.16
4.93
9.63
11.33
11.04
9.82
8.41
6.99
5.29
2.81
-0.78
-5.40
-10.44
-14.87
-17.43
-16.95
-12.49
-3.69
9.12
24.84
41.72
57.60
70.46
78.80
81.93
80.17
74.58
66.72
58.14
49.98
42.78
36.37
30.15
23.44
15.83
7.38
-1.47
-10.14
-18.28
-25.85
-33.07
-40.17
-47.03
-53.13
-57.58
-59.43
-58.03
-53.29
-45.73
-36.27
-25.98
-15.79
-6.41
1.72
8.24
12.89
15.50
16.13
15.16
13.25
11.14
9.43
8.39
8.01
8.08
8.36
8.70
9.02
9.33
9.62
9.95
10.40
11.06
11.98
13.02
13.89
14.22
13.71
12.24
9.87
6.88
3.56
0.29
-2.61
-4.96
-6.83
-8.59
-10.88
-14.29
-19.15
-25.27
-31.94
-38.18
-43.04
-45.90
-46.55
-45.08
-41.83
-37.17
-31.57
-25.47
-19.39
-13.75
-8.84
-4.75
-1.44
1.16
3.04
3.99
3.70
1.79
-1.97
-7.54
-14.63
-22.67
-31.06
-39.22
-46.73
-53.26
-58.59
-62.53
-64.93
-65.70
-64.82
-62.25
-57.87
-51.45
-42.76
-31.60
-18.24
-3.52
10.96
23.19
31.36
34.72
34.21
32.36
32.31
36.27
44.15
53.15
59.10
58.39
50.03
36.48
22.36
12.38
9.26
13.14
22.27
34.29
46.83
57.34
62.66
59.53
46.16
24.29
0.02
-18.00
-21.97
-8.53
19.58
54.84
87.89
110.78
118.67
109.98
85.74
49.20
5.67
-37.88
-74.25
-98.38
-108.91
-108.70
-103.11
-97.27
-94.09
-93.68
-94.52
-95.14
-95.05
-94.63
-94.27
-93.62
-91.69
-87.45
-80.68
-72.27
-63.77
-56.69
-51.90
-49.49
-49.10
-50.18
-52.17
-54.41
-56.03
-55.96
-53.12
-46.76
-36.71
-23.39
-7.75
8.95
25.35
40.23
52.73
62.55
69.91
75.42
79.68
82.97
85.04
85.22
82.86
77.78
70.49
62.13
54.03
47.27
42.37
39.25
37.43
36.37
35.66
35.07
34.51
33.84
32.84
31.21
28.75
25.46
21.63
17.68
14.03
10.84
7.97
5.06
1.68
-2.38
-7.15
-12.48
-18.21
-24.18
-30.16
-35.66
-39.88
-41.84
-40.62
-35.80
-27.56
-16.67
-4.24
8.62
21.01
32.37
42.35
50.72
57.24
61.71
64.05
64.43
63.32
61.42
59.49
58.15
57.77
58.32
59.62
61.43
63.63
66.25
69.42
73.12
77.08
80.75
83.51
84.88
84.84
83.83
82.58
81.86
82.19
83.60
85.67
87.55
88.15
86.42
81.61
73.59
63.01
51.28
40.28
31.87
27.46
27.66
32.15
39.89
49.38
59.08
67.63
74.15
78.21
79.83
79.30
77.07
73.62
69.47
65.08
60.86
57.04
53.60
50.37
47.09
43.69
40.34
37.40
35.23
33.92
33.26
32.84
32.24
31.27
30.11
29.10
28.55
28.55
28.86
29.04
28.63
27.41
25.51
23.46
22.01
21.95
23.84
27.71
32.98
38.57
43.19
45.83
46.11
44.41
41.73
39.24
37.81
37.67
38.40
39.19
39.17
37.81
34.98
30.92
26.04
20.70
15.18
9.57
3.94
-1.68
-7.17
-12.37
-17.12
-21.27
-24.74
-27.58
-30.01
-32.42
-35.33
-39.16
-44.10
-49.88
-55.89
-61.25
-65.19
-67.22
-67.29
-65.71
-63.01
-59.69
-56.21
-52.89
-49.99
-47.71
-46.20
-45.45
-45.34
-45.65
-46.15
-46.68
-47.18
-47.67
-48.07
-48.17
-47.65
-46.20
-43.71
-40.32
-36.36
-32.20
-28.14
-24.37
-21.21
-19.08
-18.50
-19.89
-23.39
-28.76
-35.45
-42.84
-50.31
-57.42
-63.79
-69.17
-73.47
-76.84
-79.64
-82.29
-85.07
-87.96
-90.69
-92.90
-94.28
-94.75
-94.34
-93.16
-91.27
-88.70
-85.52
-81.88
-78.08
-74.42
-71.18
-68.50
-66.34
-64.52
-62.79
-60.94
-58.78
-56.31
-53.57
-50.67
-47.63
-44.41
-40.91
-37.04
-32.87
-28.58
-24.53
-21.03
-18.35
-16.59
-15.72
-15.66
-16.29
-17.54
-19.24
-21.14
-22.91
-24.25
-25.07
-25.59
-26.32
-27.86
-30.63
-34.68
-39.67
-45.06
-50.38
-55.57
-60.86
-66.70
-73.34
-80.64
-88.08
-95.00
-100.92
-105.77
-109.83
-113.48
-116.96
-120.12
-122.68
-124.30
-124.82
-124.14
-122.14
-118.55
-113.02
-105.23
-95.12
-82.90
-68.95
-53.61
-37.16
-19.88
-2.23
15.01
30.75
43.83
53.35
58.94
60.93
60.22
58.09
55.76
54.10
53.48
53.75
54.58
55.62
56.74
57.96
59.30
60.66
61.69
62.03
61.41
59.93
58.02
56.33
55.42
55.59
56.67
58.17
59.31
59.24
57.13
52.40
44.89
35.06
24.04
13.48
5.02
-0.21
-2.01
-1.20
0.86
2.82
3.90
4.14
4.10
4.49
5.61
7.24
8.73
9.35
8.66
6.65
3.68
0.26
-3.11
-6.07
-8.36
-9.77
-10.14
-9.49
-8.10
-6.59
-5.79
-6.45
-9.03
-13.45
-19.17
-25.36
-31.23
-36.24
-40.33
-43.86
-47.51
-51.91
-57.36
-63.57
-69.73
-74.77
-77.84
-78.67
-77.58
-75.26
-72.32
-68.87
-64.48
-58.38
-49.94
-39.02
-26.08
-12.01
2.16
15.55
27.51
37.56
45.41
50.93
54.26
55.81
56.27
56.39
56.77
57.65
58.91
60.24
61.36
62.33
63.61
65.97
70.18
76.75
85.70
96.53
108.41
120.49
132.07
142.69
151.99
159.63
165.12
167.99
167.85
164.62
158.56
150.15
139.89
127.99
114.37
98.67
80.63
60.23
37.98
14.93
-7.44
-27.44
-43.41
-54.04
-58.56
-56.81
-49.30
-37.07
-21.56
-4.40
12.73
28.31
41.11
50.27
55.43
56.80
55.05
51.22
46.39
41.47
36.95
33.00
29.58
26.70
24.56
23.42
23.44
24.38
25.65
26.49
26.30
24.95
22.72
20.15
17.65
15.33
13.02
10.43
7.42
4.06
0.55
-2.89
-6.15
-9.23
-12.17
-14.98
-17.64
-20.17
-22.75
-25.71
-29.44
-34.21
-39.92
-45.99
-51.40
-54.91
-55.43
-52.28
-45.46
-35.59
-23.71
-11.04
1.30
12.47
21.97
29.61
35.40
39.52
42.20
43.69
44.32
44.39
44.23
44.07
44.07
44.23
44.49
44.75
44.98
45.25
45.70
46.40
47.23
47.87
47.85
46.76
44.43
40.95
36.67
32.00
27.27
22.58
17.92
13.16
8.20
3.01
-2.38
-7.87
-13.36
-18.70
-23.74
-28.34
-32.49
-36.30
-40.10
-44.24
-48.93
-53.97
-58.72
-62.16
-63.23
-61.18
-55.88
-47.80
-37.91
-27.26
-16.76
-7.03
1.52
8.69
14.35
18.46
21.10
22.54
23.09
23.06
22.76
22.38
22.08
21.99
22.17
22.61
23.17
23.67
23.97
23.97
23.72
23.29
22.75
22.06
21.10
19.69
17.66
14.96
11.64
7.83
3.66
-0.72
-5.18
-9.54
-13.60
-17.15
-20.07
-22.42
-24.44
-26.52
-29.02
-32.21
-36.13
-40.54
-44.94
-48.65
-50.91
-51.00
-48.47
-43.26
-35.77
-26.73
-17.07
-7.64
0.94
8.35
14.52
19.49
23.25
25.78
26.99
26.90
25.68
23.70
21.48
19.56
18.38
18.21
19.08
20.85
23.25
25.92
28.50
30.64
32.09
32.70
32.49
31.54
29.99
27.96
25.44
22.37
18.61
14.08
8.79
2.94
-3.08
-8.82
-13.90
-18.14
-21.66
-24.84
-28.17
-32.10
-36.89
-42.48
-48.44
-54.03
-58.30
-60.29
-59.33
-55.17
-48.09
-38.82
-28.37
-17.83
-8.14
0.05
6.47
11.18
14.48
16.74
18.28
19.27
19.77
19.81
19.51
19.07
18.71
18.65
18.93
19.51
20.26
21.08
21.90
22.64
23.20
23.40
23.13
22.30
21.01
19.36
17.53
15.55
13.35
10.78
7.74
4.21
0.31
-3.78
-7.88
-11.85
-15.60
-19.09
-22.26
-25.07
-27.50
-29.61
-31.36
-32.65
-33.14
-32.35
-29.75
-24.91
-17.63
-8.07
3.31
15.75
28.35
40.17
50.48
58.87
65.31
70.14
73.93
77.34
80.95
85.24
90.48
96.79
104.13
112.39
121.51
131.62
143.13
156.56
172.24
189.87
208.26
225.34
238.58
245.51
244.33
234.12
214.90
187.53
153.53
114.94
74.13
33.51
-4.86
-39.56
-69.98
-96.13
-118.51
-137.77
-154.60
-169.52
-182.68
-193.74
-201.88
-206.04
-205.43
-199.95
-190.34
-177.94
-164.15
-150.02
-136.12
-122.81
-110.59
-100.27
-92.70
-88.35
-86.89
-87.22
-87.75
-87.03
-84.15
-78.99
-72.05
-64.14
-56.09
-48.48
-41.65
-35.69
-30.50
-25.83
-21.38
-16.98
-12.63
-8.66
-5.64
-4.20
-4.78
-7.42
-11.80
-17.41
-23.90
-31.42
-40.67
-52.78
-68.78
-89.12
-113.28
-139.54
-165.37
-187.87
-204.39
-213.00
-212.79
-204.03
-188.32
-168.52
-148.46
-132.17
-122.70
-121.03
-125.56
-132.55
-137.53
-137.07
-129.93
-117.37
-102.16
-87.24
-74.47
-64.28
-56.02
-48.67
-41.48
-34.19
-26.91
-19.86
-13.22
-7.12
-1.64
3.22
7.68
12.17
17.30
23.57
31.05
39.27
47.18
53.48
56.98
56.92
53.09
45.96
36.48
26.08
16.43
9.09
5.27
5.46
9.35
16.03
24.33
33.13
41.62
49.23
55.55
60.21
62.96
63.98
64.05
64.61
67.34
73.53
83.53
96.41
110.33
123.14
133.15
139.66
142.92
143.62
142.34
139.05
133.30
124.69
113.38
100.31
86.96
74.76
64.52
56.29
49.57
43.68
38.22
33.12
28.54
24.61
21.26
18.20
15.10
11.83
8.59
5.92
4.58
5.29
8.53
14.24
21.77
29.89
36.99
41.57
42.52
39.53
33.03
24.03
13.79
3.47
-5.97
-13.86
-19.75
-23.46
-25.12
-25.23
-24.54
-23.84
-23.73
-24.33
-25.45
-26.66
-27.60
-28.15
-28.49
-28.94
-29.88
-31.58
-34.08
-37.28
-40.97
-45.07
-49.56
-54.55
-60.06
-65.84
-71.18
-74.97
-75.92
-72.93
-65.46
-53.63
-38.23
-20.34
-1.15
18.25
36.89
53.94
68.82
81.25
91.49
100.24
108.41
116.81
125.84
135.46
145.37
155.24
164.85
174.12
182.91
190.90
197.62
202.36
204.38
202.84
197.01
186.28
170.44
149.85
125.57
99.28
72.99
48.65
27.72
10.70
-2.97
-14.69
-26.13
-38.40
-51.51
-64.26
-74.79
-81.52
-83.77
-81.94
-76.85
-68.91
-57.62
-41.75
-20.26
6.70
37.26
68.10
95.23
115.09
125.25
124.60
113.23
92.12
62.86
27.41
-12.14
-53.89
-96.60
-139.86
-183.88
-228.78
-273.60
-315.87
-351.75
-377.03
-388.54
-385.07
-367.58
-338.46
-300.49
-255.98
-206.71
-154.31
-100.86
-49.07
-1.98
37.87
69.16
92.14
108.42
120.46
130.89
141.96
155.04
170.69
188.71
208.47
229.13
249.78
269.50
287.41
302.74
314.87
323.54
328.75
330.71
329.64
325.68
318.76
308.62
294.93
277.52
256.72
233.58
209.79
187.31
167.72
151.54
138.03
125.66
112.86
98.92
84.08
69.09
54.27
39.02
21.95
1.71
-22.02
-48.18
-74.83
-100.17
-123.39
-144.77
-165.06
-184.81
-204.16
-223.29
-242.86
-263.92
-287.06
-311.48
-334.76
-353.82
-366.62
-373.58
-377.69
-383.20
-393.62
-410.17
-431.65
-455.34
-478.51
-498.99
-514.98
-524.27
-523.75
-509.62
-478.75
-430.24
-366.41
-292.52
-215.19
-140.18
-70.70
-7.13
51.86
107.29
158.38
202.34
235.65
255.95
263.36
260.66
252.29
242.62
234.68
229.50
226.40
223.64
219.32
212.13
201.93
189.92
178.15
168.66
162.48
158.96
155.83
150.09
139.43
123.10
102.21
79.05
56.11
35.23
17.30
2.54
-8.98
-17.08
-21.54
-22.50
-20.72
-17.50
-14.26
-11.97
-10.86
-10.49
-10.21
-9.60
-8.77
-8.27
-8.90
-11.38
-16.08
-22.90
-31.29
-40.38
-49.31
-57.55
-65.07
-72.32
-79.71
-87.20
-93.90
-98.24
-98.53
-93.70
-83.72
-69.64
-53.18
-36.08
-19.67
-4.76
8.15
18.70
26.42
30.91
31.96
29.76
24.98
18.56
11.62
5.15
-0.03
-3.47
-5.05
-4.95
-3.55
-1.28
1.48
4.48
7.52
10.40
12.89
14.77
15.91
16.34
16.24
15.73
14.73
12.81
9.33
3.77
-3.98
-13.41
-23.46
-32.79
-40.05
-44.16
-44.27
-39.92
-31.02
-18.01
-1.85
16.00
33.88
50.19
63.72
73.80
80.34
83.70
84.56
83.80
82.33
80.97
80.28
80.41
80.99
81.26
80.36
77.68
73.17
67.38
61.26
55.78
51.42
48.02
44.84
40.97
35.77
29.22
21.90
14.70
8.46
3.55
-0.13
-3.01
-5.63
-8.40
-11.49
-14.83
-18.10
-20.61
-21.32
-18.84
-11.83
0.57
18.25
40.00
63.78
87.27
108.63
126.86
141.94
154.38
164.69
172.84
178.06
179.04
174.40
163.32
145.83
122.93
96.27
67.81
39.44
12.87
-10.54
-29.79
-44.57
-55.42
-63.90
-72.32
-83.06
-97.81
-116.91
-139.24
-162.66
-184.94
-204.54
-221.11
-235.27
-248.08
-260.34
-272.22
-283.36
-293.14
-301.00
-306.36
-308.54
-306.52
-299.14
-285.60
-265.95
-241.42
-214.10
-186.32
-159.71
-134.82
-111.10
-87.58
-63.57
-39.22
-15.49
6.27
25.03
40.49
53.10
63.66
72.81
80.62
86.71
90.58
92.07
91.61
90.12
88.59
87.79
87.98
89.00
90.48
91.99
93.27
94.22
94.82
95.11
95.06
94.55
93.28
90.78
86.44
79.70
70.27
58.33
44.62
30.29
16.81
5.65
-1.96
-5.19
-3.79
1.94
11.20
23.01
36.41
50.78
65.80
81.30
96.91
111.87
125.09
135.53
142.70
146.82
148.63
148.81
147.45
143.82
136.75
125.35
109.65
90.85
70.96
52.12
35.85
22.63
11.98
2.85
-5.76
-14.38
-22.96
-31.00
-37.91
-43.41
-47.72
-51.34
-54.82
-58.45
-62.07
-65.23
-67.41
-68.22
-67.50
-65.19
-61.28
-55.72
-48.51
-39.85
-30.19
-20.22
-10.74
-2.52
3.82
7.89
9.58
9.06
6.76
3.20
-1.07
-5.60
-9.93
-13.58
-16.07
-17.01
-16.30
-14.16
-11.12
-7.83
-4.87
-2.71
-1.65
-1.87
-3.44
-6.21
-9.80
-13.70
-17.49
-20.98
-24.31
-27.85
-31.96
-36.88
-42.64
-49.17
-56.24
-63.47
-70.13
-75.19
-77.43
-75.86
-70.04
-60.36
-47.82
-33.75
-19.34
-5.39
7.78
20.14
31.65
42.17
51.35
58.86
64.50
68.29
70.40
70.98
70.10
67.75
64.03
59.31
54.24
49.61
46.00
43.57
41.94
40.44
38.40
35.40
31.33
26.35
20.65
14.40
7.70
0.64
-6.65
-14.01
-21.32
-28.58
-35.89
-43.43
-51.26
-59.19
-66.63
-72.59
-75.91
-75.56
-71.03
-62.51
-50.93
-37.65
-24.09
-11.46
-0.55
8.23
14.70
18.86
20.79
20.70
18.97
16.22
13.22
10.76
9.41
9.39
10.40
11.88
13.21
14.02
14.32
14.35
14.37
14.41
14.22
13.41
11.66
8.93
5.42
1.40
-2.90
-7.43
-12.22
-17.38
-23.01
-29.29
-36.43
-44.49
-53.20
-61.68
-68.50
-72.01
-70.88
-64.55
-53.45
-38.85
-22.49
-6.11
8.79
21.17
30.39
36.19
38.72
38.43
36.07
32.56
28.78
25.47
22.98
21.34
20.24
19.22
17.93
16.25
14.44
12.99
12.38
12.85
14.18
15.69
16.48
15.74
13.03
8.49
2.73
-3.44
-9.31
-14.51
-19.07
-23.35
-27.84
-32.92
-38.71
-44.82
-50.42
-54.24
-54.94
-51.55
-43.83
-32.39
-18.56
-3.93
10.08
22.48
32.72
40.50
45.59
47.84
47.21
44.03
38.96
32.92
26.79
21.25
16.58
12.72
9.47
6.63
4.15
2.17
0.87
0.29
0.32
0.60
0.68
0.20
-1.01
-2.91
-5.28
-7.88
-10.54
-13.23
-16.01
-19.13
-22.89
-27.73
-33.99
-41.72
-50.42
-58.94
-65.61
-68.58
-66.43
-58.62
-45.74
-29.27
-11.21
6.50
22.32
35.34
45.10
51.53
54.77
55.17
53.31
49.98
46.05
42.20
38.82
35.90
33.15
30.19
26.82
23.22
19.87
17.42
16.39
16.92
18.60
20.52
21.63
21.02
18.27
13.56
7.48
0.82
-5.72
-11.69
-16.94
-21.64
-26.17
-31.03
-36.57
-42.70
-48.68
-53.14
-54.46
-51.26
-42.99
-30.17
-14.24
2.88
19.33
33.71
45.20
53.59
59.19
62.72
65.10
67.18
69.46
71.84
73.74
74.38
73.18
70.03
65.33
59.71
53.81
48.02
42.46
37.15
32.01
26.97
21.83
16.29
10.14
3.44
-3.39
-9.67
-14.88
-19.08
-23.12
-28.31
-35.96
-46.71
-60.32
-75.81
-91.81
-106.99
-120.14
-130.13
-135.85
-136.35
-131.15
-120.58
-105.80
-88.49
-70.55
-53.60
-38.91
-27.33
-19.41
-15.29
-14.65
-16.67
-20.22
-24.19
-27.85
-31.15
-34.45
-38.22
-42.48
-46.62
-49.42
-49.43
-45.53
-37.24
-24.97
-9.84
6.57
22.60
36.73
47.75
54.95
58.22
58.09
55.69
52.41
49.60
48.27
49.06
52.37
58.64
68.45
82.44
100.94
123.63
149.33
176.34
202.84
227.55
249.87
269.66
286.72
300.26
308.90
311.00
305.24
291.14
269.08
240.02
205.14
165.81
123.63
80.89
40.54
5.88
-20.10
-35.71
-41.02
-37.93
-29.60
-19.59
-10.95
-5.77
-4.96
-8.54
-15.97
-26.44
-39.20
-53.66
-69.60
-87.16
-106.61
-127.96
-150.31
-171.51
-188.23
-196.68
-193.79
-178.35
-151.61
-116.98
-79.13
-42.71
-11.29
13.13
30.03
39.90
43.65
42.29
36.97
29.02
20.07
11.88
5.95
2.99
2.72
3.97
5.26
5.40
4.06
1.79
-0.42
-1.77
-2.18
-2.36
-3.49
-6.61
-12.12
-19.62
-28.16
-36.63
-44.21
-50.64
-56.12
-61.15
-66.29
-71.88
-77.92
-83.98
-89.26
-92.66
-92.99
-89.31
-81.24
-69.16
-54.21
-38.08
-22.56
-9.12
1.42
8.85
13.43
15.56
15.69
14.16
11.40
7.90
4.28
1.13
-1.14
-2.39
-2.79
-2.76
-2.75
-3.13
-4.03
-5.31
-6.70
-7.85
-8.59
-9.02
-9.49
-10.52
-12.54
-15.72
-19.88
-24.53
-29.10
-33.14
-36.43
-39.06
-41.30
-43.57
-46.29
-49.83
-54.33
-59.61
-64.97
-69.18
-70.64
-67.86
-59.95
-47.04
-30.42
-12.20
5.18
19.72
30.24
36.54
39.20
39.10
37.14
33.97
30.03
25.67
21.27
17.29
14.15
12.19
11.54
12.12
13.68
15.87
18.25
20.43
21.97
22.52
21.79
19.69
16.30
11.89
6.96
2.05
-2.31
-5.77
-8.29
-10.08
-11.55
-13.11
-15.03
-17.35
-20.01
-22.89
-26.07
-29.88
-34.73
-40.84
-47.84
-54.55
-59.17
-59.80
-55.14
-45.11
-30.87
-14.50
1.77
16.19
27.84
36.46
42.18
45.16
45.46
43.19
38.71
32.72
26.21
20.21
15.46
12.28
10.54
9.80
9.61
9.65
9.83
10.21
10.81
11.57
12.28
12.71
12.67
12.07
10.90
9.12
6.71
3.64
0.00
-4.03
-8.11
-11.86
-14.97
-17.27
-18.81
-19.82
-20.74
-22.13
-24.55
-28.46
-33.96
-40.58
-47.34
-52.79
-55.50
-54.43
-49.30
-40.58
-29.37
-17.08
-5.07
5.54
13.94
19.70
22.72
23.18
21.52
18.32
14.12
9.35
4.28
-0.91
-6.10
-11.09
-15.67
-19.69
-23.06
-25.81
-28.09
-30.07
-31.91
-33.78
-35.85
-38.33
-41.53
-45.74
-51.14
-57.56
-64.48
-71.15
-76.84
-81.16
-84.22
-86.52
-88.66
-90.93
-93.07
-94.26
-93.48
-89.79
-82.60
-71.50
-56.03
-35.36
-8.26
26.46
69.59
121.06
180.06
245.24
314.88
386.63
457.08
521.50
574.21
609.89
625.18
619.80
596.64
560.54
516.59
468.66
418.96
368.46
317.72
267.49
218.72
172.09
127.58
84.33
41.15
-2.77
-47.20
-90.57
-130.37
-164.14
-190.40
-209.44
-223.38
-235.43
-248.75
-265.33
-285.52
-308.16
-331.40
-353.58
-373.79
-391.89
-408.10
-422.50
-434.74
-444.32
-450.92
-454.80
-456.88
-458.18
-459.04
-458.48
-454.15
-443.01
-422.49
-391.41
-350.40
-301.48
-247.36
-190.78
-134.39
-80.80
-32.74
7.26
37.42
57.38
68.27
72.32
71.99
69.20
65.06
59.97
54.11
47.79
41.39
35.32
29.76
24.61
19.58
14.36
8.61
1.99
-5.83
-15.31
-26.90
-40.90
-57.26
-75.52
-94.79
-114.12
-132.66
-149.98
-166.12
-181.48
-196.66
-212.13
-227.85
-242.95
-255.63
-263.39
-263.71
-254.79
-236.27
-209.42
-176.65
-140.71
-103.85
-67.66
-33.32
-2.15
24.12
43.74
55.76
60.66
60.50
58.25
56.67
57.35
60.48
65.20
70.46
75.64
80.74
86.11
91.92
97.97
103.70
108.49
111.98
114.15
115.18
115.30
114.53
112.67
109.35
104.15
96.67
86.63
73.96
58.77
41.30
21.76
0.10
-23.94
-50.55
-79.41
-109.28
-137.98
-162.88
-181.70
-193.20
-197.43
-195.36
-188.34
-177.55
-163.99
-148.62
-132.61
-117.25
-103.39
-91.08
-79.37
-66.74
-51.86
-34.25
-14.52
5.92
25.54
43.27
58.83
72.67
85.64
98.58
111.90
125.45
138.47
149.72
157.89
161.95
161.51
156.81
148.66
138.21
126.69
115.27
105.06
96.92
91.42
88.66
88.30
89.83
92.90
97.59
104.58
114.82
129.30
148.75
173.57
203.86
239.51
280.06
324.41
370.68
416.15
457.65
492.00
516.63
530.04
532.01
523.51
506.37
482.68
454.20
421.86
385.74
345.33
300.17
250.47
197.42
143.22
90.70
42.72
1.71
-30.60
-53.26
-65.92
-68.77
-62.65
-49.08
-30.38
-9.38
11.09
28.86
42.79
52.71
59.11
62.57
63.58
62.58
60.16
57.18
54.59
53.24
53.73
56.44
61.66
69.55
79.81
91.43
102.61
111.35
116.20
116.99
114.90
111.76
109.18
107.81
107.31
106.88
106.07
105.16
104.87
105.81
107.78
109.68
109.95
107.40
101.91
94.61
87.48
82.54
81.03
82.88
86.72
90.30
91.14
87.22
77.45
61.81
41.21
17.17
-8.65
-34.74
-60.05
-83.92
-106.04
-126.19
-144.14
-159.69
-172.79
-183.72
-193.06
-201.49
-209.47
-216.97
-223.42
-228.04
-230.19
-229.68
-226.88
-222.48
-217.25
-211.79
-206.42
-201.17
-195.66
-189.19
-180.86
-170.04
-156.74
-141.79
-126.53
-112.22
-99.37
-87.59
-75.94
-63.69
-50.92
-38.58
-27.96
-20.00
-14.73
-11.41
-9.08
-7.22
-5.96
-5.80
-6.96
-8.89
-10.32
-9.68
-5.80
1.52
11.45
22.49
33.00
41.68
47.74
50.92
51.34
49.29
45.21
39.44
32.32
24.14
15.33
6.53
-1.46
-7.94
-12.70
-16.10
-19.05
-22.49
-26.86
-31.79
-36.27
-39.15
-39.77
-38.32
-35.72
-33.19
-31.79
-32.13
-34.42
-38.58
-44.40
-51.41
-58.74
-65.15
-69.22
-69.77
-66.34
-59.39
-50.13
-40.13
-30.75
-22.74
-16.26
-11.12
-7.09
-4.19
-2.63
-2.64
-4.18
-6.88
-10.01
-12.90
-15.13
-16.70
-17.90
-19.09
-20.41
-21.73
-22.75
-23.20
-23.06
-22.55
-22.10
-22.13
-22.93
-24.58
-26.98
-29.92
-33.22
-36.93
-41.25
-46.35
-52.14
-57.95
-62.52
-64.31
-61.99
-54.93
-43.52
-29.05
-13.29
1.92
15.10
25.35
32.36
36.32
37.81
37.57
36.29
34.46
32.26
29.75
26.94
23.96
21.11
18.75
17.17
16.46
16.52
17.05
17.65
17.85
17.23
15.47
12.53
8.69
4.55
0.82
-1.96
-3.69
-4.85
-6.29
-8.80
-12.65
-17.22
-21.12
-22.59
-20.19
-13.33
-2.40
11.45
26.79
42.45
57.62
71.78
84.49
95.16
103.21
108.23
110.27
109.90
108.10
106.01
104.57
104.31
105.20
106.77
108.42
109.73
110.73
111.89
113.90
117.26
121.94
127.26
132.00
134.74
134.26
129.82
121.36
109.39
94.66
77.88
59.37
39.16
17.25
-5.86
-28.88
-49.74
-66.00
-75.56
-77.27
-71.20
-58.52
-41.15
-21.24
-0.80
18.46
35.30
48.96
59.24
66.40
71.00
73.69
74.84
74.42
71.92
66.77
58.62
47.74
35.12
22.07
9.79
-1.26
-11.42
-21.61
-32.64
-44.71
-57.14
-68.69
-78.21
-85.20
-90.06
-93.83
-97.72
-102.57
-108.65
-115.67
-123.05
-130.29
-137.09
-143.37
-149.26
-154.94
-160.61
-166.37
-172.15
-177.43
-181.31
-182.40
-179.29
-170.93
-157.19
-139.03
-118.30
-97.23
-77.81
-61.38
-48.48
-39.09
-32.88
-29.32
-27.74
-27.31
-27.18
-26.67
-25.48
-23.57
-20.99
-17.44
-12.16
-4.09
7.59
23.05
41.38
60.70
78.69
93.08
102.32
105.78
103.82
97.43
87.78
75.86
62.18
46.77
29.39
9.73
-12.19
-35.91
-60.50
-84.72
-107.29
-127.18
-143.87
-157.36
-168.18
-177.06
-184.54
-190.61
-194.48
-194.67
-189.46
-177.65
-159.03
-134.77
-107.11
-78.82
-52.50
-30.00
-12.35
0.14
7.54
10.03
8.00
2.14
-6.35
-15.89
-24.85
-32.11
-37.43
-41.42
-45.15
-49.58
-55.08
-61.37
-67.97
-74.66
-81.78
-90.05
-100.04
-111.64
-123.79
-134.66
-142.15
-144.51
-140.78
-131.05
-116.49
-99.11
-81.34
-65.47
-53.11
-44.74
-39.70
-36.50
-33.52
-29.76
-25.30
-21.33
-19.52
-21.18
-26.40
-33.71
-40.28
-42.95
-39.21
-28.14
-10.58
11.39
35.20
58.67
80.28
99.14
114.60
126.10
133.18
135.81
134.65
131.04
126.71
123.12
120.99
120.06
119.38
117.86
114.85
110.36
104.97
99.39
93.92
88.31
81.87
73.92
64.22
53.18
41.78
31.12
22.02
14.66
8.60
3.02
-2.89
-9.59
-16.98
-24.57
-31.69
-37.78
-42.60
-46.18
-48.75
-50.61
-52.04
-53.34
-54.79
-56.48
-58.15
-58.91
-57.27
-51.43
-39.86
-21.91
1.73
29.17
57.81
85.06
109.01
128.72
144.01
155.09
162.12
165.16
164.33
160.22
154.02
147.48
142.40
140.13
141.15
145.05
150.87
157.57
164.55
171.67
179.00
186.29
192.67
196.59
196.31
190.58
179.13
162.76
142.96
121.27
98.76
76.00
53.30
31.27
10.97
-6.37
-19.96
-29.98
-37.72
-45.22
-54.44
-66.58
-81.75
-98.98
-116.56
-132.36
-144.00
-149.11
-145.68
-132.68
-110.66
-81.90
-49.94
-18.55
9.34
32.34
50.45
64.48
75.18
82.86
87.58
89.50
89.30
88.14
87.17
87.10
87.78
88.30
87.27
83.41
75.92
64.70
50.32
33.75
16.09
-1.71
-18.89
-34.99
-49.77
-63.24
-75.64
-87.35
-98.74
-109.89
-120.58
-130.23
-138.18
-144.02
-147.75
-149.79
-150.84
-151.59
-152.59
-154.19
-156.35
-158.50
-159.40
-157.17
-149.82
-135.92
-115.35
-89.60
-61.60
-34.90
-12.84
2.19
9.10
8.00
-0.04
-13.38
-29.99
-47.72
-64.58
-78.93
-89.81
-96.94
-100.64
-101.53
-100.24
-97.11
-92.19
-85.44
-76.97
-67.35
-57.55
-48.74
-41.81
-37.11
-34.38
-32.91
-31.96
-31.05
-30.04
-28.97
-27.82
-26.30
-23.92
-20.25
-15.20
-9.27
-3.39
1.21
3.43
2.58
-1.39
-7.76
-15.06
-21.21
-23.89
-21.06
-11.54
4.66
26.17
50.69
75.53
98.29
117.33
131.82
141.66
147.16
148.86
147.45
143.78
138.93
134.05
130.21
128.13
128.03
129.63
132.35
135.60
138.92
142.05
144.66
146.20
145.88
142.91
136.88
128.09
117.50
106.31
95.50
85.30
75.18
64.18
51.44
36.66
20.26
3.20
-13.57
-29.38
-44.09
-57.97
-71.48
-85.00
-98.47
-111.31
-122.32
-129.95
-132.66
-129.33
-119.63
-104.06
-83.77
-60.20
-34.79
-8.94
15.95
38.32
56.49
68.73
73.49
69.49
55.88
32.31
-0.83
-42.16
-89.30
-139.36
-189.56
-237.95
-283.58
-326.20
-365.60
-401.10
-431.50
-455.66
-473.09
-484.26
-490.24
-491.87
-489.12
-480.87
-465.38
-441.38
-408.81
-369.13
-324.96
-279.24
-234.55
-192.73
-154.90
-121.64
-93.12
-68.96
-48.11
-28.89
-9.27
12.62
38.08
67.55
100.69
136.45
173.24
209.02
241.40
268.02
287.05
297.66
300.24
296.13
287.14
274.88
260.39
244.10
226.18
206.95
187.12
167.80
150.20
135.24
123.28
114.04
106.72
100.43
94.35
87.89
80.66
72.27
62.37
50.62
36.90
21.44
5.01
-11.28
-26.26
-38.98
-49.14
-57.23
-64.32
-71.66
-79.96
-88.94
-97.04
-101.89
-101.05
-92.97
-77.54
-56.17
-31.16
-4.97
20.55
44.43
66.39
86.42
104.40
119.96
132.61
142.12
148.76
153.22
156.47
159.35
162.32
165.28
167.75
169.13
168.97
167.20
164.02
159.74
154.53
148.32
140.84
131.88
121.50
110.08
98.34
87.04
76.85
68.07
60.64
54.25
48.42
42.76
36.99
30.99
24.74
18.32
12.04
6.64
3.35
3.75
9.22
20.29
36.07
54.21
71.47
84.70
91.90
92.68
88.10
79.92
69.81
58.89
47.80
37.14
27.87
21.17
18.00
18.53
22.00
27.04
32.51
38.16
44.79
53.62
65.43
79.87
95.35
109.76
121.23
128.75
132.33
132.56
130.14
125.58
119.15
111.10
101.88
92.20
82.91
74.80
68.27
63.20
58.78
53.75
46.66
36.50
23.30
8.37
-5.97
-17.30
-24.14
-26.72
-27.00
-27.82
-31.78
-40.15
-52.53
-67.23
-82.23
-96.13
-108.62
-120.32
-132.27
-145.22
-159.25
-173.68
-187.34
-199.01
-207.74
-213.02
-214.66
-212.66
-207.08
-198.11
-186.25
-172.41
-157.85
-143.95
-131.77
-121.78
-113.78
-107.19
-101.35
-96.01
-91.49
-88.52
-87.88
-89.92
-94.47
-100.92
-108.70
-117.57
-127.69
-139.33
-152.41
-166.21
-179.37
-190.14
-196.68
-197.35
-190.73
-175.78
-151.94
-119.48
-79.74
-35.10
11.36
56.49
97.74
133.55
163.35
187.38
206.25
220.66
231.22
238.36
242.52
244.28
244.45
244.19
245.00
248.48
255.99
268.06
283.85
301.03
316.03
325.08
325.20
315.21
295.85
269.37
238.59
206.12
173.72
142.40
112.59
84.44
57.91
32.85
8.95
-14.07
-36.34
-57.72
-77.84
-96.23
-112.61
-127.06
-139.96
-151.86
-163.12
-173.62
-182.63
-188.91
-191.20
-188.65
-181.24
-169.83
-155.82
-140.65
-125.21
-109.54
-92.96
-74.55
-53.78
-30.91
-7.08
16.11
37.10
54.92
69.23
80.16
87.92
92.53
93.86
91.97
87.33
80.99
74.21
68.03
62.85
58.33
53.69
48.14
41.33
33.47
25.18
17.12
9.64
2.61
-4.47
-12.23
-21.07
-31.01
-41.69
-52.52
-62.88
-72.38
-80.85
-88.43
-95.39
-102.20
-109.38
-117.29
-125.99
-135.02
-143.30
-149.32
-151.54
-148.82
-140.76
-127.78
-110.97
-91.78
-71.74
-52.12
-33.97
-18.04
-4.84
5.37
12.61
17.23
19.84
21.30
22.53
24.32
27.15
31.15
36.11
41.62
47.28
52.78
57.98
62.83
67.21
70.93
73.74
75.44
75.98
75.47
74.13
72.18
69.80
67.08
64.10
60.93
57.61
54.04
49.97
44.99
38.72
30.98
21.97
12.35
3.23
-3.97
-7.78
-6.99
-0.99
9.98
24.88
42.09
59.86
76.69
91.65
104.27
114.34
121.70
125.95
126.57
123.10
115.50
104.36
90.84
76.43
62.47
49.75
38.39
28.00
18.04
8.16
-1.54
-10.64
-18.63
-25.26
-30.68
-35.41
-40.04
-45.01
-50.45
-56.20
-62.01
-67.82
-73.82
-80.34
-87.59
-95.39
-103.11
-109.93
-115.19
-118.80
-121.37
-123.92
-127.44
-132.27
-137.76
-142.36
-144.12
-141.31
-133.07
-119.59
-101.95
-81.65
-60.11
-38.50
-17.59
2.02
19.85
35.51
48.78
59.61
68.12
74.49
78.88
81.51
82.77
83.23
83.58
84.39
85.90
87.87
89.75
90.85
90.60
88.67
84.94
79.39
72.07
63.06
52.66
41.39
29.88
18.76
8.34
-1.39
-10.69
-19.78
-28.60
-36.84
-44.05
-50.08
-55.20
-60.22
-66.10
-73.50
-82.40
-91.75
-99.70
-104.02
-102.77
-94.90
-80.63
-61.43
-39.68
-18.07
1.00
15.84
25.76
30.94
32.34
31.21
28.88
26.35
24.29
22.94
22.35
22.45
23.10
24.04
24.95
25.44
25.29
24.62
23.83
23.45
23.79
24.64
25.37
