1675339727.00
64.000000
-0.00
-0.00
-0.00
-0.00
-0.00
-0.00
-0.00
-0.00
-0.00
-0.00
0.00
0.01
0.01
-0.00
-0.03
-0.05
-0.05
0.00
0.13
0.36
0.66
1.01
1.37
1.72
2.06
2.40
2.79
3.24
3.80
4.42
5.06
5.66
6.20
6.68
7.15
7.68
8.31
9.14
10.09
11.04
11.88
12.56
13.14
13.76
14.65
15.96
17.91
20.32
22.90
25.38
27.58
29.57
31.68
34.32
37.81
42.54
48.15
54.10
59.83
64.97
69.58
74.14
79.34
85.71
93.76
103.00
112.62
121.73
129.77
136.75
143.30
150.75
157.77
166.64
177.95
191.79
206.97
220.57
228.25
225.36
208.53
176.87
132.76
80.05
23.07
-34.94
-92.44
-149.16
-205.23
-260.37
-313.74
-363.87
-409.83
-450.91
-486.50
-515.74
-537.23
-549.22
-549.96
-538.37
-514.21
-478.67
-433.88
-382.45
-327.02
-269.84
-212.63
-156.66
-102.95
-52.37
-5.90
35.58
71.43
101.35
125.50
144.38
158.69
169.15
176.37
180.75
182.57
182.07
179.51
175.23
169.65
163.18
156.15
148.81
141.30
133.69
126.02
118.33
110.69
103.16
95.80
88.68
81.83
75.25
68.95
62.95
57.25
51.86
46.78
42.03
37.59
33.45
29.61
26.07
22.81
19.83
17.11
14.67
12.48
10.54
8.83
7.35
6.07
4.97
4.05
3.26
2.61
2.08
1.66
1.32
1.05
0.82
0.61
0.41
0.22
0.05
-0.08
-0.15
-0.18
-0.17
-0.15
-0.16
-0.20
-0.27
-0.34
-0.38
-0.37
-0.31
-0.24
-0.19
-0.21
-0.32
-0.51
-0.70
-0.82
-0.82
-0.70
-0.53
-0.43
-0.52
-0.86
-1.38
-1.93
-2.33
-2.42
-2.22
-1.86
-1.62
-1.74
-2.34
-3.30
-4.32
-5.03
-5.17
-4.73
-3.98
-3.39
-3.41
-4.20
-5.61
-7.16
-8.29
-8.63
-8.13
-7.09
-6.03
-5.44
-5.65
-6.89
-9.20
-12.28
-15.26
-16.57
-14.48
-7.72
3.56
17.58
31.36
41.88
47.31
47.59
44.18
39.03
33.71
28.54
23.22
17.30
10.85
4.45
-1.09
-5.17
-7.75
-9.24
-10.26
-11.34
-12.68
-14.20
-15.65
-16.81
-17.56
-17.86
-17.65
-16.67
-14.46
-10.62
-5.01
1.95
9.27
15.67
19.96
21.45
20.15
16.65
11.84
6.58
1.48
-3.08
-6.86
-9.65
-11.29
-11.73
-11.13
-9.85
-8.38
-7.19
-6.55
-6.49
-6.88
-7.53
-8.32
-9.34
-10.79
-12.85
-15.63
-18.99
-22.60
-26.02
-28.86
-30.96
-32.45
-33.69
-35.12
-37.06
-39.59
-42.52
-45.55
-48.33
-50.38
-51.54
-51.85
-51.50
-50.71
-49.69
-48.45
-46.66
-43.54
-37.94
-28.75
-15.31
2.12
22.29
43.16
62.53
78.56
90.18
97.07
99.46
97.85
92.86
85.22
75.79
65.61
55.75
47.22
40.68
36.36
34.09
33.30
33.21
33.03
32.13
30.18
27.14
23.22
18.71
13.89
8.92
3.80
-1.60
-7.40
-13.68
-20.34
-27.06
-33.39
-38.85
-43.15
-46.31
-48.68
-50.90
-53.67
-57.53
-62.59
-68.32
-73.46
-76.31
-75.12
-68.62
-56.58
-39.89
-20.43
-0.46
17.93
33.29
44.91
52.73
57.00
58.16
56.73
53.36
48.89
44.18
40.07
37.04
35.24
34.47
34.32
34.37
34.27
33.83
32.87
31.19
28.64
25.09
20.61
15.42
9.75
3.76
-2.53
-9.11
-15.89
-22.56
-28.69
-33.89
-38.01
-41.30
-44.28
-47.58
-51.67
-56.83
-63.00
-69.75
-76.23
-81.14
-82.91
-80.07
-71.68
-57.78
-39.47
-18.64
2.45
21.70
37.61
49.41
57.06
61.05
62.19
61.32
59.26
56.65
54.02
51.79
50.24
49.52
49.53
49.91
50.21
49.99
48.98
47.13
44.51
41.24
37.38
32.93
27.90
22.37
16.50
10.49
4.52
-1.38
-7.21
-13.06
-18.92
-24.69
-30.16
-35.09
-39.40
-43.24
-46.99
-51.24
-56.60
-63.42
-71.52
-80.02
-87.28
-91.27
-90.12
-82.75
-69.30
-51.23
-30.84
-10.61
7.42
22.10
33.11
40.72
45.43
47.72
48.05
46.90
44.87
42.72
41.11
40.57
41.23
42.80
44.70
46.26
47.03
46.91
46.16
45.15
44.13
42.99
41.27
38.36
33.89
28.03
21.46
15.25
10.31
7.01
5.00
3.44
1.36
-1.82
-6.09
-10.96
-15.71
-19.84
-23.23
-26.15
-29.15
-32.82
-37.71
-44.09
-51.85
-60.21
-67.77
-72.63
-72.89
-67.24
-55.53
-38.85
-19.32
0.57
18.61
33.35
44.23
51.44
55.56
57.29
57.17
55.65
53.15
50.19
47.42
45.49
44.84
45.47
46.94
48.53
49.50
49.51
48.58
47.04
45.20
43.16
40.67
37.39
33.06
27.76
21.88
16.04
10.77
6.32
2.61
-0.79
-4.37
-8.53
-13.41
-18.78
-24.17
-29.09
-33.21
-36.55
-39.51
-42.69
-46.68
-51.82
-58.09
-64.97
-71.47
-76.23
-77.67
-74.45
-65.83
-52.05
-34.43
-15.11
3.53
19.45
31.38
38.88
42.15
41.74
38.31
32.63
25.60
18.23
11.55
6.34
2.90
0.97
-0.16
-1.33
-3.20
-6.04
-9.72
-13.91
-18.23
-22.57
-27.03
-31.91
-37.54
-44.15
-51.75
-60.22
-69.22
-78.25
-86.65
-93.55
-98.04
-99.39
-97.24
-91.83
-83.97
-74.83
-65.62
-57.30
-50.53
-45.66
-42.80
-41.65
-41.41
-40.77
-38.17
-32.22
-22.24
-8.53
7.58
24.17
39.27
51.50
60.28
65.78
68.64
69.77
69.96
69.68
68.97
67.71
65.89
63.66
61.39
59.47
58.52
58.96
60.71
62.98
64.65
64.73
62.58
57.95
51.02
43.19
36.17
31.19
28.32
26.70
25.16
22.76
18.92
13.57
8.44
5.73
6.93
11.93
19.45
28.07
36.38
43.02
46.73
48.61
51.23
57.80
70.97
92.42
122.60
159.80
200.08
227.06
226.23
192.87
136.30
72.67
15.42
-28.32
-56.54
-69.70
-69.76
-58.46
-39.24
-17.57
-0.27
6.37
-0.45
-19.40
-45.39
-72.04
-92.51
-102.20
-99.94
-88.27
-71.96
-53.08
-34.94
-20.09
-10.03
-4.26
-1.23
0.78
2.81
5.32
8.70
12.94
17.98
23.17
27.55
29.80
28.53
22.81
12.63
-0.89
-16.32
-32.08
-47.09
-60.62
-72.02
-80.37
-84.35
-82.41
-73.27
-56.77
-33.88
-6.66
22.22
50.22
75.48
97.02
114.47
127.66
136.35
140.30
139.63
135.05
127.80
119.29
110.55
101.89
92.89
82.70
70.54
56.00
39.15
20.57
1.35
-17.09
-33.34
-46.55
-56.93
-65.81
-75.10
-86.32
-99.85
-114.90
-130.05
-144.31
-157.50
-170.13
-182.51
-194.14
-203.56
-209.05
-209.46
-204.82
-196.18
-185.05
-172.65
-159.56
-145.86
-131.38
-116.03
-99.87
-82.97
-65.30
-46.71
-27.12
-6.90
12.83
30.23
43.10
49.62
49.08
42.30
31.53
19.73
9.59
2.78
-0.38
-0.54
1.24
4.19
7.85
11.90
15.76
18.50
19.16
17.43
13.95
10.23
7.86
7.60
8.85
9.91
8.91
4.89
-1.63
-8.99
-15.26
-19.25
-21.05
-21.90
-23.53
-27.28
-33.58
-41.68
-49.89
-56.10
-58.45
-55.96
-48.82
-38.32
-26.37
-14.85
-4.99
2.73
8.56
12.99
16.44
19.08
20.98
22.25
23.18
24.16
25.45
27.08
28.80
30.18
30.83
30.51
29.19
27.00
24.18
21.05
17.98
15.29
13.19
11.52
9.74
7.14
3.12
-2.40
-8.80
-15.02
-20.05
-23.56
-26.12
-29.11
-34.03
-41.85
-52.47
-64.58
-75.91
-83.62
-84.94
-77.70
-60.94
-35.26
-2.93
32.51
67.09
97.43
121.50
138.89
150.57
158.09
162.94
166.03
167.69
167.92
166.79
164.65
162.19
160.08
158.67
157.67
156.22
153.10
147.29
138.25
126.18
111.78
95.92
79.31
62.37
45.28
28.23
11.58
-4.08
-18.06
-29.83
-39.29
-46.93
-53.75
-60.94
-69.45
-79.75
-91.67
-104.50
-117.32
-129.17
-139.11
-146.14
-149.28
-147.63
-140.81
-129.34
-114.76
-99.38
-85.66
-75.45
-69.50
-67.31
-67.57
-68.63
-69.20
-68.61
-66.79
-64.12
-61.03
-57.86
-54.72
-51.56
-48.32
-44.97
-41.54
-37.99
-34.24
-30.19
-25.90
-21.77
-18.52
-17.01
-17.93
-21.42
-26.91
-33.30
-39.33
-44.10
-47.42
-49.84
-52.36
-56.03
-61.53
-68.99
-77.93
-87.32
-95.64
-101.14
-102.09
-97.22
-86.01
-68.90
-47.23
-22.95
1.55
23.68
40.89
51.17
53.60
48.90
39.66
29.67
22.80
21.66
26.70
36.28
47.58
58.00
66.28
72.99
79.94
89.16
101.71
117.13
133.49
148.07
158.28
162.33
159.57
150.50
136.50
119.45
101.45
84.45
69.77
57.84
48.07
39.10
29.33
17.59
3.49
-12.46
-29.11
-44.95
-58.54
-68.64
-74.40
-75.44
-71.93
-64.63
-54.82
-44.02
-33.68
-24.79
-17.69
-12.15
-7.66
-3.74
-0.15
3.12
5.97
8.37
10.42
12.27
14.04
15.73
17.26
18.50
19.42
20.07
20.56
20.96
21.26
21.32
20.93
19.84
17.85
14.88
11.06
6.72
2.32
-1.67
-5.02
-7.83
-10.59
-14.00
-18.73
-25.05
-32.65
-40.51
-47.17
-51.06
-50.99
-46.51
-38.10
-27.01
-14.94
-3.58
5.79
12.60
16.92
19.36
20.69
21.65
22.67
23.86
25.04
25.88
26.06
25.40
23.98
22.07
20.11
18.51
17.55
17.23
17.30
17.40
17.15
16.31
14.80
12.72
10.29
7.81
5.53
3.59
1.84
-0.18
-3.06
-7.43
-13.59
-21.37
-30.14
-38.93
-46.86
-53.40
-58.67
-63.37
-68.66
-75.50
-84.17
-93.80
-102.30
-106.80
-104.43
-93.28
-73.08
-45.39
-13.30
19.43
49.20
73.30
90.27
99.96
103.42
102.47
99.10
94.79
90.00
84.05
75.67
63.87
48.82
32.21
16.80
5.42
-0.08
0.57
6.14
14.73
24.58
34.52
44.00
52.64
59.89
64.94
67.10
66.11
62.41
56.83
49.99
41.93
32.04
19.69
5.00
-10.87
-26.18
-39.71
-51.67
-63.84
-78.51
-96.96
-118.28
-139.39
-156.14
-165.07
-164.69
-155.85
-141.01
-123.04
-104.42
-86.85
-71.35
-58.40
-47.75
-38.17
-27.54
-13.57
4.98
27.28
50.37
70.28
84.01
91.12
94.07
96.93
103.45
115.40
132.23
151.98
172.65
193.08
212.91
231.91
249.40
263.98
273.83
277.17
272.77
260.45
241.37
218.25
194.78
174.51
159.47
149.36
141.75
133.57
122.70
108.81
92.97
76.32
58.91
39.56
16.86
-9.42
-37.65
-64.81
-87.85
-105.04
-116.55
-123.96
-129.36
-134.41
-140.07
-146.63
-154.08
-162.33
-171.26
-180.73
-190.59
-200.79
-211.38
-222.37
-233.52
-244.04
-252.62
-257.69
-257.92
-252.74
-242.58
-228.95
-214.09
-200.35
-189.60
-182.64
-179.16
-178.02
-177.76
-177.00
-174.69
-169.82
-161.40
-148.50
-130.66
-108.42
-83.39
-58.07
-35.05
-16.38
-3.08
4.79
7.83
7.17
4.48
2.09
2.81
9.29
23.07
43.82
69.14
95.13
117.67
133.63
141.77
142.83
138.97
132.93
127.29
123.99
124.05
127.42
132.73
137.35
137.96
131.67
117.40
96.62
73.27
52.34
37.95
31.67
32.03
35.52
38.31
37.94
33.93
27.30
19.48
11.50
3.83
-3.18
-8.95
-12.76
-14.20
-13.56
-11.58
-8.66
-4.16
3.72
16.95
36.35
60.61
86.47
109.83
127.25
136.84
138.47
133.34
123.57
111.90
101.52
95.45
95.67
102.25
113.19
125.25
135.40
142.24
146.59
150.92
158.09
170.01
186.93
207.39
228.73
247.88
261.94
268.67
266.84
256.40
238.54
215.46
189.85
164.18
140.04
117.68
95.90
72.41
44.42
9.46
-33.62
-83.93
-138.34
-191.98
-239.55
-277.14
-303.64
-321.22
-334.44
-348.35
-366.42
-389.23
-414.44
-437.79
-454.67
-461.40
-455.89
-437.65
-407.59
-367.74
-321.13
-271.46
-222.51
-177.48
-138.18
-104.75
-75.99
-50.19
-26.01
-3.13
17.91
36.15
50.93
62.20
70.44
76.24
79.93
81.59
81.35
79.68
77.48
75.64
74.60
73.95
72.65
69.62
64.40
57.42
49.74
42.40
35.98
30.40
25.31
20.65
16.90
15.03
15.96
20.03
26.66
34.57
42.25
48.48
52.67
54.76
54.97
53.38
49.93
44.48
37.22
28.80
20.31
12.88
7.29
3.71
1.68
0.47
-0.63
-2.10
-4.21
-7.16
-11.22
-16.58
-23.15
-30.40
-37.25
-42.36
-44.48
-42.96
-38.03
-30.82
-23.10
-16.71
-12.95
-12.21
-14.00
-17.24
-20.80
-23.81
-25.71
-25.98
-23.86
-18.28
-8.08
7.39
27.80
51.56
76.09
98.45
116.20
128.10
134.33
136.22
135.56
133.79
131.53
128.52
124.06
117.56
108.94
98.75
87.81
76.82
66.17
55.96
46.19
37.15
29.40
23.63
20.31
19.29
19.67
19.99
18.70
14.73
8.01
-0.56
-9.44
-17.13
-22.78
-26.44
-28.94
-31.44
-34.90
-39.86
-46.39
-54.12
-62.36
-70.03
-75.72
-77.88
-75.30
-67.56
-55.40
-40.55
-25.18
-11.18
0.40
9.38
16.20
21.42
25.40
28.21
29.78
30.15
29.53
28.28
26.78
25.33
24.13
23.32
23.02
23.30
24.09
25.14
26.06
26.39
25.79
24.13
21.48
18.11
14.37
10.55
6.84
3.29
-0.16
-3.50
-6.68
-9.64
-12.36
-15.03
-18.04
-21.94
-27.15
-33.80
-41.57
-49.68
-57.08
-62.65
-65.41
-64.67
-60.19
-52.19
-41.45
-29.17
-16.79
-5.67
3.20
9.41
13.07
14.64
14.58
13.21
10.74
7.34
3.39
-0.50
-3.65
-5.57
-6.14
-5.68
-4.76
-3.97
-3.64
-3.74
-3.95
-3.79
-2.88
-1.02
1.73
5.04
8.39
11.20
12.98
13.43
12.53
10.53
7.84
4.92
2.04
-0.81
-4.00
-8.06
-13.45
-20.16
-27.48
-34.04
-38.16
-38.44
-34.28
-26.09
-15.17
-3.18
8.47
18.97
28.13
36.13
43.09
48.89
53.16
55.58
56.09
55.09
53.31
51.57
50.48
50.33
51.07
52.45
54.15
55.86
57.24
57.94
57.55
55.66
52.00
46.46
39.24
30.78
21.69
12.58
3.91
-4.01
-11.12
-17.49
-23.27
-28.74
-34.20
-39.98
-46.35
-53.31
-60.48
-66.99
-71.65
-73.23
-70.84
-64.27
-54.13
-41.67
-28.44
-15.90
-5.05
3.69
10.35
15.20
18.48
20.32
20.78
19.96
18.14
15.71
13.16
10.92
9.29
8.40
8.27
8.79
9.75
10.78
11.39
11.13
9.74
7.17
3.66
-0.46
-4.85
-9.31
-13.74
-18.07
-22.19
-25.95
-29.13
-31.62
-33.39
-34.58
-35.49
-36.50
-38.01
-40.42
-43.98
-48.66
-53.98
-58.92
-62.07
-61.94
-57.51
-48.57
-35.93
-21.18
-6.25
7.16
17.91
25.62
30.53
33.23
34.39
34.52
33.97
32.90
31.45
29.78
28.14
26.77
25.85
25.37
25.16
24.99
24.68
24.16
23.49
22.68
21.68
20.30
18.36
15.73
12.44
8.65
4.55
0.31
-3.95
-8.21
-12.45
-16.67
-20.77
-24.66
-28.21
-31.34
-34.03
-36.43
-38.79
-41.46
-44.67
-48.28
-51.65
-53.68
-53.12
-49.04
-41.27
-30.53
-18.21
-5.88
5.14
14.04
20.49
24.49
26.16
25.70
23.45
19.93
15.73
11.42
7.42
3.97
1.21
-0.76
-1.88
-2.11
-1.51
-0.20
1.66
3.90
6.39
8.99
11.50
13.70
15.36
16.35
16.66
16.36
15.53
14.21
12.35
9.83
6.58
2.58
-2.04
-7.08
-12.26
-17.38
-22.42
-27.49
-32.77
-38.31
-43.85
-48.64
-51.61
-51.53
-47.51
-39.28
-27.43
-13.22
1.71
15.85
28.09
37.84
44.91
49.38
51.41
51.29
49.53
46.87
44.25
42.53
42.14
43.00
44.52
45.92
46.59
46.29
45.18
43.56
41.73
39.72
37.38
34.49
30.89
26.61
21.81
16.71
11.50
6.27
1.03
-4.24
-9.54
-14.75
-19.65
-23.99
-27.60
-30.48
-32.86
-35.14
-37.78
-41.12
-45.22
-49.75
-54.00
-56.93
-57.41
-54.53
-47.89
-37.79
-25.23
-11.70
1.22
12.19
20.39
25.60
28.08
28.44
27.45
25.87
24.28
23.08
22.39
22.16
22.24
22.45
22.70
22.92
23.05
23.00
22.60
21.69
20.19
18.10
15.56
12.76
9.89
7.08
4.32
1.48
-1.61
-5.11
-9.01
-13.10
-16.98
-20.20
-22.46
-23.77
-24.38
-24.73
-25.24
-26.25
-27.95
-30.32
-33.02
-35.33
-36.13
-34.15
-28.45
-19.00
-6.79
6.32
18.30
27.70
34.10
38.02
40.40
42.04
43.20
43.66
43.00
41.04
37.99
34.41
30.93
28.04
25.94
24.55
23.63
22.85
21.90
20.45
18.19
14.84
10.25
4.49
-2.13
-9.08
-15.76
-21.68
-26.53
-30.31
-33.21
-35.57
-37.73
-39.85
-41.91
-43.72
-45.08
-45.97
-46.65
-47.62
-49.47
-52.54
-56.67
-61.08
-64.52
-65.55
-63.02
-56.46
-46.25
-33.52
-19.84
-6.77
4.53
13.46
20.01
24.47
27.25
28.68
28.98
28.39
27.21
25.82
24.56
23.61
22.95
22.40
21.83
21.22
20.69
20.44
20.50
20.66
20.50
19.60
17.76
15.10
11.99
8.87
5.99
3.42
1.08
-1.14
-3.28
-5.27
-7.02
-8.48
-9.72
-10.85
-12.08
-13.69
-15.90
-18.80
-22.12
-25.11
-26.65
-25.43
-20.49
-11.64
0.37
14.03
27.53
39.33
48.54
55.05
59.24
61.63
62.58
62.19
60.52
57.84
54.79
52.28
51.22
52.11
54.88
58.88
63.24
67.15
70.09
71.75
71.95
70.46
67.11
61.98
55.53
48.59
42.03
36.36
31.41
26.54
20.90
14.05
6.14
-2.14
-9.91
-16.55
-21.91
-26.29
-30.21
-34.15
-38.18
-41.95
-44.61
-45.14
-42.65
-36.82
-28.09
-17.55
-6.60
3.42
11.65
17.79
21.97
24.58
26.08
26.89
27.31
27.54
27.60
27.55
27.54
28.01
29.60
32.96
38.37
45.53
53.54
61.12
67.02
70.23
70.23
67.03
61.12
53.50
45.49
38.44
33.32
30.34
28.88
27.83
26.17
23.52
20.33
17.57
16.31
17.17
20.19
24.99
30.96
37.44
43.69
48.83
51.85
51.84
48.32
41.48
32.11
21.37
10.27
-0.70
-11.68
-23.40
-36.74
-52.42
-70.58
-90.65
-111.37
-131.10
-148.28
-161.83
-171.54
-178.07
-182.66
-186.68
-191.11
-196.32
-202.02
-207.51
-212.03
-214.97
-215.98
-214.99
-212.20
-207.96
-202.82
-197.39
-192.23
-187.70
-183.90
-180.79
-178.26
-176.17
-174.23
-171.80
-167.76
-160.71
-149.36
-133.03
-111.99
-87.54
-61.62
-36.23
-12.96
7.35
24.51
38.75
50.46
59.90
67.26
72.74
76.79
80.22
84.02
88.99
95.37
102.66
109.70
115.13
117.84
117.26
113.44
106.75
97.71
86.76
74.34
60.99
47.38
34.36
22.68
12.93
5.35
-0.14
-3.90
-6.46
-8.41
-10.28
-12.47
-15.20
-18.55
-22.56
-27.20
-32.26
-37.22
-41.16
-42.94
-41.44
-36.00
-26.67
-14.19
0.22
15.22
29.72
43.01
54.71
64.63
72.70
78.85
83.19
86.01
87.84
89.32
91.05
93.41
96.51
100.22
104.30
108.47
112.51
116.15
119.08
121.08
122.07
122.35
122.50
123.26
125.15
128.23
132.04
135.82
138.93
141.15
142.81
144.52
146.55
148.32
148.20
143.91
133.34
115.33
89.81
57.53
19.51
-23.00
-68.08
-112.44
-151.26
-179.10
-191.66
-187.43
-168.41
-139.25
-105.42
-71.26
-39.21
-10.30
14.46
33.19
43.25
42.52
30.83
10.61
-13.58
-36.79
-55.49
-68.57
-77.14
-83.13
-87.81
-90.91
-90.85
-85.97
-75.84
-61.95
-47.31
-35.32
-28.37
-27.02
-30.13
-35.73
-42.04
-48.16
-54.14
-60.54
-67.74
-75.47
-82.93
-89.25
-94.22
-98.39
-102.72
-107.98
-114.16
-120.29
-124.75
-125.91
-122.79
-115.73
-105.86
-94.56
-82.91
-71.47
-60.22
-48.70
-36.19
-22.14
-7.14
7.87
22.00
34.65
45.39
53.98
60.64
66.05
70.99
74.58
76.22
76.28
76.05
76.80
79.11
82.87
87.85
93.28
95.75
92.37
81.94
64.94
42.42
15.31
-15.14
-46.87
-77.90
-109.38
-141.78
-173.45
-200.95
-221.01
-232.10
-234.31
-228.58
-197.34
-134.59
-49.94
36.26
107.57
159.01
193.75
215.62
231.27
243.60
250.22
249.14
241.03
228.89
215.82
202.85
189.35
174.39
156.90
134.44
106.35
74.32
41.58
11.02
-15.89
-38.60
-56.41
-68.91
-77.05
-81.67
-83.12
-81.50
-77.42
-72.49
-68.88
-68.79
-74.42
-87.68
-108.70
-134.99
-161.92
-184.35
-198.64
-203.91
-202.17
-197.25
-193.18
-192.14
-193.78
-195.86
-195.73
-191.55
-182.66
-169.09
-151.00
-128.22
-100.59
-68.54
-33.51
2.23
36.29
67.12
94.49
119.15
141.97
163.00
181.20
194.80
202.12
202.32
195.45
182.24
163.79
141.49
117.22
93.30
72.07
55.14
42.69
33.40
25.17
16.15
5.65
-5.67
-16.30
-24.80
-30.48
-33.60
-35.05
-35.87
-36.80
-38.14
-39.83
-41.66
-43.49
-45.27
-46.90
-48.12
-48.43
-47.35
-44.80
-41.30
-38.00
-36.03
-35.96
-37.33
-38.67
-38.05
-33.75
-24.85
-11.43
5.51
24.36
43.29
60.55
74.74
84.96
90.85
92.54
90.52
85.58
78.70
70.94
63.22
56.11
49.74
43.81
37.95
31.95
26.05
20.80
16.85
14.55
13.88
14.42
15.63
17.01
18.18
18.87
18.85
17.97
16.31
14.14
11.97
10.32
9.48
9.38
9.59
9.46
8.42
6.13
2.58
-1.96
-6.96
-11.70
-15.25
-16.58
-14.71
-9.11
0.19
12.51
26.69
41.48
55.80
68.86
80.07
88.91
94.88
97.67
97.33
94.36
89.51
83.47
76.62
69.03
60.63
51.44
41.69
31.54
20.90
9.34
-3.69
-18.30
-33.75
-48.37
-60.02
-66.85
-68.12
-64.54
-57.99
-50.82
-44.89
-41.09
-39.29
-38.78
-38.89
-39.45
-40.78
-43.32
-47.18
-52.02
-57.10
-61.77
-65.72
-69.03
-71.93
-74.26
-75.34
-74.09
-69.49
-61.15
-49.63
-36.34
-23.13
-11.66
-2.94
2.83
6.04
7.32
7.17
5.81
3.32
-0.08
-3.85
-7.08
-8.77
-8.18
-5.11
0.03
6.38
13.00
19.17
24.56
29.21
33.31
37.07
40.52
43.57
46.05
47.82
48.86
49.17
48.82
47.83
46.15
43.70
40.46
36.50
32.03
27.26
22.22
16.66
10.06
1.99
-7.53
-17.67
-26.83
-33.06
-34.72
-31.10
-22.64
-10.74
2.67
15.71
26.94
35.54
41.29
44.46
45.67
45.70
45.26
44.85
44.68
44.68
44.68
44.50
44.03
43.19
41.90
40.10
37.82
35.19
32.45
29.83
27.48
25.41
23.49
21.57
19.50
17.13
14.30
10.88
6.80
2.16
-2.68
-7.21
-10.89
-13.42
-14.76
-15.21
-15.29
-15.61
-16.80
-19.35
-23.37
-28.43
-33.47
-37.05
-37.84
-35.16
-29.35
-21.69
-13.89
-7.51
-3.47
-1.95
-2.54
-4.61
-7.51
-10.56
-13.06
-14.23
-13.34
-9.97
-4.22
3.24
11.28
18.59
24.04
26.88
26.91
24.44
20.14
14.87
9.48
4.66
0.89
-1.64
-3.03
-3.67
-4.16
-5.14
-7.02
-9.81
-13.04
-15.94
-17.85
-18.56
-18.49
-18.54
-19.75
-22.82
-27.85
-34.28
-41.00
-46.57
-49.55
-48.73
-43.45
-33.76
-20.53
-5.30
10.10
23.99
35.26
43.58
49.27
53.05
55.61
57.35
58.36
58.53
57.79
56.29
54.49
52.93
52.08
52.07
52.67
53.37
53.64
53.06
51.41
48.63
44.69
39.64
33.55
26.62
19.18
11.70
4.64
-1.65
-7.06
-11.72
-15.91
-19.96
-24.03
-28.08
-31.92
-35.41
-38.63
-41.96
-45.95
-51.00
-56.93
-62.85
-67.25
-68.49
-65.43
-57.88
-46.70
-33.45
-19.85
-7.28
3.50
12.34
19.38
24.83
28.78
31.22
32.20
31.97
30.97
29.81
29.03
29.00
29.75
31.04
32.45
33.60
34.24
34.33
33.91
33.09
31.86
30.10
27.64
24.38
20.38
15.87
11.17
6.57
2.19
-2.01
-6.19
-10.38
-14.51
-18.36
-21.78
-24.84
-27.94
-31.67
-36.53
-42.59
-49.34
-55.67
-60.19
-61.64
-59.29
-53.15
-43.99
-33.04
-21.63
-10.77
-0.99
7.68
15.35
21.98
27.31
30.89
32.42
32.02
30.27
28.06
26.20
25.17
24.96
25.33
25.96
26.71
27.59
28.61
29.60
30.16
29.77
28.02
24.86
20.64
16.01
11.70
8.23
5.80
4.31
3.49
3.05
2.81
2.65
2.55
2.47
2.32
1.91
0.97
-0.83
-3.71
-7.68
-12.48
-17.56
-22.25
-25.93
-28.18
-28.85
-27.97
-25.74
-22.45
-18.51
-14.42
-10.78
-8.14
-6.88
-7.02
-8.29
-10.17
-12.10
-13.67
-14.73
-15.33
-15.70
-16.06
-16.53
-17.07
-17.49
-17.59
-17.28
-16.67
-16.04
-15.78
-16.14
-17.18
-18.71
-20.41
-21.97
-23.24
-24.14
-24.65
-24.69
-24.11
-22.83
-20.98
-18.93
-17.24
-16.41
-16.78
-18.41
-21.12
-24.60
-28.35
-31.71
-33.86
-33.82
-30.81
-24.48
-15.12
-3.69
8.53
20.27
30.59
39.04
45.53
50.15
52.96
53.94
53.05
50.39
46.30
41.40
36.45
32.26
29.36
27.96
27.87
28.58
29.45
29.96
29.79
28.88
27.27
25.06
22.21
18.61
14.12
8.65
2.27
-4.82
-12.22
-19.47
-26.04
-31.59
-35.99
-39.47
-42.52
-45.80
-49.87
-55.09
-61.44
-68.57
-75.76
-81.93
-85.78
-86.03
-81.76
-72.79
-59.92
-44.79
-29.41
-15.58
-4.38
3.97
9.92
14.14
17.14
19.15
20.16
20.22
19.58
18.68
18.05
18.05
18.66
19.55
20.23
20.38
19.97
19.27
18.64
18.22
17.85
17.12
15.60
13.11
9.77
5.93
1.97
-1.86
-5.45
-8.73
-11.66
-14.20
-16.38
-18.36
-20.41
-22.84
-25.86
-29.58
-33.94
-38.65
-43.13
-46.49
-47.57
-45.29
-39.03
-29.02
-16.35
-2.80
9.82
20.15
27.62
32.44
35.22
36.64
37.17
37.05
36.40
35.36
34.15
33.04
32.17
31.54
30.96
30.25
29.26
28.02
26.63
25.17
23.63
21.90
19.84
17.33
14.38
11.09
7.61
4.07
0.55
-2.92
-6.33
-9.67
-12.88
-15.88
-18.57
-20.88
-22.85
-24.59
-26.40
-28.66
-31.76
-35.93
-41.03
-46.42
-50.97
-53.31
-52.18
-46.90
-37.64
-25.44
-11.91
1.27
12.79
21.99
28.74
33.25
35.81
36.72
36.28
34.91
33.14
31.48
30.32
29.78
29.72
29.89
30.04
30.04
29.86
29.54
29.05
28.30
27.20
25.68
23.74
21.48
19.02
16.49
14.01
11.61
9.35
7.21
5.15
3.11
1.00
-1.20
-3.53
-5.99
-8.53
-11.11
-13.65
-16.12
-18.62
-21.41
-24.83
-29.09
-33.90
-38.38
-41.16
-40.79
-36.39
-27.98
-16.60
-3.89
8.41
18.95
26.97
32.19
34.64
34.53
32.21
28.27
23.54
19.00
15.53
13.64
13.31
14.04
15.05
15.66
15.50
14.66
13.47
12.31
11.32
10.37
9.12
7.29
4.79
1.77
-1.49
-4.77
-7.98
-11.20
-14.53
-18.00
-21.44
-24.60
-27.19
-29.10
-30.38
-31.28
-32.16
-33.46
-35.54
-38.64
-42.66
-47.09
-51.00
-53.16
-52.41
-47.95
-39.65
-28.14
-14.65
-0.67
12.41
23.57
32.24
38.29
41.86
43.25
42.86
41.18
38.76
36.14
33.75
31.76
30.10
28.46
26.50
23.96
20.78
17.06
12.99
8.72
4.28
-0.42
-5.64
-11.71
-18.85
-26.93
-35.35
-42.92
-48.14
-49.66
-46.71
-39.47
-28.96
-16.78
-4.59
6.23
14.77
20.50
23.24
23.08
20.51
16.45
12.18
9.07
8.19
9.96
14.14
20.00
26.67
33.45
39.95
46.00
51.54
56.44
60.41
63.10
64.17
63.48
61.21
57.91
54.40
51.59
50.33
51.20
54.40
59.69
66.32
73.02
78.23
80.32
78.39
72.30
62.87
51.67
40.59
31.34
24.99
21.67
20.22
18.52
13.56
2.42
-16.50
-42.71
-73.32
-104.15
-131.10
-151.65
-164.53
-170.28
-170.19
-165.65
-157.91
-148.17
-137.81
-128.25
-121.16
-115.81
-111.35
-106.38
-99.63
-90.49
-78.97
-65.81
-52.21
-40.77
-30.58
-22.05
-15.35
-10.79
-8.85
-9.61
-13.24
-19.99
-31.97
-45.88
-61.04
-77.41
-95.78
-117.30
-141.40
-166.72
-191.47
-216.46
-235.73
-247.20
-249.77
-243.50
-229.38
-207.32
-178.72
-128.41
-85.45
-47.63
-13.61
20.23
58.31
103.96
160.13
225.28
292.83
350.95
395.80
423.75
434.87
431.95
403.73
349.35
280.37
212.55
152.69
104.82
66.99
37.19
14.04
-4.76
-18.73
-27.58
-32.81
-38.35
-44.16
-50.56
-57.42
-65.26
-72.29
-77.15
-79.64
-81.15
-84.15
-88.11
-91.39
-91.56
-86.86
-77.05
-62.50
-43.92
-22.65
-0.54
21.53
42.98
63.22
81.39
96.57
104.49
102.44
91.72
76.65
61.01
46.30
32.43
18.88
5.65
-7.01
-17.86
-25.80
-30.58
-32.71
-32.94
-31.91
-30.88
-29.75
-28.70
-27.50
-25.89
-24.04
-22.51
-21.74
-21.90
-22.75
-23.73
-24.54
-24.82
-24.49
-24.10
-24.51
-26.14
-29.19
-33.43
-38.27
-43.26
-47.95
-52.15
-56.02
-59.95
-64.34
-69.35
-74.71
-79.58
-82.83
-83.08
-79.15
-70.44
-57.23
-40.69
-22.64
-5.12
10.02
21.36
28.18
30.51
29.10
25.20
20.30
15.71
12.44
11.03
11.64
14.21
18.65
24.82
32.45
40.99
49.61
57.39
63.70
68.32
71.44
73.29
73.97
73.56
72.67
72.93
76.80
86.68
103.37
124.94
146.67
162.46
166.95
157.46
134.61
101.46
61.84
18.90
-25.26
-68.88
-109.48
-143.26
-165.68
-172.86
-162.96
-136.88
-97.77
-49.87
2.52
55.39
104.73
146.11
174.87
187.43
182.72
162.91
132.99
99.36
68.26
44.64
31.65
30.41
40.47
60.09
86.56
116.56
146.82
174.93
199.71
221.08
238.93
252.68
260.88
261.38
251.99
231.63
201.23
163.88
123.96
84.54
47.48
13.37
-17.88
-46.52
-72.47
-95.00
-113.18
-126.38
-136.83
-146.54
-155.92
-163.86
-169.07
-171.47
-172.33
-173.73
-177.49
-187.84
-206.13
-229.67
-252.87
-270.80
-281.52
-286.19
-287.85
-289.55
-297.82
-316.02
-342.62
-372.33
-399.67
-421.22
-435.32
-441.34
-412.14
-336.16
-223.71
-101.90
4.48
84.35
138.65
173.99
196.28
211.82
218.09
211.70
192.41
164.20
132.69
102.57
78.71
64.52
61.72
66.18
73.43
80.77
87.43
92.56
94.68
92.88
88.24
84.56
84.26
89.08
98.91
111.63
123.31
130.66
132.68
130.59
126.53
120.36
110.82
96.81
79.87
61.88
46.47
37.17
35.78
41.70
51.77
61.84
67.40
66.08
56.96
41.05
20.69
-1.12
-21.56
-38.73
-52.03
-61.84
-68.89
-73.75
-76.30
-76.11
-73.17
-68.19
-62.52
-57.65
-54.33
-52.28
-50.57
-48.01
-44.05
-39.18
-34.55
-31.22
-29.75
-28.96
-27.29
-23.64
-17.86
-10.93
-4.35
0.66
3.85
5.71
6.94
7.68
7.22
4.67
-0.34
-7.10
-13.88
-18.76
-20.64
-19.78
-17.73
-16.36
-16.80
-18.94
-21.68
-23.67
-24.19
-23.72
-23.82
-26.49
-33.32
-44.85
-60.49
-78.61
-96.76
-112.00
-121.35
-122.42
-113.71
-94.94
-67.04
-31.90
7.25
45.44
77.69
100.44
112.34
114.44
109.58
101.39
93.11
86.92
83.88
84.33
88.22
95.22
104.72
115.72
126.93
136.96
144.59
149.06
150.27
148.58
144.47
138.36
130.50
121.00
109.94
97.36
83.38
68.25
52.38
36.32
20.72
6.21
-6.79
-18.24
-28.54
-38.37
-48.41
-59.05
-70.16
-81.09
-90.56
-97.11
-99.44
-96.95
-90.12
-80.50
-70.28
-61.54
-55.55
-52.47
-51.57
-51.82
-52.48
-53.31
-54.37
-55.60
-56.49
-56.20
-53.86
-49.11
-42.38
-34.73
-27.40
-21.27
-16.57
-12.81
-9.22
-5.08
-0.12
5.52
11.44
17.20
22.40
26.63
29.32
29.70
27.13
21.42
13.03
2.95
-7.71
-18.14
-27.94
-36.87
-44.48
-49.74
-51.26
-47.73
-38.58
-24.46
-7.15
10.79
26.67
38.21
43.91
43.23
36.60
25.26
11.05
-3.99
-18.09
-29.93
-38.75
-44.21
-46.28
-45.20
-41.42
-35.62
-28.54
-20.82
-12.82
-4.80
2.91
9.50
13.63
13.75
8.74
-1.53
-15.85
-31.96
-47.21
-59.32
-66.95
-69.83
-68.51
-63.96
-57.08
-48.54
-38.65
-27.58
-15.56
-2.95
9.83
22.32
34.31
45.94
57.60
69.74
82.54
95.61
107.82
117.61
123.39
124.29
120.61
113.88
106.36
100.21
96.61
95.33
94.96
93.60
89.56
82.02
71.06
57.43
41.98
25.38
7.99
-10.07
-28.60
-47.34
-65.91
-83.92
-101.01
-116.69
-130.28
-140.88
-147.65
-150.10
-148.37
-143.22
-135.75
-126.94
-117.38
-107.29
-96.63
-85.53
-74.31
-63.40
-53.13
-43.67
-34.99
-27.14
-20.36
-15.09
-11.80
-10.70
-11.58
-13.78
-16.33
-18.30
-19.07
-18.53
-17.04
-15.30
-14.07
-13.87
-14.90
-16.92
-19.38
-21.61
-23.03
-23.31
-22.51
-20.91
-18.87
-16.71
-14.59
-12.55
-10.55
-8.47
-6.06
-2.91
1.56
7.93
16.57
27.38
39.74
52.65
64.92
75.51
83.67
88.93
91.02
89.88
85.69
78.98
70.66
61.89
53.86
47.39
42.82
39.98
38.40
37.54
36.99
36.44
35.59
34.06
31.41
27.25
21.43
14.10
5.65
-3.42
-12.66
-21.70
-30.29
-38.23
-45.48
-52.13
-58.40
-64.52
-70.40
-75.43
-78.51
-78.33
-73.92
-65.16
-52.92
-38.82
-24.63
-11.71
-0.64
8.58
16.26
22.60
27.54
30.85
32.45
32.58
32.07
31.91
32.84
34.99
37.97
40.98
43.15
43.88
42.99
40.99
38.66
36.64
35.10
33.84
32.43
30.46
27.74
24.24
20.53
17.05
13.82
10.46
6.49
1.74
-3.57
-8.90
-13.53
-15.39
-12.94
-6.00
3.99
14.82
24.53
32.01
36.96
39.69
43.47
50.69
61.38
73.06
82.60
88.10
89.47
87.83
84.73
86.01
95.99
115.28
140.51
167.01
191.42
212.52
230.41
245.70
264.66
291.94
327.93
368.45
408.15
443.77
474.94
502.87
493.10
425.64
304.61
158.45
19.61
-92.88
-174.95
-231.11
-269.13
-296.80
-314.34
-320.44
-315.05
-300.91
-281.93
-261.35
-241.28
-223.33
-208.75
-193.99
-176.09
-155.29
-135.46
-120.39
-113.33
-114.25
-120.67
-129.27
-134.62
-133.16
-124.81
-112.57
-100.03
-89.24
-80.30
-72.14
-63.62
-53.17
-40.30
-26.30
-14.43
-7.97
-8.24
-14.44
-24.30
-35.22
-44.84
-51.66
-55.39
-56.53
-56.57
-55.21
-52.51
-49.03
-44.46
-40.46
-37.93
-36.70
-35.82
-33.90
-29.76
-23.59
-16.60
-10.66
-7.99
-10.11
-17.52
-29.24
-42.81
-53.68
-57.52
-51.42
-35.24
-12.12
12.79
34.17
48.00
53.16
51.95
47.73
43.09
38.93
34.72
29.76
24.13
18.78
15.06
13.96
15.35
18.30
21.47
23.58
23.69
21.18
15.58
6.97
-3.81
-15.36
-25.86
-33.73
-38.13
-39.41
-38.09
-34.86
-30.10
-23.79
-15.95
-6.91
2.55
11.50
19.07
25.16
30.24
35.10
40.46
46.54
52.85
58.33
61.66
61.75
58.19
51.43
42.62
33.10
23.89
15.32
7.13
-1.10
-9.40
-17.18
-23.31
-26.71
-26.86
-24.17
-19.87
-15.65
-12.95
-12.46
-13.93
-16.25
-18.01
-18.21
-16.60
-13.96
-11.66
-11.10
-13.22
-18.51
-27.01
-38.20
-50.76
-62.11
-68.62
-66.68
-54.50
-33.02
-7.12
17.21
35.14
45.05
48.83
50.20
52.25
55.39
57.60
55.99
48.92
37.12
23.28
10.54
0.89
-5.35
-9.14
-11.78
-13.91
-15.10
-14.53
-11.78
-7.47
-3.31
-1.41
-3.35
-9.44
-18.49
-28.35
-36.76
-42.34
-45.06
-45.98
-46.48
-47.44
-48.83
-49.77
-49.19
-46.44
-41.64
-35.62
-29.51
-24.33
-20.64
-18.54
-17.60
-16.98
-15.36
-11.26
-3.47
8.50
23.96
40.84
56.11
66.64
70.22
66.47
56.78
43.67
29.86
17.33
6.95
-1.28
-7.73
-12.56
-15.45
-15.98
-14.02
-10.09
-5.20
-0.51
3.23
6.10
7.55
7.91
7.58
6.73
5.09
2.02
-3.07
-10.38
-19.39
-29.02
-37.69
-44.09
-47.52
-48.05
-46.31
-43.27
-39.98
-37.39
-36.25
-36.79
-38.71
-41.18
-42.98
-42.87
-40.07
-34.59
-27.25
-19.35
-12.04
-5.94
-0.92
3.83
9.27
15.99
23.78
31.61
37.99
41.62
41.88
39.11
34.39
29.01
23.94
19.57
15.78
12.33
9.13
6.39
4.47
3.55
3.44
3.55
3.05
1.25
-2.07
-6.62
-11.70
-16.54
-20.69
-24.14
-27.38
-31.07
-35.81
-41.85
-48.95
-56.32
-62.75
-66.73
-66.83
-62.07
-52.26
-38.14
-21.29
-3.67
12.91
27.11
38.32
46.43
51.66
54.35
54.94
53.95
52.04
49.87
48.06
46.99
46.72
46.99
47.38
47.43
46.77
45.24
42.86
39.84
36.44
32.88
29.20
25.28
20.86
15.69
9.75
3.29
-3.18
-9.07
-13.95
-17.68
-20.49
-22.86
-25.35
-28.54
-32.87
-38.51
-45.17
-51.96
-57.42
-59.76
-57.44
-49.65
-36.73
-20.13
-1.98
15.48
30.50
42.16
50.31
55.37
57.99
58.76
58.20
56.72
54.75
52.73
51.08
50.07
49.75
49.86
49.99
49.68
48.56
46.51
43.65
40.33
36.91
33.62
30.39
26.87
22.59
17.17
10.62
3.39
-3.78
-10.14
-15.26
-19.11
-22.05
-24.67
-27.55
-31.26
-36.17
-42.38
-49.47
-56.39
-61.51
-63.01
-59.45
-50.40
-36.60
-19.89
-2.61
13.08
25.72
34.78
40.43
43.22
43.78
42.62
40.20
37.07
33.96
31.63
30.68
31.28
33.04
35.12
36.58
36.81
35.69
33.69
31.51
29.72
28.39
27.09
25.09
21.71
16.78
10.69
4.34
-1.31
-5.56
-8.31
-9.94
-11.15
-12.69
-15.13
-18.77
-23.50
-28.65
-32.77
-33.68
-28.93
-16.63
3.46
29.15
55.88
77.87
90.02
89.75
77.99
58.81
37.74
19.57
6.78
-0.95
-6.04
-11.57
-20.12
-32.90
-49.52
-68.16
-85.70
-97.74
-98.98
-84.40
-51.00
0.45
64.74
133.09
195.12
241.53
266.44
268.41
249.75
214.80
168.09
113.33
53.88
-7.17
-66.40
-119.76
-162.84
-192.21
-206.95
-209.34
-204.19
-196.16
-189.02
-184.53
-181.83
-177.58
-167.23
-147.05
-115.44
-73.48
-22.97
32.02
85.32
130.24
161.85
178.22
180.14
170.49
153.16
134.25
118.42
107.47
101.05
98.58
100.10
105.80
115.65
115.55
98.86
70.29
40.92
17.91
1.46
-12.31
-28.68
-51.78
-82.98
-118.13
-151.21
-177.40
-194.50
-202.76
-204.07
-201.33
-196.67
-190.39
-179.38
-160.61
-133.69
-101.44
-68.95
-39.09
-14.07
5.57
20.93
34.78
48.94
62.80
73.72
78.95
77.25
69.25
57.45
45.12
35.31
29.34
26.34
24.28
21.52
17.84
14.10
11.71
11.78
13.80
16.75
19.03
19.26
16.90
12.50
7.28
2.60
-0.59
-2.12
-2.49
-2.69
-3.72
-6.02
-9.34
-12.89
-15.70
-17.00
-16.55
-14.55
-11.62
-8.65
-6.54
-6.10
-7.89
-11.86
-17.09
-21.74
-23.41
-19.97
-10.47
4.27
21.52
37.00
45.61
42.58
24.58
-9.08
-55.79
-109.69
-162.79
-206.75
-234.95
-243.91
-233.82
-207.88
-171.11
-129.10
-86.95
-48.66
-16.75
7.88
25.82
38.67
48.47
56.92
65.10
73.44
81.91
90.25
98.01
104.47
108.70
109.69
106.78
99.89
89.59
76.94
63.15
49.24
35.74
22.69
9.80
-3.18
-15.97
-27.57
-36.31
-40.42
-38.79
-31.50
-19.92
-6.19
7.57
19.90
30.20
38.46
44.68
48.58
49.61
47.38
42.00
34.32
25.75
17.74
11.32
6.72
3.50
0.86
-1.86
-4.91
-8.09
-10.98
-13.22
-14.63
-15.29
-15.35
-14.97
-14.31
-13.62
-13.25
-13.59
-14.92
-17.28
-20.45
-24.11
-27.94
-31.71
-35.31
-38.70
-41.86
-44.80
-47.36
-49.11
-49.27
-46.71
-40.30
-29.26
-13.53
6.23
28.69
52.30
75.50
97.00
115.87
131.51
143.59
152.09
157.19
159.28
158.92
156.71
153.38
149.67
146.25
143.54
141.58
139.96
138.02
135.15
131.08
125.95
120.16
114.06
107.61
100.46
92.16
82.61
72.47
63.24
56.95
55.39
59.40
68.21
79.37
89.14
93.46
89.06
74.51
50.61
20.16
-12.85
-44.17
-70.14
-88.42
-98.63
-102.67
-104.57
-109.43
-121.80
-143.85
-174.18
-208.07
-238.94
-260.60
-269.28
-264.35
-247.87
-223.26
-194.02
-163.10
-132.74
-104.72
-80.45
-60.86
-46.14
-35.58
-27.72
-20.95
-14.21
-7.42
-1.52
2.05
1.99
-2.37
-10.60
-21.55
-33.99
-47.14
-60.71
-74.60
-88.45
-101.49
-112.97
-122.11
-128.89
-134.50
-141.16
-151.03
-165.18
-182.78
-201.18
-217.08
-226.79
-227.64
-219.04
-202.41
-180.28
-155.28
-129.25
-102.95
-76.80
-50.03
-21.65
8.65
39.98
70.42
97.37
118.18
134.56
145.12
149.38
149.91
151.24
156.77
166.89
179.34
190.73
198.19
199.74
195.66
187.51
176.92
164.69
150.87
135.06
116.91
96.80
75.54
55.02
37.28
23.51
13.76
7.38
3.88
3.05
5.04
9.19
14.24
18.48
20.35
19.26
16.04
12.45
10.24
10.68
13.59
17.68
21.00
21.42
17.13
7.03
-8.93
-29.71
-52.57
-73.84
-89.35
-95.40
-89.93
-73.36
-48.73
-19.77
6.55
25.86
36.95
41.39
42.17
42.07
42.62
44.02
45.68
46.68
46.68
45.22
41.65
35.40
26.47
15.77
4.95
-4.37
-11.50
-16.52
-20.45
-24.31
-28.13
-30.75
-30.34
-25.62
-16.91
-6.39
3.14
9.16
10.63
8.22
3.76
-0.98
-5.05
-8.54
-12.42
-17.04
-22.30
-27.62
-32.20
-35.36
-36.73
-36.23
-33.60
-29.53
-24.59
-19.50
-14.92
-11.29
-8.74
-6.97
-5.38
-3.19
0.28
5.49
12.29
19.94
27.20
32.86
36.24
37.36
36.93
35.75
34.25
32.20
28.87
23.62
16.54
8.58
1.23
-4.11
-6.82
-7.16
-5.91
-3.89
-1.42
1.53
5.11
9.15
13.03
15.92
17.19
16.78
15.13
12.85
10.23
7.09
2.87
-2.86
-10.08
-18.13
-25.80
-31.78
-35.21
-36.00
-34.75
-32.40
-29.79
-27.34
-25.04
-22.71
-20.34
-18.20
-16.83
-16.53
-17.09
-17.89
-18.16
-17.34
-15.28
-12.19
-8.75
-5.88
-4.24
-3.94
-4.46
-4.91
-4.39
-2.12
2.36
8.84
16.34
23.58
29.34
32.45
31.77
26.38
16.42
3.78
-8.44
-16.76
-18.14
-10.12
7.47
32.11
57.43
75.25
80.63
74.47
61.40
46.07
31.27
17.95
6.37
-2.96
-8.81
-9.97
-7.06
-3.52
-4.64
-15.32
-37.80
-70.21
-107.35
-142.53
-169.38
-184.57
-188.99
-186.50
-181.62
-177.57
-175.53
-175.06
-174.46
-171.69
-165.26
-154.41
-138.77
-118.14
-92.55
-62.19
-29.23
3.63
34.11
60.73
82.84
100.50
114.11
123.94
129.99
131.98
130.87
127.63
122.46
114.77
103.99
90.29
74.64
58.45
42.93
30.97
24.19
22.08
22.33
22.52
21.26
18.26
13.97
9.21
8.45
15.41
31.16
53.92
80.78
109.24
137.45
164.01
187.92
212.88
241.79
274.57
308.22
339.33
366.08
388.32
406.80
395.90
343.12
255.47
155.65
64.92
-7.21
-61.06
-101.02
-131.59
-155.91
-171.58
-176.94
-173.66
-166.70
-161.04
-159.20
-160.92
-164.39
-167.57
-165.93
-157.00
-141.59
-123.16
-105.08
-89.26
-76.28
-66.31
-59.38
-53.21
-45.72
-35.51
-23.83
-12.45
-3.17
2.61
3.90
0.76
-4.66
-9.80
-13.00
-14.15
-14.01
-13.53
-13.35
-13.79
-14.55
-14.60
-12.98
-9.48
-4.75
0.36
5.21
9.58
13.00
15.12
15.75
14.83
12.37
8.31
2.77
-3.64
-10.08
-16.39
-22.61
-28.82
-35.13
-41.85
-49.67
-59.19
-70.54
-79.08
-80.99
-74.90
-62.49
-46.68
-30.05
-14.64
-1.73
8.21
15.19
19.08
20.05
18.68
15.37
10.99
6.10
1.35
-2.51
-5.03
-6.45
-7.34
-8.21
-9.41
-10.99
-13.03
-15.24
-15.78
-13.72
-9.07
-2.56
4.63
11.03
15.91
17.62
15.01
8.35
-0.71
-9.94
-17.41
-22.18
-24.31
-24.65
-24.51
-24.83
-25.94
-27.57
-28.75
-28.03
-23.99
-15.87
-4.15
9.32
22.19
32.36
38.59
40.98
40.52
38.56
36.14
33.74
31.26
28.69
26.25
24.29
23.17
22.92
23.28
23.70
23.74
22.92
21.43
19.94
19.15
19.37
20.18
20.75
20.07
17.39
12.59
6.33
-0.26
-5.99
-9.96
-11.92
-11.93
-10.63
-9.04
-8.23
-8.95
-11.38
-15.16
-19.59
-24.11
-27.92
-30.40
-31.01
-29.34
-25.08
-18.28
-9.50
1.10
11.14
19.14
24.98
29.28
32.58
34.58
34.33
30.94
24.37
15.63
6.85
-0.02
-4.09
-5.69
-6.04
-6.32
-7.12
-8.33
-9.68
-10.78
-11.76
-13.15
-15.39
-18.60
-22.26
-25.19
-25.84
-23.13
-16.89
-8.53
-0.86
2.96
0.55
-8.41
-21.99
-36.75
-49.17
-56.67
-58.30
-55.14
-48.05
-38.40
-27.44
-16.16
-5.32
4.43
12.67
19.10
23.54
26.01
26.57
25.66
23.96
22.18
20.67
19.35
17.76
15.44
12.34
8.84
5.68
3.54
2.70
2.85
3.27
3.13
1.91
-0.37
-3.30
-6.28
-8.87
-10.94
-12.69
-14.50
-16.64
-19.20
-21.92
-24.45
-26.43
-27.72
-28.43
-28.89
-29.54
-30.78
-32.76
-35.31
-37.82
-39.40
-39.06
-35.98
-29.82
-20.81
-9.77
2.14
13.69
23.87
32.05
38.04
41.95
44.06
44.67
44.09
42.63
40.60
38.40
36.41
34.94
34.10
33.84
33.95
34.19
34.36
34.35
34.02
33.24
31.83
29.64
26.64
22.98
18.90
14.67
10.42
6.15
1.76
-2.85
-7.69
-12.71
-17.76
-22.74
-27.54
-32.09
-36.41
-40.63
-44.91
-49.35
-53.78
-57.72
-60.34
-60.70
-58.11
-52.32
-43.71
-33.18
-21.85
-10.81
-0.85
7.58
14.35
19.47
23.06
25.22
26.09
25.84
24.78
23.29
21.82
20.70
20.15
20.14
20.49
20.93
21.15
20.96
20.25
19.04
17.40
15.43
13.21
10.74
7.96
4.80
1.24
-2.63
-6.58
-10.28
-13.42
-15.87
-17.68
-19.16
-20.70
-22.76
-25.65
-29.44
-33.85
-38.28
-41.83
-43.55
-42.70
-38.93
-32.47
-24.03
-14.68
-5.45
2.81
9.61
14.81
18.42
20.60
21.49
21.27
20.14
18.41
16.45
14.62
13.23
12.46
12.31
12.64
13.22
13.78
14.04
13.84
13.07
11.74
9.94
7.77
5.32
2.66
-0.19
-3.20
-6.29
-9.31
-12.10
-14.51
-16.46
-17.99
-19.23
-20.40
-21.78
-23.65
-26.20
-29.36
-32.78
-35.74
-37.34
-36.69
-33.23
-26.89
-18.13
-7.81
2.99
13.21
22.00
28.82
33.49
36.09
36.95
36.50
35.24
33.64
32.13
31.00
30.35
30.12
30.15
30.26
30.34
30.41
30.46
30.48
30.31
29.78
28.71
27.04
24.80
22.09
19.00
15.65
12.17
8.79
5.74
3.22
1.29
-0.19
-1.45
-2.83
-4.56
-6.77
-9.45
-12.38
-15.20
-17.39
-18.32
-17.46
-14.46
-9.37
-2.67
4.87
12.37
19.06
24.43
28.28
30.59
31.47
31.04
29.46
27.01
24.06
21.14
18.75
17.29
16.81
17.09
17.61
17.81
17.31
15.98
14.09
12.03
10.18
8.71
7.48
6.15
4.33
1.80
-1.45
-5.12
-8.81
-12.11
-14.81
-16.92
-18.65
-20.37
-22.42
-25.01
-28.12
-31.36
-34.08
-35.48
-34.78
-31.57
-25.89
-18.33
-9.83
-1.41
6.14
12.39
17.25
20.84
23.27
24.58
24.78
23.91
22.20
20.05
17.92
16.25
15.28
15.07
15.45
16.18
16.97
17.53
17.65
17.23
16.23
14.75
12.87
10.68
8.22
5.49
2.48
-0.77
-4.11
-7.40
-10.45
-13.16
-15.52
-17.66
-19.80
-22.20
-25.09
-28.51
-32.30
-35.98
-38.85
-40.08
-39.01
-35.31
-29.20
-21.36
-12.76
-4.45
2.78
8.47
12.55
15.20
16.68
17.27
17.20
16.66
15.87
15.00
14.22
13.61
13.14
12.77
12.40
11.99
11.55
11.10
10.65
10.15
9.50
8.59
7.36
5.82
4.05
2.19
0.36
-1.35
-2.93
-4.41
-5.89
-7.41
-9.00
-10.66
-12.33
-14.00
-15.70
-17.56
-19.79
-22.54
-25.76
-29.09
-31.79
-32.97
-31.84
-27.99
-21.63
-13.49
-4.64
3.84
11.11
16.76
20.67
23.00
24.00
23.94
23.13
21.90
20.57
19.44
18.69
18.40
18.48
18.78
19.10
19.27
19.15
18.73
18.03
17.14
16.12
14.99
13.70
12.14
10.18
7.73
4.84
1.71
-1.38
-4.13
-6.39
-8.15
-9.58
-10.97
-12.61
-14.70
-17.34
-20.49
-24.06
-27.81
-31.36
-34.17
-35.52
-34.78
-31.59
-26.06
-18.81
-10.74
-2.84
4.17
9.89
14.24
17.27
19.10
19.82
19.58
18.63
17.33
16.11
15.31
15.15
15.65
16.64
17.81
18.81
19.33
19.17
18.33
17.00
15.40
13.76
12.14
10.49
8.67
6.56
4.12
1.38
-1.54
-4.54
-7.48
-10.25
-12.72
-14.86
-16.72
-18.49
-20.43
-22.77
-25.62
-28.88
-32.27
-35.26
-37.24
-37.55
-35.69
-31.48
-25.17
-17.46
-9.26
-1.50
5.19
10.55
14.68
17.78
20.03
21.44
21.97
21.61
20.57
19.23
18.08
17.46
17.51
18.02
18.65
19.00
18.85
18.19
17.19
16.08
14.96
13.81
12.45
10.70
8.48
5.86
2.99
0.02
-2.94
-5.89
-8.81
-11.66
-14.30
-16.62
-18.59
-20.31
-22.04
-24.08
-26.64
-29.75
-33.19
-36.44
-38.79
-39.47
-37.86
-33.70
-27.27
-19.24
-10.62
-2.41
4.60
10.04
13.88
16.35
17.77
18.43
18.55
18.26
17.70
17.01
16.34
15.83
15.59
15.63
15.90
16.24
16.50
16.53
16.21
15.52
14.49
13.15
11.58
9.82
7.91
5.84
3.59
1.14
-1.50
-4.28
-7.06
-9.66
-11.92
-13.72
-15.10
-16.26
-17.53
-19.27
-21.74
-24.98
-28.73
-32.47
-35.47
-36.99
-36.41
-33.45
-28.26
-21.39
-13.65
-5.92
1.16
7.19
12.08
15.91
18.76
20.68
21.70
21.81
21.16
19.98
18.62
17.48
16.87
16.94
17.63
18.65
19.65
20.31
20.42
19.96
19.01
17.68
16.00
14.00
11.69
9.14
6.42
3.61
0.73
-2.23
-5.28
-8.38
-11.40
-14.18
-16.59
-18.60
-20.31
-21.93
-23.71
-25.89
-28.59
-31.72
-34.96
-37.67
-39.09
-38.47
-35.36
-29.78
-22.28
-13.80
-5.39
2.08
8.13
12.65
15.85
18.03
19.45
20.30
20.70
20.76
20.59
20.31
20.05
19.88
19.86
20.00
20.27
20.62
20.93
21.09
20.98
20.44
19.35
17.66
15.41
12.74
9.88
7.03
4.30
1.74
-0.73
-3.22
-5.77
-8.37
-10.95
-13.40
-15.66
-17.74
-19.71
-21.73
-23.99
-26.65
-29.75
-33.05
-36.00
-37.83
-37.74
-35.21
-30.19
-23.18
-15.09
-6.98
0.27
6.18
10.68
14.02
16.50
18.35
19.62
20.25
20.24
19.71
18.97
18.40
18.30
18.77
19.66
20.67
21.48
21.84
21.70
21.10
20.14
18.89
17.33
15.44
13.18
10.62
7.86
5.03
2.18
-0.66
-3.52
-6.38
-9.14
-11.65
-13.79
-15.57
-17.18
-18.94
-21.18
-24.07
-27.46
-30.87
-33.52
-34.55
-33.33
-29.64
-23.82
-16.63
-9.00
-1.72
4.68
9.95
14.03
16.90
18.53
18.97
18.38
17.09
15.50
14.02
12.92
12.32
12.21
12.51
13.08
13.74
14.29
14.50
14.19
13.28
11.81
9.88
7.63
5.17
2.56
-0.16
-2.94
-5.72
-8.40
-10.95
-13.37
-15.65
-17.83
-19.91
-21.91
-23.94
-26.11
-28.56
-31.29
-34.07
-36.36
-37.40
-36.48
-33.14
-27.40
-19.79
-11.18
-2.56
5.27
11.78
16.76
20.24
22.35
23.27
23.26
22.59
21.61
20.65
19.93
19.58
19.55
19.70
19.85
19.90
19.77
19.44
18.90
18.13
17.05
15.60
13.70
11.30
8.44
5.17
1.59
-2.15
-5.91
-9.52
-12.82
-15.76
-18.35
-20.71
-23.01
-25.41
-28.05
-31.00
-34.22
-37.54
-40.59
-42.82
-43.59
-42.33
-38.80
-33.15
-25.94
-17.99
-10.08
-2.84
3.37
8.42
12.31
15.10
16.88
17.74
17.83
17.38
16.72
16.23
16.18
16.73
17.80
19.13
20.34
21.11
21.28
20.86
20.00
18.86
17.54
16.07
14.39
12.42
10.11
7.43
4.44
1.27
-1.87
-4.76
-7.21
-9.18
-10.75
-12.16
-13.73
-15.77
-18.49
-21.89
-25.80
-29.75
-33.09
-35.04
-34.89
-32.25
-27.19
-20.28
-12.39
-4.51
2.63
8.56
13.17
16.49
18.65
19.78
20.03
19.61
18.81
17.96
17.31
17.03
17.12
17.54
18.17
18.87
19.46
19.74
19.58
18.90
17.76
16.30
14.70
13.10
11.50
9.82
7.86
5.47
2.58
-0.72
-4.22
-7.64
-10.72
-13.33
-15.52
-17.48
-19.46
-21.71
-24.42
-27.61
-31.17
-34.71
-37.61
-39.07
-38.34
-34.97
-29.06
-21.25
-12.60
-4.19
3.15
9.02
13.43
16.60
18.72
19.90
20.17
19.62
18.55
17.39
16.64
16.62
17.37
18.62
19.93
20.88
21.25
21.03
20.37
19.42
18.18
16.57
14.53
12.10
9.50
7.02
4.84
2.92
1.02
-1.18
-3.86
-6.93
-10.07
-12.92
-15.21
-16.97
-18.43
-19.93
-21.80
-24.21
-27.16
-30.43
-33.59
-35.95
-36.67
-35.03
-30.65
-23.73
-15.04
-5.73
3.10
10.63
16.51
20.78
23.69
25.50
26.40
26.51
26.00
25.10
24.11
23.28
22.81
22.70
22.83
22.95
22.85
22.37
21.47
20.19
18.61
16.80
14.76
12.48
9.96
7.22
4.33
1.37
-1.63
-4.66
-7.71
-10.78
-13.73
-16.39
-18.62
-20.37
-21.84
-23.38
-25.42
-28.25
-31.85
-35.84
-39.52
-42.05
-42.66
-40.86
-36.52
-29.93
-21.80
-13.06
-4.67
2.62
8.40
12.66
15.66
17.73
19.15
20.11
20.66
20.92
21.02
21.13
21.40
21.84
22.37
22.84
23.13
23.20
23.03
22.64
21.96
20.91
19.42
17.49
15.23
12.79
10.34
7.96
5.64
3.35
1.02
-1.35
-3.76
-6.17
-8.55
-10.85
-13.00
-14.99
-16.89
-18.88
-21.21
-24.09
-27.53
-31.19
-34.42
-36.38
-36.33
-33.86
-29.05
-22.45
-14.94
-7.41
-0.56
5.21
9.78
13.20
15.61
17.08
17.73
17.69
17.19
16.47
15.80
15.38
15.31
15.61
16.20
16.96
17.71
18.25
18.38
17.98
16.99
15.47
13.57
11.43
9.19
6.91
4.59
2.20
-0.29
-2.85
-5.40
-7.83
-10.10
-12.21
-14.27
-16.40
-18.70
-21.28
-24.11
-27.13
-30.10
-32.59
-34.02
-33.79
-31.43
-26.85
-20.40
-12.81
-4.99
2.22
8.29
13.03
16.56
19.07
20.77
21.76
22.13
21.95
21.41
20.73
20.19
20.00
20.23
20.81
21.53
22.11
22.34
22.02
21.10
19.53
17.37
14.67
11.55
8.22
4.89
1.75
-1.14
-3.86
-6.54
-9.35
-12.31
-15.34
-18.28
-20.99
-23.44
-25.72
-28.04
-30.57
-33.38
-36.29
-38.83
-40.32
-40.05
-37.53
-32.70
-26.02
-18.33
-10.60
-3.62
2.20
6.81
10.38
13.09
15.03
16.20
16.64
16.50
16.09
15.77
15.80
16.27
16.99
17.71
18.21
18.40
18.34
18.13
17.80
17.26
16.38
15.06
13.35
11.41
9.43
7.54
5.68
3.72
1.50
-0.99
-3.60
-6.05
-8.14
-9.81
-11.22
-12.68
-14.52
-16.96
-20.05
-23.61
-27.25
-30.40
-32.44
-32.79
-31.03
-27.09
-21.27
-14.19
-6.72
0.34
6.39
11.17
14.70
17.15
18.68
19.38
19.27
18.44
17.11
15.65
14.45
13.81
13.83
14.38
15.19
15.95
16.43
16.52
16.17
15.44
14.41
13.18
11.86
10.53
9.20
7.80
6.23
4.38
2.23
-0.14
-2.54
-4.73
-6.56
-8.01
-9.24
-10.58
-12.37
-14.86
-18.09
-21.82
-25.62
-28.88
-30.95
-31.26
-29.44
-25.44
-19.57
-12.48
-5.01
1.99
7.87
12.27
15.16
16.73
17.30
17.17
16.58
15.75
14.87
14.13
13.71
13.70
14.09
14.73
15.38
15.79
15.77
15.28
14.37
13.18
11.89
10.57
9.24
7.80
6.10
3.99
1.45
-1.43
-4.38
-7.13
-9.48
-11.35
-12.89
-14.32
-15.89
-17.76
-20.04
-22.73
-25.76
-28.89
-31.68
-33.49
-33.63
-31.59
-27.27
-21.06
-13.74
-6.23
0.69
6.51
11.05
14.32
16.48
17.66
18.07
17.91
17.45
16.93
16.56
16.46
16.64
17.03
17.47
17.83
17.98
17.85
17.42
16.73
15.80
14.66
13.32
11.76
9.98
7.97
5.72
3.21
0.47
-2.42
-5.28
-7.85
-9.96
-11.52
-12.71
-13.82
-15.26
-17.33
-20.10
-23.38
-26.71
-29.47
-30.96
-30.62
-28.14
-23.57
-17.37
-10.29
-3.20
3.09
8.07
11.56
13.71
14.87
15.42
15.69
15.87
16.01
16.07
16.02
15.85
15.63
15.41
15.26
15.18
15.14
15.06
14.86
14.44
13.71
12.59
11.08
9.24
7.20
5.15
3.19
1.35
-0.42
-2.22
-4.14
-6.22
-8.42
-10.68
-12.89
-14.93
-16.74
-18.30
-19.71
-21.24
-23.14
-25.61
-28.54
-31.48
-33.64
-34.18
-32.46
-28.29
-22.05
-14.52
-6.69
0.58
6.72
11.52
15.03
17.43
18.91
19.63
19.72
19.33
18.65
17.90
17.27
16.86
16.69
16.72
16.90
17.20
17.54
17.82
17.85
17.43
16.41
14.76
12.62
10.24
7.90
5.83
4.16
2.84
1.73
0.60
-0.74
-2.41
-4.42
-6.64
-8.88
-10.98
-12.84
-14.48
-16.03
-17.68
-19.65
-22.08
-24.90
-27.75
-30.05
-31.07
-30.19
-27.17
-22.22
-15.97
-9.26
-2.90
2.51
6.70
9.67
11.58
12.69
13.25
13.48
13.50
13.42
13.27
13.12
13.02
13.02
13.16
13.42
13.69
13.88
13.88
13.62
13.05
12.14
10.89
9.34
7.60
5.78
4.04
2.48
1.09
-0.20
-1.52
-2.96
-4.54
-6.20
-7.84
-9.39
-10.85
-12.28
-13.85
-15.71
-17.94
-20.47
-23.03
-25.14
-26.27
-25.88
-23.72
-19.84
-14.69
-8.96
-3.35
1.62
5.70
8.87
11.22
12.84
13.80
14.20
14.18
13.94
13.66
13.42
13.21
13.00
12.77
12.55
12.36
12.16
11.83
11.20
10.18
8.80
7.23
5.67
4.25
2.97
1.71
0.33
-1.26
-3.10
-5.16
-7.34
-9.53
-11.59
-13.37
-14.79
-15.90
-16.87
-17.96
-19.45
-21.51
-24.14
-27.12
-29.98
-32.13
-32.88
-31.66
-28.23
-22.79
-16.04
-8.92
-2.38
2.96
6.95
9.77
11.75
13.12
13.98
14.35
14.26
13.91
13.52
13.29
13.29
13.44
13.59
13.61
13.47
13.18
12.78
12.32
11.78
11.08
10.18
9.03
7.62
6.00
4.26
2.50
0.81
-0.78
-2.32
-3.92
-5.65
-7.52
-9.44
-11.26
-12.84
-14.20
-15.47
-16.94
-18.86
-21.35
-24.32
-27.43
-30.14
-31.90
-32.21
-30.78
-27.58
-22.84
-16.96
-10.51
-4.00
2.07
7.35
11.65
14.90
17.14
18.50
19.15
19.29
19.13
18.84
18.54
18.31
18.18
18.16
18.23
18.33
18.35
18.19
17.77
17.01
15.89
14.42
12.68
10.76
8.77
6.85
5.05
3.39
1.81
0.18
-1.65
-3.77
-6.20
-8.79
-11.31
-13.51
-15.24
-16.50
-17.50
-18.62
-20.22
-22.55
-25.55
-28.83
-31.70
-33.36
-33.14
-30.69
-26.10
-19.88
-12.79
-5.62
1.01
6.74
11.48
15.26
18.17
20.22
21.40
21.68
21.19
20.19
19.10
18.31
18.12
18.56
19.45
20.44
21.14
21.28
20.76
19.62
18.05
16.21
14.25
12.21
10.08
7.78
5.29
2.59
-0.22
-3.03
-5.74
-8.29
-10.65
-12.81
-14.78
-16.65
-18.56
-20.77
-23.48
-26.83
-30.61
-34.32
-37.16
-38.22
-36.80
-32.65
-26.10
-18.00
-9.46
-1.55
5.00
9.91
13.29
15.49
16.88
17.74
18.16
18.15
17.75
17.06
16.29
15.68
15.43
15.59
16.04
16.58
17.01
17.15
16.98
16.47
15.61
14.34
12.57
10.33
7.72
4.96
2.29
-0.18
-2.44
-4.57
-6.63
-8.62
-10.47
-12.15
-13.73
-15.34
-17.21
-19.54
-22.43
-25.80
-29.35
-32.49
-34.44
-34.36
-31.67
-26.32
-18.84
-10.28
-1.83
5.54
11.35
15.57
18.46
20.28
21.24
21.46
21.09
20.40
19.70
19.25
19.13
19.25
19.43
19.51
19.44
19.26
19.02
18.72
18.25
17.47
16.26
14.59
12.52
10.16
7.63
5.02
2.41
-0.18
-2.69
-5.07
-7.26
-9.22
-10.97
-12.59
-14.27
-16.20
-18.61
-21.62
-25.20
-29.06
-32.68
-35.31
-36.17
-34.64
-30.45
-23.85
-15.55
-6.53
2.17
9.73
15.62
19.75
22.22
23.35
23.47
22.96
22.13
21.25
20.49
19.94
19.54
19.24
18.93
18.58
18.19
17.76
17.29
16.71
15.92
14.84
13.41
11.64
9.59
7.37
5.07
2.75
0.43
-1.91
-4.25
-6.55
-8.73
-10.75
-12.58
-14.29
-16.00
-17.89
-20.13
-22.81
-25.87
-29.03
-31.73
-33.25
-32.86
-30.04
-24.70
-17.26
-8.58
0.30
8.39
15.01
19.83
22.94
24.62
25.29
25.29
24.90
24.30
23.63
23.02
22.59
22.44
22.54
22.75
22.86
22.66
22.00
20.89
19.38
17.54
15.46
13.14
10.60
7.86
4.95
1.93
-1.18
-4.28
-7.28
-10.04
-12.43
-14.43
-16.16
-17.85
-19.74
-22.03
-24.75
-27.80
-30.94
-33.88
-36.28
-37.68
-37.56
-35.43
-31.03
-24.49
-16.39
-7.66
0.68
7.86
13.52
17.73
20.78
22.94
24.32
24.92
24.75
23.99
23.03
22.30
22.06
22.31
22.76
23.08
23.08
22.78
22.35
21.92
21.45
20.73
19.51
17.64
15.20
12.43
9.63
7.03
4.71
2.56
0.47
-1.67
-3.86
-6.06
-8.21
-10.32
-12.48
-14.81
-17.39
-20.26
-23.41
-26.79
-30.23
-33.43
-35.87
-36.86
-35.71
-32.02
-25.91
-18.08
-9.57
-1.46
5.51
11.08
15.37
18.63
21.04
22.62
23.30
23.12
22.29
21.22
20.33
19.90
19.95
20.29
20.61
20.62
20.19
19.37
18.32
17.15
15.93
14.57
12.97
11.07
8.91
6.64
4.39
2.22
0.07
-2.19
-4.64
-7.24
-9.83
-12.19
-14.17
-15.77
-17.11
-18.42
-19.92
-21.80
-24.11
-26.73
-29.38
-31.56
-32.71
-32.26
-29.83
-25.38
-19.24
-12.06
-4.66
2.23
8.07
12.60
15.80
17.80
18.80
19.00
18.62
17.89
17.04
16.31
15.86
15.78
16.05
16.51
16.97
17.19
17.00
16.34
15.22
13.77
12.11
10.34
8.51
6.60
4.58
2.37
-0.06
-2.70
-5.50
-8.32
-11.01
-13.44
-15.56
-17.41
-19.15
-20.98
-23.07
-25.52
-28.31
-31.22
-33.82
-35.48
-35.55
-33.55
-29.38
-23.40
-16.35
-9.11
-2.42
3.26
7.80
11.26
13.75
15.34
16.06
15.98
15.30
14.29
13.27
12.53
12.25
12.46
13.05
13.79
14.35
14.48
14.08
13.25
12.22
11.19
10.16
8.98
7.40
5.27
2.69
-0.07
-2.63
-4.74
-6.35
-7.60
-8.72
-9.93
-11.36
-13.09
-15.18
-17.67
-20.55
-23.69
-26.78
-29.34
-30.81
-30.66
-28.60
-24.64
-19.19
-12.89
-6.46
-0.51
4.64
8.88
12.29
14.97
16.98
18.32
19.00
19.12
18.82
18.31
17.81
17.50
17.47
17.75
18.31
19.05
19.81
20.43
20.70
20.49
19.75
18.56
17.09
15.61
14.36
13.40
12.65
11.84
10.62
8.67
5.86
2.22
-1.96
-6.23
-10.11
-13.23
-15.55
-17.45
-19.57
-22.59
-26.94
-32.48
-38.53
-44.04
-47.88
-49.22
-47.70
-43.48
-37.18
-29.65
-21.80
-14.35
-7.78
-2.28
2.13
5.48
7.78
8.98
9.10
8.37
7.20
6.12
5.57
5.69
6.40
7.42
8.51
9.55
10.57
11.65
12.76
13.73
14.28
14.16
13.33
11.94
10.29
8.61
6.97
5.27
3.35
1.11
-1.42
-4.07
-6.63
-8.93
-10.97
-12.82
-14.65
-16.63
-18.87
-21.44
-24.28
-27.21
-29.85
-31.70
-32.24
-31.04
-27.97
-23.22
-17.26
-10.73
-4.28
1.60
6.58
10.50
13.34
15.12
15.94
15.96
15.44
14.66
13.94
13.52
13.55
14.03
14.86
15.83
16.75
17.42
17.74
17.67
17.23
16.46
15.39
14.08
12.56
10.92
9.20
7.43
5.59
3.62
1.48
-0.77
-3.02
-5.08
-6.76
-8.06
-9.11
-10.22
-11.70
-13.77
-16.47
-19.58
-22.70
-25.32
-26.84
-26.78
-24.86
-21.06
-15.71
-9.39
-2.80
3.39
8.69
12.84
15.78
17.56
18.24
17.93
16.78
15.07
13.16
11.47
10.37
10.02
10.39
11.21
12.10
12.67
12.69
12.08
10.96
9.54
7.97
6.34
4.62
2.76
0.72
-1.46
-3.69
-5.89
-8.02
-10.06
-11.99
-13.77
-15.33
-16.67
-17.86
-19.14
-20.79
-23.02
-25.78
-28.68
-30.98
-31.83
-30.55
-26.86
-21.05
-13.87
-6.28
0.84
6.93
11.79
15.48
18.11
19.78
20.54
20.52
19.96
19.21
18.63
18.39
18.46
18.62
18.67
18.46
18.01
17.46
16.87
16.23
15.39
14.19
12.56
10.53
8.28
6.02
3.90
1.96
0.17
-1.60
-3.49
-5.54
-7.75
-10.00
-12.14
-14.04
-15.70
-17.24
-18.91
-20.97
-23.50
-26.32
-28.91
-30.53
-30.40
-28.01
-23.28
-16.66
-9.02
-1.36
5.45
10.94
15.01
17.80
19.54
20.37
20.35
19.61
18.41
17.16
16.27
15.99
16.25
16.76
17.11
16.99
16.33
15.29
14.09
12.86
11.62
10.26
8.69
6.87
4.86
2.72
0.54
-1.69
-3.97
-6.26
-8.50
-10.62
-12.59
-14.41
-16.15
-17.87
-19.61
-21.46
-23.58
-26.12
-29.05
-31.99
-34.18
-34.71
-32.76
-28.03
-20.98
-12.73
-4.65
2.19
7.30
10.79
13.07
14.72
16.18
17.57
18.63
19.02
18.58
17.43
15.92
14.49
13.69
14.01
15.45
17.37
18.67
18.26
15.39
9.94
2.60
-4.81
-9.69
-9.65
-3.55
8.04
22.96
37.94
49.46
53.52
47.24
31.43
10.85
-8.64
-23.19
-31.80
-35.42
-35.82
-34.84
-33.71
-32.90
-32.19
-30.73
-27.09
-19.76
-8.17
6.35
20.58
30.65
33.85
29.68
20.03
8.24
-2.33
-9.65
-13.48
-14.87
-14.99
-14.48
-13.53
-12.62
-12.76
-15.12
-19.84
-25.17
-27.58
-23.23
-10.24
9.51
30.70
46.74
52.88
48.32
36.08
20.95
7.01
-3.92
-12.14
-18.34
-22.68
-24.67
-23.97
-21.25
-18.23
-16.68
-17.15
-19.09
-20.74
-20.41
-17.34
-11.84
-4.75
3.10
11.15
18.96
25.78
30.65
32.72
31.63
27.71
21.86
15.13
8.55
3.10
-0.22
-0.61
2.08
6.81
11.41
13.36
10.96
4.27
-4.74
-13.15
-18.53
-20.11
-19.13
-17.73
-17.24
-17.20
-15.55
-9.91
0.68
15.03
30.32
43.19
51.35
54.52
54.14
52.43
51.25
51.58
52.33
53.52
54.81
55.57
55.15
52.46
45.95
33.93
15.32
-9.32
-36.95
-62.51
-80.33
-86.06
-78.99
-62.63
-43.43
-27.73
-18.72
-15.81
-14.71
-11.63
-5.31
2.12
6.67
4.78
-4.53
-19.13
-34.96
-47.82
-54.90
-54.67
-46.59
-30.80
-8.35
18.26
45.07
67.55
81.98
86.85
83.49
75.54
67.50
63.36
65.47
74.21
87.95
103.36
114.91
116.23
102.43
71.94
27.43
-24.82
-76.82
-121.12
-152.81
-170.04
-174.15
-167.86
-154.07
-135.20
-113.35
-90.43
-68.15
-48.23
-31.88
-20.71
-15.47
-15.72
-19.79
-25.59
-31.21
-35.36
-38.38
-41.39
-47.09
-57.22
-71.49
-87.46
-102.32
-114.53
-124.28
-133.61
-135.31
-124.55
-100.77
-68.15
-32.64
0.16
24.47
40.74
50.13
55.24
57.56
57.88
55.47
50.04
41.85
32.07
22.99
16.66
15.64
20.01
28.10
37.43
46.27
54.00
61.04
68.51
76.88
87.25
99.05
110.56
119.86
126.02
129.30
130.56
130.63
122.51
103.30
75.77
47.28
24.97
12.38
9.11
12.06
17.20
20.91
22.23
21.13
17.28
9.60
-2.87
-19.68
-38.22
-54.18
-63.31
-62.58
-52.67
-37.91
-24.24
-16.20
-15.11
-19.15
-25.00
-29.69
-31.31
-29.83
-26.50
-22.86
-19.59
-16.32
-12.05
-5.87
2.29
11.70
20.77
27.67
31.23
31.60
30.02
28.10
26.85
26.34
25.93
24.79
22.75
19.65
16.13
12.93
10.48
8.62
6.79
4.29
0.66
-4.09
-9.54
-14.76
-18.81
-20.97
-21.11
-19.64
-17.54
-15.86
-15.37
-16.32
-18.31
-20.62
-22.49
-23.18
-22.14
-18.92
-13.34
-5.58
3.59
13.01
21.30
27.27
30.37
30.79
29.31
26.85
24.15
21.59
19.29
17.30
15.65
14.57
14.23
14.67
15.72
17.02
18.20
19.02
19.73
20.46
21.16
21.60
21.41
20.17
17.63
13.74
8.73
3.00
-3.00
-8.85
-14.23
-19.00
-23.28
-27.36
-31.62
-36.41
-41.77
-47.37
-52.31
-55.28
-54.93
-50.29
-41.20
-28.39
-13.34
2.26
16.93
29.73
40.26
48.39
54.04
57.07
57.35
55.03
50.60
44.86
38.82
33.32
28.91
25.73
23.49
21.66
19.64
16.96
13.45
9.26
4.76
0.37
-3.62
-7.11
-10.23
-13.20
-16.24
-19.49
-22.96
-26.52
-30.01
-33.22
-35.98
-38.20
-39.94
-41.46
-43.15
-45.48
-48.68
-52.50
-56.10
-58.12
-57.00
-51.60
-41.62
-27.91
-12.33
2.86
15.64
24.76
29.97
31.81
31.23
29.19
26.51
23.80
21.57
20.25
20.08
21.05
22.78
24.64
26.02
26.50
26.01
24.75
23.00
20.96
18.70
16.16
13.29
10.08
6.57
2.81
-1.10
-5.07
-8.95
-12.54
-15.68
-18.26
-20.36
-22.14
-23.91
-25.96
-28.62
-32.04
-36.09
-40.24
-43.50
-44.68
-42.71
-37.09
-28.16
-17.05
-5.29
5.62
14.65
21.42
25.92
28.35
28.78
27.26
23.97
19.40
14.37
9.84
6.62
4.95
4.54
4.68
4.64
3.97
2.68
1.05
-0.51
-1.76
-2.79
-3.89
-5.45
-7.73
-10.71
-14.08
-17.37
-20.12
-22.06
-23.23
-23.94
-24.64
-25.80
-27.74
-30.61
-34.23
-38.02
-40.95
-41.61
-38.64
-31.22
-19.52
-4.86
10.56
24.44
34.99
41.44
44.01
43.52
40.89
36.84
31.87
26.48
21.24
16.86
13.91
12.57
12.46
12.80
12.71
11.57
9.30
6.35
3.42
1.10
-0.52
-1.86
-3.65
-6.55
-10.71
-15.67
-20.50
-24.22
-26.31
-26.87
-26.62
-26.50
-27.29
-29.39
-32.64
-36.53
-40.25
-42.85
-43.24
-40.44
-33.78
-23.22
-9.64
5.30
19.52
31.13
39.00
42.93
43.51
41.69
38.43
34.38
30.00
25.69
21.90
19.07
17.46
16.97
17.15
17.38
17.11
16.18
14.74
13.14
11.71
10.60
9.67
8.65
7.24
5.25
2.73
-0.09
-2.82
-5.07
-6.53
-7.04
-6.69
-5.66
-4.25
-2.71
-1.25
0.00
1.02
1.96
3.18
5.47
10.07
18.16
30.40
46.58
65.49
85.23
103.60
118.56
128.85
134.23
135.40
133.74
131.06
129.05
128.61
129.21
128.36
122.52
108.29
83.42
47.76
3.71
-44.23
-90.40
-129.52
-158.66
-176.61
-183.80
-182.65
-177.28
-172.33
-171.44
-176.16
-185.64
-198.94
-213.09
-224.08
-229.25
-228.92
-225.87
-223.76
-225.68
-233.36
-249.80
-274.47
-302.90
-328.92
-346.94
-352.42
-342.11
-314.88
-272.63
-223.77
-175.56
-131.41
-91.83
-56.55
-25.18
2.77
27.47
71.40
135.68
202.82
254.81
287.34
305.49
315.63
321.68
324.34
321.57
306.36
275.10
230.31
179.21
130.43
91.69
67.88
59.54
63.01
69.71
73.84
74.92
75.66
78.24
82.52
86.25
86.56
81.58
69.76
52.43
32.91
13.83
-4.09
-20.82
-35.24
-44.58
-45.80
-38.77
-26.06
-12.09
-1.33
3.59
3.67
1.99
1.75
4.15
7.62
9.75
9.43
7.93
7.95
11.87
19.84
29.48
37.28
40.79
40.13
37.99
37.95
42.25
50.45
59.71
66.47
68.33
65.12
58.52
50.89
43.86
37.80
31.98
25.39
17.38
7.85
-2.92
-14.78
-27.64
-41.65
-57.25
-74.18
-90.61
-103.10
-107.69
-101.51
-84.32
-58.73
-29.33
-1.03
22.20
38.14
45.53
43.26
30.93
9.68
-17.30
-45.26
-68.39
-81.95
-84.19
-76.13
-60.47
-40.43
-19.31
-0.06
15.09
25.15
30.64
33.22
34.63
35.77
36.35
35.42
32.37
27.55
22.82
19.26
17.46
17.39
18.58
20.63
23.34
26.58
29.93
32.60
34.04
34.05
33.17
32.36
32.24
32.59
32.44
30.88
26.27
20.47
15.87
14.29
16.17
20.59
25.85
30.27
32.71
32.49
29.60
24.20
17.13
9.91
4.30
1.55
1.68
3.52
5.27
5.64
4.08
1.03
-2.46
-5.40
-7.07
-7.38
-6.34
-4.08
-0.70
3.34
7.35
10.58
12.35
12.22
10.07
5.91
0.08
-6.68
-13.34
-18.70
-21.78
-22.28
-20.79
-18.62
-17.63
-19.02
-22.78
-27.73
-32.02
-33.92
-32.66
-28.70
-23.46
-19.19
-17.65
-19.68
-25.09
-33.07
-42.69
-53.61
-66.35
-78.87
-90.25
-99.50
-105.55
-107.53
-105.05
-98.50
-89.04
-78.31
-67.95
-59.68
-54.59
-53.15
-55.45
-61.18
-69.63
-79.56
-89.24
-96.68
-100.67
-100.81
-97.72
-92.63
-86.81
-81.00
-75.16
-68.70
-60.91
-51.66
-41.09
-29.35
-16.30
-1.66
14.59
31.86
48.88
64.22
76.68
86.13
93.48
100.46
108.41
117.50
126.49
133.24
135.62
132.43
123.97
111.96
99.43
88.98
81.90
78.09
76.44
75.52
73.83
70.27
64.41
57.89
52.70
50.64
53.05
60.67
73.29
89.55
107.27
124.29
141.07
158.14
175.62
193.13
210.03
225.27
237.00
242.62
239.34
227.41
207.09
178.89
144.49
107.60
73.56
47.79
34.32
19.96
-0.06
-22.96
-42.66
-57.12
-69.30
-84.09
-105.39
-134.21
-168.18
-199.71
-222.06
-231.63
-228.68
-216.26
-198.85
-180.94
-165.82
-155.81
-147.62
-138.49
-126.90
-112.53
-95.72
-77.20
-58.04
-39.57
-23.73
-10.20
1.26
10.45
16.75
19.71
19.36
16.41
12.04
7.64
5.27
5.86
9.14
13.85
18.39
21.42
22.41
21.63
19.95
18.85
19.22
21.21
24.16
27.29
29.17
28.93
26.26
21.53
15.80
10.41
6.68
5.44
6.93
10.52
14.98
18.67
20.07
18.30
13.34
6.22
-1.43
-7.84
-11.78
-12.91
-11.66
-8.89
-5.35
-1.59
2.08
5.33
8.06
10.33
12.65
15.96
21.28
29.38
40.34
54.74
72.06
91.60
112.32
132.54
149.75
160.95
163.65
156.53
140.24
116.94
89.30
59.21
27.71
-4.48
-36.02
-64.84
-89.49
-109.01
-123.55
-134.37
-143.70
-153.86
-166.51
-182.15
-200.17
-220.11
-240.12
-256.98
-267.08
-267.78
-258.05
-238.40
-210.63
-177.56
-144.08
-114.22
-90.05
-71.89
-59.16
-50.71
-44.96
-40.01
-24.86
3.58
40.34
77.48
110.13
136.71
156.45
168.22
170.83
163.93
147.24
123.33
97.33
74.79
59.10
50.58
47.03
45.52
44.13
41.85
40.52
43.34
52.28
66.00
80.10
89.00
88.32
76.54
54.60
25.78
-5.06
-33.06
-54.78
-68.59
-74.38
-73.14
-64.87
-53.00
-40.16
-28.01
-17.66
-10.02
-5.56
-4.11
-4.70
-5.84
-6.61
-6.33
-5.08
-3.62
-2.93
-3.59
-5.44
-7.75
-9.59
-10.50
-10.32
-9.42
-8.53
-8.44
-9.73
-12.45
-15.93
-18.82
-19.53
-16.54
-9.22
1.86
15.09
28.53
40.57
50.30
57.45
61.95
63.81
62.96
59.53
54.05
47.27
39.92
32.51
25.06
17.71
10.76
4.48
-1.53
-8.12
-16.07
-25.04
-33.02
-36.84
-33.64
-22.60
-5.79
12.53
27.77
36.90
39.35
36.49
30.37
22.58
13.85
4.61
-4.45
-12.14
-17.26
-19.13
-18.08
-15.31
-12.28
-10.23
-9.66
-10.29
-11.19
-11.28
-9.67
-6.11
-1.20
3.73
6.98
7.05
3.17
-4.38
-14.25
-24.33
-32.33
-36.55
-36.14
-31.29
-23.06
-12.95
-2.46
7.21
15.43
22.10
27.28
31.29
34.45
37.02
39.07
40.45
40.93
40.20
38.13
34.61
29.87
24.44
18.99
14.22
10.78
8.99
8.66
10.36
13.43
16.80
19.44
20.91
21.48
21.96
23.04
24.89
27.00
28.28
27.94
25.82
22.42
18.48
14.64
11.25
8.61
7.18
7.41
9.62
13.54
18.15
21.85
23.16
21.28
16.39
9.47
1.58
-6.63
-15.15
-24.40
-34.75
-45.96
-57.00
-66.40
-72.87
-75.89
-75.70
-73.05
-68.78
-63.31
-56.74
-49.31
-41.90
-35.89
-32.68
-32.94
-36.11
-40.68
-44.61
-46.30
-45.14
-41.50
-35.92
-28.31
-17.71
-2.84
16.42
38.88
61.92
82.27
97.27
106.11
110.08
111.74
113.61
116.12
119.11
122.39
125.80
129.22
132.66
136.18
139.46
141.41
138.21
127.26
107.86
80.41
45.64
4.92
-39.38
-84.46
-127.79
-170.91
-213.96
-255.36
-293.68
-328.87
-361.18
-389.68
-411.80
-424.03
-427.05
-419.81
-400.11
-367.59
-325.36
-278.19
-230.11
-183.49
-114.75
-25.77
62.16
129.09
170.01
189.97
196.32
195.38
191.30
186.14
176.50
161.58
144.24
128.21
115.67
106.89
101.16
96.66
91.03
79.23
60.24
37.89
16.95
1.09
-8.30
-11.25
-9.18
-3.93
1.10
4.80
8.15
12.18
16.65
20.18
22.02
21.83
19.86
15.69
9.66
2.77
-3.75
-8.30
-12.77
-16.28
-17.38
-15.04
-9.55
-2.16
5.41
11.45
14.78
15.11
13.54
11.30
9.28
7.85
6.82
5.79
4.42
2.61
0.40
-1.67
-3.46
-5.14
-6.97
-9.31
-12.54
-16.87
-22.33
-28.71
-35.23
-40.94
-44.61
-44.81
-40.51
-31.42
-18.17
-2.07
15.20
32.15
47.55
60.52
70.86
78.47
83.17
84.89
84.04
81.42
78.13
75.22
73.37
73.71
76.43
80.58
84.78
88.08
90.26
91.60
92.57
93.49
96.14
100.86
106.04
109.42
109.79
107.46
103.70
100.17
98.07
101.12
110.65
124.47
138.24
147.98
151.16
147.04
137.14
124.44
117.01
120.06
133.02
150.77
167.23
177.60
179.14
171.17
131.35
56.91
-33.55
-114.62
-171.63
-201.87
-209.04
-199.99
-183.36
-170.20
-162.91
-162.44
-169.53
-183.68
-202.35
-222.44
-242.30
-252.25
-248.63
-228.85
-194.90
-152.39
-108.16
-67.54
-33.34
-6.06
15.23
29.93
38.68
40.62
34.17
19.23
-1.13
-21.71
-37.44
-45.27
-45.88
-40.32
-30.48
-18.56
-7.17
2.07
7.79
9.64
8.67
6.21
4.15
3.26
2.77
0.79
-4.35
-13.17
-24.59
-36.33
-46.49
-53.89
-58.77
-62.26
-65.56
-69.04
-72.15
-73.67
-72.65
-69.31
-63.98
-58.24
-53.62
-50.73
-48.99
-47.18
-44.21
-39.82
-34.73
-30.09
-26.79
-24.71
-22.82
-19.76
-14.64
-7.40
1.28
10.45
19.41
27.89
36.18
44.83
54.30
64.73
75.92
87.39
98.43
108.31
116.25
121.63
124.13
123.72
120.65
115.43
108.71
101.23
93.74
86.84
80.94
76.18
72.42
69.19
65.91
61.90
56.59
49.64
41.07
31.29
21.00
11.00
1.88
-6.12
-13.22
-19.98
-27.15
-35.38
-44.97
-55.57
-66.06
-74.64
-79.26
-78.23
-70.87
-57.78
-40.79
-22.30
-4.60
10.74
23.11
32.64
39.79
45.00
48.50
50.31
50.42
48.86
45.74
41.31
35.89
29.89
23.89
18.54
14.49
12.16
11.57
12.24
13.31
13.69
12.42
8.93
3.21
-4.24
-12.51
-20.61
-27.78
-33.69
-38.58
-43.18
-48.36
-54.73
-62.18
-69.71
-75.57
-77.82
-75.01
-66.71
-53.67
-37.55
-20.37
-3.88
10.79
23.17
33.17
40.82
46.09
48.86
49.16
47.29
43.89
39.82
35.87
32.57
30.13
28.43
27.19
26.21
25.33
24.48
23.52
22.16
20.07
16.90
12.53
7.13
1.12
-4.94
-10.53
-15.38
-19.54
-23.33
-27.32
-32.12
-38.20
-45.62
-53.87
-61.76
-67.61
-69.68
-66.69
-58.31
-45.32
-29.30
-12.26
4.06
18.42
30.28
39.50
46.07
49.98
51.20
49.85
46.40
41.66
36.68
32.37
29.29
27.45
26.41
25.56
24.40
22.76
20.80
18.81
16.97
15.12
12.82
9.48
4.71
-1.53
-8.79
-16.34
-23.40
-29.49
-34.60
-39.10
-43.67
-48.92
-55.30
-62.79
-70.87
-78.47
-84.04
-85.90
-82.68
-73.78
-59.73
-42.09
-23.07
-4.85
10.91
23.36
32.36
38.16
41.12
41.61
40.03
36.96
33.21
29.63
26.88
25.25
24.56
24.31
23.96
23.18
21.95
20.48
19.00
17.58
16.00
13.79
10.50
5.90
0.11
-6.40
-12.99
-19.06
-24.21
-28.37
-31.78
-34.90
-38.35
-42.77
-48.54
-55.59
-63.12
-69.64
-73.20
-72.04
-65.16
-52.78
-36.34
-17.96
0.12
16.22
29.47
39.67
46.97
51.55
53.48
52.84
50.02
45.77
41.10
37.04
34.25
32.83
32.41
32.35
32.07
31.21
29.72
27.71
25.37
22.86
20.24
17.47
14.46
11.01
6.90
2.01
-3.63
-9.75
-15.93
-21.71
-26.79
-31.17
-35.09
-39.02
-43.47
-48.87
-55.45
-63.01
-70.77
-77.30
-80.78
-79.45
-72.26
-59.30
-41.94
-22.38
-3.08
13.99
27.71
37.79
44.47
48.16
49.31
48.31
45.73
42.31
38.84
36.03
34.22
33.42
33.29
33.42
33.47
33.25
32.67
31.64
30.04
27.78
24.80
21.22
17.19
12.91
8.47
3.87
-0.96
-6.02
-11.27
-16.54
-21.69
-26.62
-31.31
-35.89
-40.58
-45.70
-51.57
-58.36
-65.88
-73.27
-79.07
-81.44
-78.75
-70.20
-56.19
-38.33
-18.90
-0.19
16.09
29.04
38.49
44.69
48.02
48.90
47.79
45.33
42.21
39.16
36.70
35.07
34.23
33.94
33.89
33.86
33.71
33.41
32.88
32.02
30.61
28.43
25.33
21.36
16.70
11.63
6.34
0.92
-4.65
-10.35
-16.02
-21.36
-26.08
-30.15
-33.75
-37.32
-41.30
-46.01
-51.62
-58.09
-65.09
-71.80
-76.85
-78.45
-74.92
-65.28
-49.88
-30.39
-9.38
10.48
27.22
39.92
48.63
53.97
56.65
57.28
56.29
54.15
51.40
48.65
46.51
45.40
45.45
46.51
48.25
50.30
52.32
54.08
55.42
56.22
56.44
56.14
55.51
54.81
54.33
54.21
54.45
54.41
53.67
52.39
51.21
50.81
51.71
54.22
58.35
63.72
69.19
73.72
76.92
79.07
80.98
84.04
90.24
101.75
120.27
145.12
174.43
205.72
235.58
259.70
273.91
275.53
264.12
241.33
207.10
163.49
115.41
68.03
23.65
-18.21
-59.26
-101.05
-144.25
-194.85
-254.73
-318.74
-379.08
-430.82
-472.08
-501.66
-518.29
-521.31
-521.46
-524.91
-526.50
-515.50
-485.19
-435.94
-374.20
-310.94
-259.15
-243.25
-275.19
-345.72
-433.77
-521.13
-596.47
-653.07
-686.79
-613.58
-413.07
-151.08
83.70
249.88
350.37
404.43
431.33
444.74
452.26
444.15
415.87
376.57
340.72
315.56
299.98
289.65
281.24
273.83
258.61
232.99
204.64
184.02
175.12
175.11
178.43
179.96
176.49
160.92
132.19
98.08
69.84
54.38
52.18
58.99
68.37
74.25
69.92
53.56
29.34
4.11
-16.87
-31.14
-38.28
-39.17
-35.48
-30.35
-26.10
-23.23
-20.86
-18.02
-14.34
-10.28
-6.84
-4.99
-4.92
-5.86
-6.57
-6.27
-5.16
-4.39
-5.07
-7.52
-10.84
-13.34
-13.41
-10.36
-4.69
2.22
8.83
14.02
17.41
19.30
20.27
20.84
21.17
21.06
20.12
18.09
15.10
11.71
8.78
7.07
6.92
8.08
9.84
11.26
11.45
9.83
6.30
1.22
-4.63
-10.16
-14.17
-15.52
-13.56
-8.37
-0.82
7.62
15.26
20.67
22.99
22.09
18.60
13.42
7.49
1.54
-4.04
-9.03
-13.25
-16.46
-18.40
-18.79
-17.68
-15.52
-13.08
-11.14
-10.14
-9.96
-9.97
-10.07
-10.02
-9.89
-10.04
-10.86
-12.55
-14.88
-17.39
-19.59
-21.24
-22.36
-23.30
-24.55
-26.54
-29.60
-33.84
-39.14
-44.90
-49.97
-52.67
-51.27
-44.63
-32.67
-16.54
1.67
19.56
35.18
47.42
56.04
61.34
63.70
63.40
60.65
55.87
49.83
43.60
38.32
34.75
33.01
32.58
32.57
32.14
30.83
28.71
26.18
23.63
21.22
18.67
15.45
11.10
5.43
-1.33
-8.65
-15.87
-22.43
-28.02
-32.57
-36.24
-39.38
-42.45
-45.96
-50.35
-55.70
-61.50
-66.45
-68.74
-66.50
-58.58
-45.03
-27.29
-7.74
11.02
26.93
38.89
46.78
51.10
52.64
52.07
49.93
46.64
42.59
38.21
33.94
30.20
27.32
25.52
24.87
25.23
26.27
27.60
28.79
29.52
29.62
29.05
27.88
26.19
24.03
21.37
18.12
14.18
9.59
4.53
-0.62
-5.41
-9.44
-12.54
-14.94
-17.17
-20.02
-24.19
-30.01
-37.10
-44.30
-49.87
-51.95
-49.24
-41.47
-29.56
-15.28
-0.65
12.68
23.77
32.36
38.58
42.60
44.60
44.88
44.05
42.98
42.65
43.74
46.33
49.86
53.31
55.53
55.58
52.95
47.72
40.57
32.65
25.25
19.35
15.12
11.77
7.71
1.16
-9.06
-22.91
-39.01
-55.17
-69.14
-79.39
-85.44
-87.79
-87.56
-85.97
-84.13
-82.90
-82.89
-84.39
-87.15
-90.22
-92.04
-90.80
-85.09
-74.47
-59.65
-42.17
-23.85
-6.17
9.98
24.27
36.55
46.63
54.22
59.10
61.37
61.56
60.47
58.87
57.25
55.73
54.21
52.58
50.90
49.41
48.36
47.85
47.70
47.49
46.80
45.42
43.40
40.94
38.08
34.54
29.78
23.34
15.19
5.95
-3.32
-11.59
-18.34
-23.76
-28.56
-33.47
-38.91
-44.72
-50.37
-55.17
-58.54
-59.99
-59.07
-55.38
-48.71
-39.18
-27.37
-14.27
-1.04
11.18
21.51
29.36
34.39
36.58
36.16
33.71
30.03
26.04
22.55
20.14
18.97
18.91
19.55
20.36
20.90
20.86
20.15
18.88
17.22
15.24
12.89
9.94
6.19
1.61
-3.55
-8.80
-13.57
-17.46
-20.38
-22.52
-24.33
-26.27
-28.72
-31.94
-35.98
-40.64
-45.38
-49.27
-51.14
-49.84
-44.71
-35.81
-24.02
-10.77
2.46
14.51
24.78
33.10
39.50
43.97
46.46
46.98
45.76
43.29
40.33
37.66
35.89
35.30
35.80
36.98
38.24
39.06
39.09
38.34
37.07
35.66
34.38
33.19
31.79
29.76
26.80
22.97
18.68
14.50
10.89
7.97
5.47
2.85
-0.52
-5.10
-11.12
-18.49
-26.77
-35.13
-42.33
-46.93
-47.61
-43.69
-35.42
-24.05
-11.49
0.29
9.83
16.45
20.30
22.00
22.25
21.52
19.94
17.38
13.71
9.04
3.85
-1.13
-5.12
-7.69
-8.86
-9.08
-8.92
-8.79
-8.75
-8.62
-8.25
-7.74
-7.52
-8.08
-9.75
-12.40
-15.53
-18.52
-20.87
-22.48
-23.54
-24.48
-25.76
-27.72
-30.65
-34.64
-39.63
-45.27
-50.89
-55.54
-58.16
-57.80
-53.92
-46.50
-36.11
-23.82
-10.92
1.32
11.86
20.08
25.78
29.04
30.11
29.35
27.25
24.41
21.56
19.42
18.51
18.98
20.53
22.56
24.35
25.35
25.29
24.29
22.68
20.83
19.00
17.15
15.04
12.34
8.83
4.56
-0.15
-4.85
-9.16
-12.93
-16.29
-19.51
-22.91
-26.71
-31.06
-36.07
-41.75
-47.95
-54.18
-59.52
-62.77
-62.83
-59.07
-51.66
-41.54
-30.11
-18.77
-8.53
0.18
7.36
13.11
17.45
20.13
20.86
19.48
16.25
11.79
7.01
2.73
-0.55
-2.69
-3.88
-4.36
-4.35
-3.95
-3.23
-2.37
-1.66
-1.47
-2.09
-3.63
-5.91
-8.61
-11.36
-13.88
-16.05
-17.90
-19.52
-20.98
-22.34
-23.64
-24.97
-26.52
-28.54
-31.27
-34.81
-38.90
-42.85
-45.60
-45.89
-42.69
-35.56
-24.81
-11.52
2.86
16.84
29.21
39.31
46.88
51.98
54.80
55.59
54.63
52.35
49.22
45.77
42.50
39.76
37.74
36.45
35.73
35.35
35.04
34.57
33.74
32.35
30.27
27.42
23.82
19.60
14.95
10.11
5.25
0.42
-4.36
-9.18
-14.05
-18.96
-23.80
-28.48
-32.92
-37.19
-41.45
-45.96
-50.98
-56.59
-62.52
-68.02
-71.90
-72.78
-69.45
-61.40
-49.01
-33.60
-17.02
-1.15
12.66
23.74
32.09
38.05
41.97
44.12
44.72
44.06
42.57
40.81
39.27
38.22
37.69
37.51
37.42
37.24
36.85
36.19
35.22
33.88
32.13
29.95
27.37
24.45
21.24
17.74
13.86
9.56
4.86
-0.05
-4.85
-9.17
-12.82
-15.85
-18.57
-21.44
-24.81
-28.89
-33.64
-38.87
-44.18
-48.95
-52.31
-53.18
-50.59
-44.03
-33.72
-20.63
-6.19
8.18
21.41
32.83
41.98
48.27
50.85
48.78
41.42
28.98
12.75
-5.11
-22.09
-36.14
-46.22
-52.41
-55.63
-56.97
-57.23
-56.69
-55.21
-52.58
-48.78
-44.09
-39.00
-33.95
-29.24
-24.99
-21.19
-17.88
-15.14
-13.10
-11.89
-11.54
-11.94
-12.87
-14.12
-15.54
-17.24
-19.52
-22.69
-26.64
-30.64
-33.41
-33.49
-29.76
-21.87
-10.40
3.35
17.75
31.47
43.74
54.29
63.11
70.14
75.36
78.67
79.92
79.13
76.62
73.01
69.08
65.47
62.53
60.78
60.32
60.65
60.68
59.32
55.82
50.01
42.22
33.15
24.83
19.13
16.88
17.66
20.44
24.21
28.08
31.28
33.27
35.59
39.76
45.96
52.66
57.69
59.38
57.16
51.60
44.36
40.10
42.98
54.64
73.52
96.52
120.81
144.42
166.06
170.90
150.31
107.42
56.31
11.14
-21.57
-42.63
-56.60
-68.56
-81.83
-94.91
-104.87
-110.03
-111.42
-111.16
-110.26
-107.96
-102.51
-92.78
-78.03
-60.17
-42.92
-30.32
-24.17
-22.93
-23.43
-23.25
-21.97
-19.93
-18.42
-18.88
-22.54
-29.84
-40.27
-51.77
-62.34
-70.41
-74.51
-73.98
-69.16
-61.15
-51.84
-41.14
-28.98
-15.64
-1.91
11.13
22.14
29.92
33.69
33.15
28.84
21.79
13.35
4.95
-2.16
-7.17
-9.74
-9.72
-7.73
-4.88
-2.74
-2.63
-5.23
-9.87
-14.24
-14.68
-7.62
8.04
30.33
54.91
77.01
92.93
101.22
102.92
100.61
96.83
91.85
84.29
73.33
60.21
47.68
38.68
35.23
37.78
45.20
53.78
58.91
57.55
49.07
34.08
13.28
-12.34
-41.11
-62.59
-66.13
-49.85
-21.83
8.56
36.31
60.17
80.83
99.44
114.89
126.53
132.54
132.40
127.70
120.78
112.83
103.69
91.48
78.63
64.21
46.43
24.70
0.10
-25.66
-52.04
-78.43
-103.78
-126.85
-148.23
-169.23
-190.63
-212.08
-232.44
-252.06
-270.48
-286.35
-298.56
-308.17
-316.86
-325.24
-332.14
-335.05
-333.94
-327.83
-314.28
-291.07
-258.69
-219.78
-178.67
-140.68
-110.73
-95.32
-95.86
-107.62
-123.34
-138.04
-149.47
-157.53
-162.68
-142.81
-93.16
-28.85
29.89
72.35
96.41
104.76
103.40
97.90
92.69
87.82
84.57
86.97
100.49
124.04
155.65
191.56
226.81
256.55
274.44
277.85
268.93
252.15
230.87
206.97
180.58
151.19
119.35
85.86
54.24
29.93
17.51
18.07
29.44
46.84
64.57
77.73
82.58
78.27
67.14
53.77
43.57
41.76
51.65
73.46
104.11
137.85
168.58
192.16
207.56
216.62
222.85
229.29
237.07
244.99
250.31
249.88
241.51
224.73
201.10
174.17
148.76
129.60
119.94
120.27
128.06
138.71
147.31
150.38
147.05
138.82
128.70
119.97
115.29
116.27
123.28
135.28
149.69
162.74
170.26
168.87
156.99
135.19
105.73
71.55
35.25
-1.38
-37.27
-71.60
-103.30
-131.01
-153.38
-169.60
-179.84
-185.32
-187.92
-189.53
-191.55
-194.69
-199.16
-205.06
-212.56
-221.85
-232.83
-244.89
-256.96
-267.83
-276.69
-283.54
-289.25
-295.33
-303.30
-313.97
-326.84
-339.97
-350.30
-354.76
-351.46
-340.62
-324.44
-306.09
-288.07
-271.15
-254.19
-235.16
-212.59
-186.59
-159.04
-132.88
-111.12
-96.30
-90.31
-94.57
-109.89
-135.91
-170.49
-209.36
-246.59
-275.79
-291.67
-291.43
-275.25
-246.02
-208.15
-166.30
-124.16
-83.94
-46.45
-11.56
21.38
53.17
84.65
116.41
148.44
179.75
208.32
231.52
246.94
253.22
250.45
239.95
223.65
203.53
181.42
159.22
139.14
123.59
114.49
112.52
116.67
124.56
133.27
140.60
145.63
148.72
150.91
152.98
154.94
156.15
155.81
153.47
149.39
144.25
138.77
133.33
127.85
122.08
115.98
109.91
104.54
100.56
98.24
97.20
96.44
94.58
90.29
82.73
71.83
58.33
43.61
29.25
16.46
5.71
-3.56
-12.78
-23.90
-38.83
-58.82
-83.89
-112.55
-141.79
-167.66
-186.28
-194.91
-192.76
-181.17
-163.08
-142.02
-121.12
-102.56
-87.51
-76.52
-69.92
-67.93
-70.34
-76.20
-83.53
-89.63
-91.68
-87.54
-76.39
-58.94
-37.19
-13.76
8.83
28.77
45.25
58.45
69.13
78.19
86.31
93.70
100.18
105.43
109.23
111.59
112.73
112.87
112.10
110.34
107.32
102.72
96.14
87.21
75.66
61.43
44.87
26.99
9.36
-6.05
-17.41
-23.57
-24.49
-21.25
-15.73
-10.00
-5.67
-3.66
-3.98
-6.04
-8.91
-11.64
-13.56
-14.39
-14.29
-13.69
-13.13
-12.95
-13.15
-13.40
-13.25
-12.33
-10.58
-8.11
-5.12
-1.65
2.37
7.00
12.09
17.28
22.04
25.91
28.53
29.74
29.43
27.50
23.93
18.74
12.13
4.29
-4.71
-15.01
-26.90
-40.47
-55.26
-70.14
-83.52
-93.88
-100.11
-101.63
-98.23
-89.92
-76.84
-59.55
-39.13
-17.23
4.19
23.36
38.96
50.41
57.71
61.38
62.29
61.59
60.53
60.04
60.28
60.36
58.72
53.91
45.55
34.76
23.79
14.99
9.72
7.72
7.31
6.22
2.67
-3.94
-12.97
-23.01
-32.54
-40.49
-46.37
-50.28
-52.70
-54.35
-56.07
-58.50
-61.93
-65.99
-69.56
-70.92
-68.15
-59.75
-45.16
-25.09
-1.32
23.82
48.18
70.28
89.40
105.36
118.07
127.44
133.38
136.20
136.91
137.20
139.00
143.87
152.34
163.64
176.12
187.84
197.44
204.64
210.30
215.90
222.82
231.76
242.54
254.38
266.26
277.06
285.33
289.05
285.70
273.14
250.74
220.15
184.87
148.65
113.62
79.52
44.56
7.71
-29.12
-60.65
-79.81
-80.83
-61.91
-26.12
19.99
68.94
114.88
154.68
187.43
213.04
231.01
240.19
239.31
228.17
208.28
182.76
155.38
129.18
105.41
83.29
60.74
35.66
7.23
-23.61
-54.44
-82.42
-105.56
-123.60
-138.25
-152.52
-169.58
-191.35
-217.48
-245.18
-269.87
-286.53
-291.20
-282.10
-260.11
-228.63
-192.83
-158.66
-131.51
-114.88
-109.30
-111.95
-117.48
-119.97
-115.48
-103.84
-88.62
-75.47
-68.90
-70.09
-76.67
-84.42
-89.68
-90.63
-87.14
-79.41
-66.98
-48.46
-22.75
9.30
44.12
76.45
101.46
116.62
122.23
119.74
110.85
96.62
77.03
51.42
19.15
-19.91
-65.62
-118.06
-178.65
-246.84
-318.02
-383.64
-433.84
-460.63
-460.59
-436.18
-394.78
-348.76
-307.68
-274.56
-246.92
-221.03
-194.90
-168.82
-144.53
-123.95
-112.51
-111.94
-118.33
-124.99
-127.18
-123.66
-115.27
-103.38
-89.41
-80.53
-80.96
-89.08
-100.08
-111.01
-122.23
-135.40
-151.74
-133.26
-64.93
34.36
130.73
205.29
257.16
291.95
315.15
330.47
339.59
338.13
324.85
304.48
283.66
267.37
255.84
246.97
238.79
229.47
214.11
190.81
162.39
133.60
106.76
80.16
49.05
14.45
-25.30
-74.18
-133.07
-197.23
-257.30
-303.16
-327.45
-327.28
-304.94
-268.00
-226.98
-190.58
-163.04
-144.64
-133.91
-129.29
-129.22
-131.45
-133.54
-132.65
-126.18
-112.82
-93.70
-72.34
-53.51
-41.52
-38.55
-44.64
-57.41
-73.09
-87.87
-98.87
-104.71
-105.46
-102.03
-95.47
-86.79
-76.49
-64.90
-52.44
-39.77
-27.70
-16.93
-7.71
0.50
8.89
19.18
33.07
51.61
74.73
100.99
127.78
151.88
170.27
180.83
182.96
177.81
168.04
157.33
149.50
147.60
153.17
165.87
183.69
203.64
222.72
238.68
250.42
257.84
261.55
262.33
260.89
257.76
253.41
248.36
243.17
238.32
233.99
229.84
225.06
218.61
209.79
198.71
186.38
174.48
164.57
157.28
151.79
146.12
137.92
125.60
108.99
89.38
68.89
49.59
32.84
19.03
7.78
-1.64
-9.80
-16.61
-21.09
-21.47
-15.97
-3.59
15.05
37.57
60.48
80.19
94.10
100.91
100.50
93.37
80.38
62.64
41.53
18.45
-5.69
-30.81
-57.58
-86.56
-117.32
-147.96
-175.62
-197.59
-212.49
-220.69
-223.87
-223.93
-222.00
-218.08
-211.53
-202.10
-190.73
-179.74
-172.11
-170.45
-176.11
-188.93
-207.67
-230.70
-256.52
-283.80
-311.08
-336.33
-356.99
-370.37
-374.43
-368.32
-352.40
-327.95
-296.57
-259.88
-219.32
-176.23
-131.80
-86.90
-41.82
3.83
50.99
100.56
152.67
206.01
257.69
303.75
340.19
364.22
375.05
374.19
365.02
351.93
339.29
330.31
326.10
325.12
323.51
316.24
298.88
269.23
227.99
178.17
123.82
68.78
16.11
-31.57
-71.81
-102.47
-122.57
-133.30
-138.09
-141.63
-147.95
-158.70
-172.80
-187.29
-199.24
-207.30
-212.33
-216.65
-222.56
-230.80
-239.64
-245.31
-243.13
-229.53
-203.59
-167.73
-126.85
-86.69
-51.62
-23.35
-0.86
18.45
37.11
56.25
75.15
91.62
103.01
107.16
103.19
91.65
74.34
53.78
32.38
11.87
-7.19
-25.27
-43.41
-62.39
-81.98
-100.50
-114.94
-121.85
-118.66
-104.95
-83.12
-57.75
-34.11
-16.25
-5.63
-1.06
0.08
0.24
0.50
0.33
-1.46
-5.67
-11.88
-18.66
-24.45
-28.37
-30.71
-32.63
-35.47
-40.04
-46.41
-53.94
-61.83
-69.36
-75.88
-80.63
-82.51
-80.21
-72.51
-58.89
-39.81
-16.71
8.32
33.14
55.91
75.40
90.92
102.28
109.61
113.40
114.43
113.67
112.19
110.91
110.43
110.93
112.16
113.63
114.81
115.39
115.30
114.62
113.45
111.74
109.32
105.96
101.52
96.08
89.86
83.17
76.30
69.45
62.68
56.02
49.45
42.96
36.53
30.13
23.67
17.05
10.15
2.94
-4.51
-12.04
-19.42
-26.49
-33.18
-39.52
-45.70
-52.00
-58.71
-66.00
-73.60
-80.62
-85.46
-86.19
-81.17
-69.71
-52.43
-31.20
-8.51
13.25
32.40
48.14
60.36
69.31
75.24
78.39
79.05
77.75
75.31
72.73
70.94
70.53
71.51
73.41
75.48
76.99
77.48
76.89
75.41
73.28
70.68
67.60
64.03
59.98
55.63
51.20
46.87
42.65
38.44
34.11
29.63
25.15
20.94
17.22
14.01
11.14
8.27
5.09
1.49
-2.45
-6.46
-10.25
-13.63
-16.63
-19.54
-22.86
-27.13
-32.69
-39.43
-46.57
-52.77
-56.35
-55.76
-50.05
-39.28
-24.49
-7.57
9.33
24.30
36.14
44.53
49.83
52.82
54.22
54.50
53.81
52.21
49.87
47.18
44.69
42.93
42.16
42.25
42.83
43.45
43.73
43.50
42.74
41.50
39.80
37.65
35.03
31.93
28.38
24.47
20.34
16.17
12.12
8.32
4.81
1.48
-1.94
-5.72
-10.05
-14.85
-19.79
-24.38
-28.22
-31.18
-33.48
-35.63
-38.20
-41.62
-46.08
-51.44
-57.29
-63.00
-67.70
-70.37
-69.99
-65.88
-57.87
-46.53
-32.97
-18.61
-4.79
7.46
17.46
24.90
29.70
32.04
32.29
31.05
29.03
26.93
25.28
24.35
24.13
24.42
24.99
25.68
26.47
27.46
28.72
30.17
31.57
32.52
32.63
31.72
29.93
27.67
25.51
23.93
23.18
23.15
23.50
23.79
23.69
23.17
22.66
22.80
24.22
27.22
31.54
36.39
40.54
42.56
41.37
36.79
29.86
22.74
18.15
18.52
25.18
37.79
54.38
72.14
88.45
101.55
110.67
115.73
116.98
114.65
108.98
99.83
87.59
73.56
59.82
48.43
40.62
36.42
34.66
33.41
29.59
21.10
7.85
-8.35
-25.03
-40.31
-53.40
-64.47
-74.19
-84.91
-98.13
-113.49
-129.17
-143.50
-156.03
-167.36
-178.35
-189.47
-202.63
-218.61
-236.32
-253.49
-268.46
-281.12
-292.13
-301.69
-295.65
-265.25
-213.51
-153.64
-98.55
-54.69
-22.92
-1.10
13.76
24.11
29.11
27.60
20.39
10.53
2.00
-2.18
-0.83
5.47
14.84
23.41
28.31
29.22
28.05
27.14
27.78
30.14
33.64
37.72
41.04
42.69
42.63
41.45
39.58
36.87
32.95
27.90
22.39
16.93
12.24
9.29
9.06
11.93
17.22
23.35
28.65
32.00
33.09
32.70
32.39
33.80
37.79
44.01
49.39
50.84
46.58
37.18
24.85
11.94
-0.10
-10.75
-20.03
-28.18
-35.18
-40.89
-45.10
-47.55
-47.69
-44.74
-38.07
-27.87
-15.68
-4.11
3.90
6.34
3.01
-4.43
-13.13
-20.39
-24.78
-26.60
-27.33
-28.63
-31.60
-36.71
-43.27
-50.25
-56.30
-60.01
-60.22
-56.53
-49.66
-41.30
-33.58
-28.31
-25.94
-25.17
-23.66
-18.87
-9.34
5.02
23.06
42.86
61.66
77.17
88.17
94.16
95.37
92.27
86.02
78.37
71.34
65.51
61.87
62.45
66.37
73.09
81.07
88.61
94.46
98.28
98.65
96.25
94.15
95.26
99.91
104.73
104.26
92.84
66.34
20.64
-43.23
-117.91
-192.42
-255.77
-299.67
-319.34
-314.19
-271.00
-194.62
-108.40
-37.93
4.96
22.22
21.86
12.70
2.14
-4.68
-7.76
-7.89
-5.00
0.73
7.75
13.89
17.78
19.23
18.84
15.28
8.44
0.50
-5.52
-7.82
-6.39
-2.49
2.07
5.54
5.52
1.31
-5.07
-10.64
-13.22
-12.28
-8.61
-3.71
0.86
3.36
3.18
1.06
-1.74
-4.29
-6.37
-8.19
-10.07
-12.20
-14.86
-18.00
-21.27
-24.31
-26.94
-29.29
-31.69
-34.56
-38.28
-43.00
-48.41
-53.58
-57.44
-58.31
-54.67
-45.71
-31.79
-14.35
4.45
22.40
37.82
49.82
58.30
63.59
66.16
66.40
64.72
61.59
57.66
53.70
50.39
48.25
47.36
47.40
47.82
48.07
47.83
47.07
45.93
44.53
42.82
40.47
37.04
32.18
25.88
18.52
10.77
3.35
-3.24
-8.85
-13.72
-18.27
-22.84
-27.55
-32.18
-36.36
-39.76
-42.29
-44.20
-46.04
-48.49
-52.16
-57.33
-63.83
-70.82
-76.88
-80.23
-79.19
-72.72
-60.84
-44.78
-26.54
-8.41
7.82
21.16
31.64
39.81
46.30
51.51
55.53
58.36
60.10
61.04
61.66
62.43
63.53
64.72
65.48
65.31
64.08
62.06
59.76
57.53
55.56
53.58
50.92
46.92
41.35
34.57
27.33
20.44
14.42
9.87
6.80
4.62
2.29
-1.04
-5.66
-11.37
-17.70
-24.31
-29.90
-33.84
-36.63
-39.74
-44.62
-51.69
-60.08
-67.81
-72.28
-69.20
-55.70
-31.91
-1.10
31.98
62.98
88.99
108.77
122.61
134.18
146.94
162.38
179.63
196.87
212.52
225.26
233.70
222.07
182.00
117.69
44.50
-21.94
-73.42
-109.01
-131.79
-146.05
-155.46
-159.93
-158.60
-151.64
-141.22
-130.17
-120.79
-114.42
-111.50
-111.72
-112.63
-112.22
-109.95
-106.55
-102.19
-95.35
-83.59
-65.48
-42.14
-16.33
7.54
25.86
36.40
39.85
39.28
38.04
37.63
37.15
34.84
29.21
20.02
8.32
-3.99
-15.19
-24.34
-31.54
-37.28
-41.47
-43.42
-42.35
-38.16
-31.70
-24.85
-19.68
-17.73
-19.12
-22.38
-25.08
-25.00
-21.08
-13.49
-5.21
0.97
3.07
0.70
-4.90
-11.59
-17.23
-20.43
-20.39
-17.35
-12.17
-6.18
-0.60
3.72
6.51
8.16
9.66
12.96
19.24
28.40
39.20
50.03
59.62
67.28
72.87
76.65
79.98
83.26
85.62
85.69
82.75
77.19
70.10
62.71
56.33
53.40
55.05
60.49
67.68
74.60
79.81
82.39
81.82
69.30
43.48
10.98
-19.61
-44.21
-63.00
-77.25
-87.69
-95.27
-100.75
-103.46
-103.86
-103.67
-104.59
-106.94
-109.71
-109.56
-104.34
-93.04
-74.99
-51.46
-25.53
-0.65
20.82
38.08
51.41
61.32
68.31
73.27
76.33
76.93
74.54
69.37
62.44
55.13
48.39
42.85
39.04
36.99
36.24
36.12
35.91
34.88
32.24
27.17
19.33
9.13
-2.54
-14.66
-26.36
-37.14
-46.82
-55.54
-63.61
-71.31
-78.80
-85.95
-92.21
-96.58
-97.79
-94.69
-86.63
-73.89
-57.56
-39.33
-21.03
-4.20
10.08
21.21
28.99
33.44
34.75
33.32
29.75
24.84
19.51
14.62
10.87
8.60
7.77
7.98
8.63
9.08
8.85
7.70
5.65
2.88
-0.34
-3.74
-7.19
-10.71
-14.42
-18.56
-23.38
-29.05
-35.57
-42.62
-49.45
-54.89
-57.52
-56.12
-50.00
-39.36
-25.30
-9.55
6.03
19.92
31.14
39.33
44.57
47.13
47.32
45.51
42.15
37.79
33.07
28.62
24.91
22.18
20.43
19.40
18.65
17.69
16.11
13.70
10.49
6.69
2.55
-1.76
-6.20
-10.85
-15.82
-21.22
-27.11
-33.55
-40.50
-47.66
-54.28
-59.10
-60.59
-57.34
-48.72
-35.23
-18.47
-0.70
15.89
29.73
40.13
47.13
51.13
52.59
51.90
49.43
45.71
41.44
37.34
33.97
31.57
30.02
29.03
28.32
27.67
26.93
25.88
24.16
21.44
17.50
12.39
6.48
0.24
-5.88
-11.67
-17.18
-22.59
-28.18
-34.19
-40.72
-47.61
-54.28
-59.61
-62.14
-60.44
-53.65
-41.89
-26.31
-8.79
8.63
24.29
37.17
46.88
53.37
56.78
57.31
55.30
51.38
46.44
41.53
37.57
35.17
34.43
34.94
36.00
36.86
36.92
35.91
33.86
31.03
27.67
23.99
20.06
15.86
11.26
6.18
0.60
-5.37
-11.50
-17.45
-22.87
-27.52
-31.30
-34.39
-37.18
-40.20
-44.00
-48.97
-55.10
-61.81
-67.92
-71.77
-71.71
-66.61
-56.29
-41.63
-24.34
-6.42
10.33
24.66
35.89
43.82
48.57
50.43
49.96
47.85
44.96
42.10
39.89
38.62
38.23
38.44
38.87
39.18
39.13
38.65
37.71
36.33
34.49
32.13
29.17
25.55
21.34
16.70
11.90
7.23
2.90
-0.98
-4.48
-7.81
-11.24
-15.04
-19.28
-23.82
-28.31
-32.33
-35.61
-38.17
-40.35
-42.76
-46.00
-50.50
-56.25
-62.67
-68.67
-72.70
-73.20
-68.93
-59.46
-45.37
-28.20
-10.04
7.03
21.46
32.45
39.93
44.30
46.12
45.97
44.41
42.03
39.45
37.29
35.99
35.71
36.25
37.16
37.87
37.95
37.20
35.73
33.77
31.57
29.19
26.50
23.25
19.24
14.48
9.19
3.76
-1.41
-6.00
-9.87
-13.09
-15.89
-18.57
-21.41
-24.60
-28.12
-31.81
-35.43
-38.69
-41.49
-43.89
-46.05
-48.24
-50.88
-54.39
-59.01
-64.61
-70.52
-75.62
-78.49
-77.72
-72.39
-62.48
-48.82
-32.91
-16.44
-0.93
12.39
22.83
30.30
35.09
37.59
38.16
37.27
35.61
34.04
32.99
32.85
34.06
36.73
40.24
43.42
45.04
44.44
41.75
36.76
30.02
22.97
17.13
13.04
10.06
6.93
2.64
-3.38
-12.76
-26.07
-41.93
-57.94
-72.21
-84.00
-93.30
-100.15
-104.75
-109.73
-116.96
-126.11
-135.40
-143.24
-149.10
-153.12
-155.28
-141.59
-107.21
-60.09
-14.37
20.71
43.68
57.29
65.26
71.56
78.41
85.86
93.41
101.68
111.68
123.46
135.76
143.20
142.46
132.99
115.12
91.08
64.96
40.95
21.75
8.11
-0.59
-4.89
-5.60
-4.60
-4.37
-4.65
-4.81
-4.44
-3.60
-2.55
-1.04
0.94
2.83
4.13
4.97
5.49
5.75
5.56
4.56
3.19
1.29
-1.42
-4.66
-7.52
-9.23
-9.37
-8.11
-6.07
-4.24
-4.18
-6.67
-10.96
-15.08
-17.21
-16.27
-12.29
-6.11
0.64
5.55
7.39
7.47
9.02
15.31
28.62
49.46
76.30
104.99
128.37
138.97
131.70
104.57
58.41
-2.87
-72.56
-137.57
-178.35
-183.34
-158.05
-118.23
-78.42
-46.69
-24.83
-10.96
-2.26
2.50
1.88
-5.56
-18.28
-32.14
-43.61
-49.52
-49.03
-43.47
-35.61
-29.28
-26.92
-27.53
-28.05
-25.83
-19.86
-10.83
-0.59
9.00
15.93
18.96
19.05
18.35
18.42
19.47
20.93
21.75
21.57
20.11
17.40
15.36
16.79
23.66
36.37
54.38
75.90
99.22
121.82
134.63
130.65
110.40
81.62
53.59
35.62
27.08
25.99
29.83
35.87
41.40
45.76
48.82
47.70
41.08
29.33
15.52
2.91
-6.65
-14.27
-21.54
-30.84
-45.10
-65.61
-92.51
-123.49
-150.80
-166.55
-166.60
-152.99
-132.10
-110.40
-91.66
-77.42
-67.32
-60.52
-56.62
-54.87
-53.51
-50.23
-43.13
-31.54
-16.37
0.89
18.90
36.28
52.61
66.70
77.19
82.88
82.99
77.57
67.87
55.85
43.08
30.39
18.00
6.09
-4.65
-13.45
-19.63
-22.86
-23.30
-21.62
-18.60
-14.56
-10.67
-6.91
-2.96
1.29
5.63
9.45
11.96
12.66
11.56
9.28
7.12
6.23
7.17
9.71
12.87
15.30
15.87
13.98
9.64
3.54
-3.45
-10.55
-17.25
-23.46
-29.43
-35.47
-41.93
-48.97
-56.20
-62.50
-66.27
-65.75
-59.76
-48.16
-31.46
-11.31
9.78
29.24
45.23
56.87
64.35
68.24
69.34
69.41
69.75
70.53
71.17
71.13
70.16
68.63
66.87
65.24
65.66
69.19
75.01
80.88
84.70
85.10
82.25
76.85
69.99
65.00
63.99
66.72
71.29
76.01
79.88
83.04
85.00
71.93
38.07
-9.89
-58.18
-97.18
-122.98
-140.83
-154.13
-164.87
-173.81
-176.99
-171.31
-156.08
-133.21
-105.72
-76.99
-49.33
-24.64
-3.95
14.16
30.73
45.29
56.18
62.06
62.49
58.54
51.53
42.85
34.77
28.83
25.34
23.65
23.03
22.88
23.10
23.51
23.89
24.57
25.58
26.47
26.39
24.59
20.80
15.42
9.28
3.37
-1.19
-3.76
-4.28
-3.28
-1.54
0.16
1.28
1.50
0.68
-1.21
-4.25
-8.66
-14.89
-23.58
-35.21
-49.68
-65.94
-82.05
-95.55
-104.14
-106.24
-101.59
-91.21
-77.10
-61.54
-46.49
-33.21
-22.19
-13.32
-5.98
0.33
5.65
9.69
12.29
13.80
15.07
17.11
20.67
26.22
33.41
41.04
47.59
51.98
54.01
54.01
52.37
49.46
46.15
43.09
40.28
37.23
33.41
28.84
23.76
18.55
13.78
10.96
11.26
14.71
20.29
26.75
33.52
40.25
46.52
45.52
33.16
11.12
-14.12
-36.17
-51.27
-57.59
-55.06
-45.76
-32.17
-15.95
1.39
18.44
34.20
45.60
51.76
53.08
50.72
46.03
41.04
37.28
35.16
34.01
32.93
31.86
31.04
30.75
30.59
30.45
30.23
29.57
27.87
24.58
19.78
13.69
6.57
-2.07
-12.04
-22.60
-32.86
-42.33
-50.83
-58.12
-63.95
-67.89
-70.57
-72.21
-72.57
-71.24
-68.15
-63.60
-58.04
-52.32
-42.10
-27.22
-10.92
3.32
14.99
26.15
39.02
54.06
69.09
82.79
92.51
96.61
95.16
89.38
80.43
68.76
54.95
40.46
28.24
21.05
21.07
28.52
40.67
52.24
57.40
51.30
33.05
6.25
-23.88
-52.64
-77.44
-97.79
-114.29
-127.43
-138.57
-147.96
-154.58
-157.65
-157.30
-154.51
-150.16
-144.50
-137.20
-130.06
-124.55
-120.91
-118.86
-118.52
-120.31
-124.21
-129.34
-120.48
-91.29
-47.68
-2.30
35.82
64.15
83.99
97.75
107.64
115.17
118.93
118.18
113.96
108.43
103.17
98.60
94.34
89.85
84.85
77.71
67.90
56.53
46.31
39.41
36.73
38.10
42.62
49.01
54.67
57.53
56.78
52.99
47.32
41.17
35.81
31.99
29.49
26.60
21.45
13.02
1.56
-11.71
-25.22
-37.53
-47.75
-55.62
-61.66
-66.66
-71.28
-75.98
-81.11
-86.83
-92.84
-98.06
-100.85
-99.61
-93.45
-82.41
-67.38
-49.90
-31.67
-14.14
2.03
16.72
29.75
40.48
48.10
51.98
51.94
48.38
42.35
35.81
31.21
30.52
34.53
42.77
53.57
64.27
71.59
71.03
59.44
38.52
14.57
-5.89
-19.45
-26.13
-28.05
-27.80
-27.15
-26.25
-24.06
-19.69
-13.23
-5.61
2.01
8.54
13.20
15.62
15.98
14.68
11.99
8.03
3.24
-1.12
-3.39
-1.99
3.98
14.37
27.65
41.55
53.18
60.18
61.75
58.29
51.20
42.33
33.39
25.59
19.64
15.81
13.88
13.36
12.63
10.00
4.63
-3.10
-11.90
-20.03
-25.93
-29.03
-29.36
-28.59
-28.31
-28.83
-29.74
-30.91
-33.17
-35.36
-38.27
-42.68
-50.39
-62.19
-76.61
-91.23
-104.23
-115.11
-124.20
-132.23
-130.05
-113.10
-83.95
-48.93
-13.67
18.29
44.68
64.27
76.72
82.93
84.24
80.46
73.03
64.33
56.79
52.31
52.04
55.82
62.38
68.30
66.55
53.91
32.28
8.12
-11.07
-20.28
-18.71
-8.99
3.64
13.98
19.45
19.51
14.54
5.22
-6.91
-20.59
-33.73
-44.48
-51.79
-54.83
-53.43
-48.04
-39.62
-29.20
-17.85
-6.64
3.13
10.03
13.04
12.25
8.79
4.57
2.11
4.40
14.61
35.14
65.90
104.49
146.19
184.56
212.84
225.90
221.98
203.28
174.88
141.66
107.94
76.57
48.71
24.13
2.23
-16.90
-32.42
-43.67
-52.71
-61.98
-73.09
-86.09
-99.97
-113.00
-123.23
-129.22
-130.83
-131.61
-134.82
-142.04
-152.55
-164.77
-177.07
-188.09
-197.27
-191.26
-166.41
-131.14
-99.23
-77.92
-66.57
-61.21
-58.26
-56.10
-54.66
-58.75
-67.94
-79.37
-88.41
-91.54
-87.83
-78.82
-67.35
-56.24
-48.78
-44.59
-42.17
-38.55
-31.61
-21.10
-8.19
5.69
19.80
33.35
46.93
61.38
77.36
94.20
110.10
123.16
132.36
137.74
139.55
138.50
135.05
129.57
122.13
112.63
101.07
87.76
73.30
58.30
43.65
30.30
19.17
10.76
4.84
0.56
-3.32
-7.84
-13.46
-19.70
-25.28
-28.40
-27.33
-21.00
-9.14
7.82
29.22
54.47
83.12
114.50
147.32
179.44
208.19
231.28
247.57
257.56
262.95
265.92
268.07
270.15
271.86
272.10
269.25
261.78
248.31
227.64
198.91
162.00
117.85
68.28
15.30
-39.65
-95.87
-153.59
-213.43
-275.47
-338.24
-397.91
-449.26
-487.36
-509.51
-515.31
-506.99
-488.49
-464.34
-438.32
-411.79
-384.84
-357.17
-329.30
-299.84
-266.57
-227.13
-180.68
-128.40
-71.43
-12.66
43.27
89.40
123.50
146.61
162.16
173.48
183.14
195.70
213.60
235.09
251.89
259.51
255.89
242.06
220.39
195.13
175.67
169.90
180.24
199.90
225.81
256.34
291.34
329.10
340.61
306.75
230.46
159.28
102.17
59.98
23.49
-8.08
-35.05
-58.19
-74.75
-83.46
-86.51
-91.73
-99.86
-108.30
-112.53
-109.69
-98.19
-74.52
-37.43
3.78
32.97
42.83
35.94
20.19
1.55
-16.97
-32.29
-42.77
-48.67
-52.57
-54.02
-52.46
-48.34
-43.85
-41.41
-41.49
-43.53
-46.11
-49.15
-51.02
-50.78
-48.85
-46.73
-45.85
-46.56
-48.63
-51.57
-54.11
-54.69
-53.05
-50.11
-47.15
-44.91
-43.49
-42.74
-42.41
-40.99
-37.51
-32.55
-27.77
-24.45
-22.77
-21.78
-19.96
-15.31
-4.34
14.89
41.12
70.68
99.69
125.73
148.30
168.07
175.69
166.72
144.31
114.97
82.57
48.60
14.80
-15.82
-40.65
-59.31
-70.05
-72.33
-67.80
-59.49
-50.41
-43.18
-38.66
-39.33
-44.99
-52.61
-57.77
-57.34
-50.93
-40.82
-30.77
-24.78
-27.27
-39.19
-59.07
-84.07
-110.92
-136.29
-156.92
-170.52
-170.90
-156.37
-128.76
-92.97
-55.59
-22.71
2.27
19.82
33.35
47.32
64.50
85.56
108.84
131.59
151.18
166.03
175.52
179.22
176.34
166.00
148.37
125.22
100.31
78.32
63.53
58.22
61.76
66.92
67.00
58.61
42.89
23.50
3.77
-14.16
-29.27
-41.36
-50.69
-57.21
-61.03
-62.74
-62.98
-62.48
-61.61
-60.46
-59.22
-58.34
-57.84
-57.60
-58.31
-58.83
-58.34
-56.30
-52.57
-47.35
-41.07
-33.76
-24.41
-14.08
-3.87
4.88
11.05
14.03
13.90
11.18
6.90
2.08
-2.56
-6.20
-8.28
-8.48
-6.94
-4.20
-1.30
0.76
1.29
0.17
-1.91
-3.92
-4.75
-3.33
1.37
10.02
23.51
41.93
63.87
86.29
104.77
114.99
113.36
100.41
78.62
51.33
21.19
-10.19
-41.32
-69.48
-90.41
-99.61
-94.77
-78.29
-56.66
-37.84
-27.30
-25.48
-28.17
-29.43
-25.27
-15.58
-3.99
4.72
7.40
4.13
-2.32
-8.45
-12.25
-13.82
-14.84
-17.50
-23.05
-31.03
-39.22
-44.61
-44.57
-37.60
-24.99
-9.37
5.77
18.29
27.04
32.09
34.23
34.35
32.94
30.06
25.78
20.46
14.96
10.21
7.01
5.61
5.60
6.19
6.54
6.28
5.37
4.02
2.36
0.46
-1.47
-3.00
-3.67
-3.13
-1.24
1.82
5.58
9.43
12.75
15.36
17.41
18.91
19.67
19.60
18.64
16.78
14.02
10.24
5.95
2.25
-0.26
-1.44
-1.41
-0.67
-0.01
-0.22
-2.14
-5.50
-9.07
-11.91
-14.04
-15.82
-17.89
-21.05
-26.16
-34.62
-46.63
-60.63
-75.01
-87.13
-93.10
-89.13
-73.13
-42.36
-3.10
31.54
56.89
70.52
71.80
63.00
48.20
31.72
16.66
3.82
-6.66
-12.97
-14.45
-11.39
-5.24
1.48
5.81
5.97
2.23
-1.84
-0.99
7.43
22.34
39.28
52.44
57.65
54.46
45.78
36.65
31.34
30.36
31.08
29.80
24.20
14.73
4.12
-4.33
-8.34
-7.56
-3.85
0.23
2.74
2.93
1.17
-1.59
-4.28
-5.92
-5.82
-4.10
-1.61
0.29
0.53
-0.92
-2.61
-2.19
2.25
10.85
21.56
31.17
36.85
37.62
34.59
30.03
25.80
22.12
17.54
10.04
-1.47
-16.29
-32.18
-46.27
-56.45
-62.00
-63.46
-61.91
-58.24
-52.97
-46.60
-40.24
-35.27
-33.15
-34.71
-39.71
-46.92
-54.54
-60.98
-65.47
-68.48
-70.68
-73.04
-76.61
-82.07
-89.48
-98.23
-107.41
-116.20
-124.44
-131.88
-138.47
-144.19
-148.69
-151.33
-151.68
-150.00
-145.47
-139.67
-133.63
-127.71
-121.62
-114.67
-106.45
-97.66
-90.08
-85.59
-84.92
-84.38
-79.53
-67.85
-49.49
-26.42
-1.38
23.02
45.23
64.91
87.02
114.80
146.89
179.09
208.00
232.63
253.77
272.89
290.98
314.31
344.43
375.47
398.48
407.97
403.79
389.25
368.91
346.94
335.17
340.35
360.22
387.51
416.58
444.80
470.79
493.15
457.83
347.59
193.97
46.81
-66.30
-143.16
-192.57
-224.60
-247.45
-266.74
-277.38
-276.49
-267.77
-257.89
-250.48
-245.47
-241.72
-239.06
-238.33
-233.99
-222.91
-207.20
-191.27
-177.52
-166.39
-156.70
-147.89
-139.93
-128.83
-112.52
-92.82
-73.50
-57.47
-45.80
-38.04
-32.82
-28.07
-19.56
-4.80
15.24
37.35
57.63
73.11
82.49
86.02
85.27
83.23
82.66
82.49
82.62
82.88
82.92
81.94
78.58
71.35
59.10
41.51
19.10
-6.62
-34.25
-62.65
-90.86
-118.03
-143.44
-166.67
-187.79
-207.27
-225.33
-242.02
-256.89
-269.19
-278.33
-284.30
-287.73
-289.51
-290.38
-290.33
-288.84
-284.77
-276.51
-262.29
-240.65
-211.12
-174.68
-133.74
-91.31
-50.22
-12.27
21.94
52.45
79.22
101.81
119.51
132.02
140.01
145.09
149.34
154.45
161.28
169.63
178.59
186.96
193.71
198.29
200.72
201.43
200.97
199.64
197.24
193.11
186.44
176.79
164.47
150.51
136.41
123.50
112.47
103.23
95.07
87.03
78.27
68.32
57.09
44.95
32.73
21.82
13.96
10.89
13.86
23.06
37.44
54.89
72.78
88.74
101.28
109.86
114.74
116.56
116.07
114.01
111.03
107.67
104.31
101.14
98.04
94.58
90.24
84.77
78.40
71.69
65.15
58.84
52.43
45.07
35.66
23.33
7.99
-9.47
-27.48
-44.43
-59.33
-71.52
-81.67
-91.87
-104.94
-123.10
-146.73
-174.15
-202.12
-226.88
-243.68
-249.35
-243.69
-229.46
-210.66
-190.64
-171.21
-152.59
-133.90
-111.43
-82.19
-46.09
-6.39
32.26
66.13
93.38
113.81
128.48
142.46
160.87
186.57
219.15
256.42
295.88
334.66
369.05
374.97
336.06
254.07
150.00
49.09
-32.80
-91.24
-129.20
-152.68
-167.64
-175.04
-174.20
-165.47
-151.69
-136.93
-124.52
-116.35
-113.07
-114.50
-117.36
-118.31
-115.39
-108.45
-97.84
-83.42
-65.03
-43.78
-22.51
-3.67
10.27
17.57
17.76
12.31
4.64
-1.29
-2.52
2.01
12.16
26.05
40.53
51.91
57.02
54.52
45.02
30.59
13.88
-1.54
-13.54
-21.49
-25.93
-28.19
-29.49
-30.80
-32.76
-35.78
-40.10
-45.80
-52.43
-58.89
-63.67
-65.26
-62.88
-56.92
-48.93
-40.94
-34.71
-31.18
-29.31
-27.73
-25.24
-21.35
-16.43
-11.20
-6.35
-2.27
0.87
2.96
3.57
2.30
-0.95
-5.62
-10.42
-13.84
-14.81
-13.24
-10.05
-7.02
-5.94
-8.02
-13.47
-21.38
-30.31
-38.74
-45.54
-50.13
-52.61
-53.52
-53.73
-54.24
-55.58
-57.81
-60.22
-61.33
-59.38
-53.11
-42.54
-29.42
-16.84
-7.73
-3.95
-5.28
-9.52
-13.33
-13.45
-7.58
5.52
23.32
43.35
62.84
79.50
91.89
99.52
102.69
102.24
99.28
95.10
91.61
90.73
94.11
102.00
112.48
121.70
125.23
120.05
105.99
86.34
66.11
50.19
40.81
36.81
34.82
31.39
24.76
15.34
5.41
-2.29
-5.02
-1.67
7.04
19.10
32.10
43.83
52.61
57.52
58.52
57.02
54.43
51.45
47.97
43.18
35.69
23.73
5.80
-22.15
-57.96
-93.74
-120.43
-133.23
-133.25
-125.26
-114.69
-105.60
-99.90
-96.98
-95.72
-95.00
-93.31
-88.11
-76.59
-57.44
-32.34
-5.99
16.19
29.86
33.64
29.69
22.56
16.80
14.95
16.96
21.31
26.64
32.17
37.51
42.32
46.07
48.13
47.99
45.46
40.91
35.37
30.10
26.16
24.08
23.67
24.07
24.21
23.30
21.54
19.48
18.00
17.40
17.00
15.50
11.76
5.49
-2.46
-10.50
-17.13
-21.50
-23.73
-24.67
-25.31
-26.31
-27.91
-29.97
-32.25
-34.56
-36.61
-38.12
-38.89
-38.93
-38.52
-38.08
-37.88
-37.80
-37.42
-36.10
-33.36
-29.23
-24.18
-18.88
-13.99
-9.85
-6.52
-3.93
-1.82
0.16
2.25
4.59
6.98
8.90
9.46
8.42
5.08
-0.96
-9.48
-19.82
-31.14
-42.65
-53.78
-64.14
-73.62
-82.41
-90.97
-99.87
-109.53
-119.90
-130.29
-139.57
-146.50
-150.00
-149.20
-142.98
-129.81
-108.13
-77.26
-38.37
5.05
47.74
84.22
110.38
124.68
128.17
123.53
113.93
102.13
90.16
79.52
71.19
65.53
62.11
59.57
55.93
49.24
38.43
23.82
6.99
-9.82
-24.62
-36.27
-44.66
-50.16
-53.10
-53.29
-50.08
-42.81
-31.29
-16.07
1.68
20.45
38.76
55.31
69.01
78.92
84.56
86.18
84.67
81.27
77.09
72.64
67.73
61.78
54.21
45.25
36.04
28.28
23.48
22.38
24.80
29.91
36.72
44.16
51.82
59.95
69.10
79.66
91.79
105.61
121.11
137.97
154.39
168.53
179.07
185.36
187.45
186.57
185.22
186.63
193.46
204.56
217.22
227.94
232.51
226.42
206.35
172.01
126.43
75.05
20.97
-31.88
-79.03
-117.69
-148.50
-175.04
-201.42
-230.46
-262.74
-300.49
-341.95
-381.10
-411.04
-427.60
-430.60
-422.28
-406.64
-363.71
-292.97
-213.74
-148.40
-105.65
-81.89
-70.04
-63.38
-57.53
-50.12
-44.00
-40.33
-37.17
-33.56
-27.76
-20.75
-13.30
-6.04
0.98
5.20
6.38
7.17
11.09
20.19
34.58
55.53
82.09
112.09
140.61
164.09
181.36
192.96
199.78
202.65
204.51
207.11
210.35
211.73
209.40
203.26
194.55
184.54
162.61
126.67
82.45
38.08
-2.27
-37.29
-66.19
-87.96
-102.41
-110.50
-112.28
-109.13
-103.45
-97.83
-93.59
-92.18
-92.66
-94.51
-97.42
-99.68
-100.47
-100.29
-100.68
-102.63
-106.15
-110.25
-113.72
-115.39
-113.68
-108.44
-98.45
-85.21
-70.65
-56.46
-43.88
-34.14
-28.20
-26.06
-27.17
-30.56
-35.55
-41.60
-49.06
-59.25
-73.99
-94.31
-119.35
-146.29
-170.99
-189.36
-197.73
-193.73
-176.85
-148.98
-114.61
-80.18
-52.49
-36.35
-32.71
-37.57
-43.24
-41.34
-26.23
2.71
41.11
81.60
117.17
143.60
160.65
171.05
178.46
185.62
193.47
201.79
210.15
218.89
229.05
241.48
255.63
268.94
277.50
277.68
267.92
249.65
226.91
204.79
187.38
176.24
170.15
166.04
160.70
152.30
140.92
128.03
115.28
103.41
92.04
80.12
67.00
53.00
39.35
27.33
17.37
8.53
-1.13
-13.65
-30.11
-50.24
-72.66
-95.66
-117.92
-138.87
-158.53
-177.02
-193.96
-208.21
-218.04
-221.59
-217.51
-205.53
-186.71
-163.18
-137.62
-112.44
-89.28
-68.90
-51.48
-37.04
-25.76
-17.89
-13.51
-12.35
-13.70
-16.62
-20.07
-22.95
-24.16
-22.74
-18.21
-10.86
-1.86
7.11
14.37
18.75
19.79
17.55
12.37
4.71
-4.79
-15.22
-25.45
-34.46
-41.73
-47.53
-52.60
-57.77
-63.43
-69.40
-75.15
-80.25
-84.62
-88.62
-92.87
-98.10
-104.90
-113.50
-123.41
-133.20
-140.24
-141.13
-132.66
-113.05
-82.96
-45.71
-6.35
29.91
59.38
80.75
94.95
104.13
110.35
114.81
117.73
118.85
118.15
116.10
113.68
111.86
111.14
111.27
111.43
110.62
108.26
104.46
100.05
96.08
93.26
91.45
89.65
86.46
80.71
72.11
61.40
49.91
39.07
29.77
22.31
16.62
12.53
10.01
9.09
9.44
10.09
9.63
6.71
0.46
-9.26
-21.89
-36.29
-50.81
-63.53
-72.59
-76.53
-74.72
-67.64
-56.78
-44.26
-32.05
-21.18
-11.92
-4.14
2.30
7.47
11.35
14.07
15.95
17.69
20.91
26.83
35.58
46.26
57.50
68.01
76.89
83.67
88.30
92.68
98.13
104.57
110.83
115.85
119.42
122.01
124.30
126.71
131.85
140.81
152.37
163.72
172.50
177.98
180.81
182.21
183.34
188.25
198.70
212.86
226.11
233.76
233.03
223.17
204.94
159.42
81.93
-15.54
-110.74
-186.26
-236.64
-264.99
-277.50
-280.17
-277.61
-269.51
-255.83
-238.40
-220.57
-205.07
-192.80
-183.27
-175.66
-169.35
-161.55
-151.10
-139.18
-128.33
-120.17
-114.19
-108.25
-99.90
-88.08
-71.10
-49.96
-28.21
-10.51
-0.35
1.27
-4.35
-14.65
-26.87
-37.82
-45.54
-49.56
-50.70
-50.29
-49.60
-49.57
-50.55
-52.35
-53.72
-53.12
-49.17
-41.02
-28.46
-11.94
7.32
27.57
45.36
57.19
60.70
55.91
45.36
33.29
23.79
19.11
18.93
20.87
22.34
21.98
20.21
18.75
19.38
22.78
28.14
33.66
37.44
38.58
37.34
34.83
32.26
30.33
28.88
27.18
24.40
20.10
14.49
8.26
2.08
-3.72
-9.25
-14.93
-21.13
-28.03
-35.62
-43.71
-52.06
-60.35
-67.99
-74.12
-77.78
-78.26
-75.46
-70.11
-63.46
-56.93
-51.57
-47.83
-45.55
-44.24
-43.27
-42.07
-40.19
-37.34
-33.47
-28.83
-23.96
-19.40
-15.44
-11.87
-8.05
-3.27
2.79
9.73
16.59
22.15
25.58
26.65
25.81
23.85
21.50
19.20
17.06
15.05
13.12
11.26
9.47
7.70
5.84
3.78
1.42
-1.27
-4.36
-7.98
-12.27
-17.32
-22.96
-28.59
-33.26
-35.79
-35.12
-30.61
-22.30
-10.95
2.14
15.52
27.90
38.44
46.80
53.03
57.38
60.15
61.63
62.07
61.71
60.83
59.65
58.37
57.18
56.22
55.59
55.26
55.12
54.92
54.37
53.26
51.48
49.06
46.04
42.46
38.28
33.49
28.17
22.64
17.32
12.70
9.11
6.62
5.09
4.24
3.77
3.42
3.02
2.41
1.42
-0.06
-1.98
-4.04
-5.61
-5.86
-4.03
0.40
7.50
16.99
28.34
40.88
53.96
66.81
78.58
88.37
95.40
99.27
100.10
98.47
95.12
90.64
85.23
78.82
71.30
62.76
53.55
44.10
34.70
25.45
16.32
7.28
-1.60
-10.19
-18.35
-25.98
-32.91
-38.97
-43.96
-47.78
-50.56
-52.62
-54.32
-55.90
-57.31
-58.32
-58.65
-58.10
-56.61
-54.21
-51.11
-47.78
-45.16
-44.39
-46.20
-50.15
-54.09
-54.63
-48.42
-33.79
-11.74
14.43
40.58
63.56
82.14
96.63
107.42
113.71
113.43
104.43
86.10
60.38
31.19
2.70
-22.31
-43.28
-61.10
-76.77
-90.38
-100.92
-107.09
-108.31
-105.21
-99.26
-92.09
-84.77
-77.55
-70.23
-62.70
-55.31
-48.83
-44.20
-41.98
-42.11
-43.92
-46.41
-48.67
-50.21
-51.06
-51.63
-52.50
-54.09
-56.51
-59.48
-62.36
-64.30
-64.29
-61.45
-55.21
-45.58
-33.22
-19.38
-5.63
6.63
16.46
23.57
28.24
31.03
32.50
33.06
32.98
32.50
31.92
31.56
31.67
32.32
33.40
34.59
35.61
36.25
36.42
35.99
34.61
31.72
26.72
19.25
9.51
-1.73
-13.31
-24.08
-33.29
-40.71
-46.59
-51.45
-55.82
-60.17
-64.84
-70.04
-75.71
-81.35
-85.87
-87.67
-84.98
-76.51
-61.92
-42.24
-19.68
2.89
22.80
38.26
48.70
54.68
57.35
57.89
57.15
55.55
53.26
50.49
47.60
45.03
43.13
42.02
41.48
41.09
40.35
38.89
36.62
33.72
30.57
27.56
24.89
22.45
19.85
16.65
12.61
7.92
3.15
-1.02
-4.04
-5.77
-6.47
-6.57
-6.58
-6.87
-7.73
-9.38
-11.94
-15.19
-18.47
-20.64
-20.40
-16.77
-9.59
0.33
11.39
21.77
29.99
35.34
37.84
38.00
36.41
33.48
29.47
24.59
19.24
13.92
9.10
4.96
1.24
-2.58
-7.00
-12.21
-17.96
-23.70
-28.91
-33.37
-37.22
-40.90
-44.85
-49.27
-54.01
-58.66
-62.69
-65.69
-67.54
-68.41
-68.71
-68.88
-69.28
-70.15
-71.55
-73.49
-75.79
-78.02
-79.34
-78.55
-74.42
-66.12
-53.68
-38.13
-21.21
-4.83
9.54
21.26
30.41
37.45
42.79
46.58
48.80
49.50
49.07
48.21
47.66
47.82
48.55
49.23
49.11
47.67
44.88
41.12
36.88
32.49
27.91
22.86
17.03
10.36
3.10
-4.21
-11.01
-16.91
-21.79
-25.77
-29.14
-32.27
-35.59
-39.51
-44.25
-49.63
-54.87
-58.68
-59.58
-56.50
-49.17
-38.27
-25.20
-11.44
1.79
13.74
23.98
32.23
38.20
41.76
43.14
43.00
42.28
41.91
42.42
43.83
45.72
47.51
48.75
49.24
49.04
48.36
47.41
46.35
45.17
43.71
41.76
39.05
35.47
31.05
26.08
21.03
16.39
12.57
9.64
7.33
5.08
2.23
-1.74
-6.92
-12.87
-18.64
-23.03
-24.88
-23.47
-18.70
-11.11
-1.69
8.40
18.17
26.96
34.43
40.47
45.07
48.21
49.90
50.29
49.71
48.60
47.47
46.72
46.54
46.83
47.33
47.61
47.29
46.07
43.80
40.57
36.60
32.20
27.65
23.14
18.72
14.32
9.84
5.26
0.59
-4.09
-8.73
-13.37
-18.10
-23.02
-28.19
-33.55
-39.06
-44.69
-50.51
-56.52
-62.45
-67.65
-71.10
-71.75
-68.91
-62.74
-54.20
-44.86
-36.32
-29.61
-25.03
-22.10
-19.98
-17.81
-15.07
-11.61
-7.55
-3.15
1.28
5.50
9.25
12.32
14.61
16.29
17.92
20.34
24.44
30.71
38.87
47.90
56.25
62.46
65.50
64.98
61.09
54.27
45.04
33.97
21.83
9.65
-1.33
-9.94
-15.54
-18.28
-18.98
-18.76
-18.45
-18.10
-16.97
-13.91
-7.93
1.11
12.29
23.89
34.04
41.47
45.85
47.77
48.19
47.86
47.05
45.57
43.19
40.00
36.59
33.81
32.34
32.28
33.09
33.85
33.69
32.24
29.65
26.40
22.98
19.56
16.03
12.12
7.62
2.55
-2.83
-8.17
-13.13
-17.54
-21.45
-25.11
-28.86
-33.05
-37.84
-43.11
-48.36
-52.77
-55.31
-55.09
-51.64
-45.09
-36.23
-26.27
-16.49
-7.92
-1.10
3.93
7.48
9.97
11.75
13.03
13.88
14.36
14.62
14.91
15.52
16.61
18.14
19.82
21.22
21.94
21.81
20.90
19.44
17.64
15.55
13.13
10.37
7.48
4.95
3.47
3.69
6.07
10.70
17.38
25.58
34.54
43.37
51.15
57.03
60.40
60.92
58.52
53.39
45.93
36.84
27.25
18.60
12.43
9.81
10.95
14.91
19.80
23.46
24.12
20.91
14.03
4.33
-7.21
-19.87
-33.07
-46.00
-57.39
-65.85
-70.63
-72.37
-73.10
-75.23
-80.01
-86.39
-91.17
-90.47
-81.69
-64.92
-42.86
-19.43
2.01
19.81
34.07
45.86
56.10
64.98
71.92
75.92
76.00
71.72
63.41
52.27
40.09
28.64
18.91
10.71
2.86
-6.00
-16.56
-28.43
-40.33
-50.88
-59.16
-64.97
-68.43
-69.57
-68.09
-63.64
-56.25
-46.67
-36.29
-26.67
-18.96
-13.55
-10.09
-7.79
-5.79
-3.37
-0.18
3.89
8.61
13.56
18.19
21.99
24.56
25.79
25.86
25.17
24.22
23.46
23.20
23.56
24.58
26.16
28.20
30.49
32.72
34.60
35.98
36.96
38.03
39.83
43.01
47.92
54.55
62.55
71.43
80.74
90.13
99.35
108.20
116.59
124.66
132.88
141.99
152.73
165.31
178.99
191.98
201.65
205.10
199.85
184.43
158.80
124.54
84.74
43.50
5.07
-27.11
-51.24
-67.33
-76.71
-81.27
-82.68
-82.21
-80.79
-79.30
-78.63
-79.34
-81.48
-84.60
-88.11
-92.08
-97.17
-104.14
-112.99
-122.27
-129.27
-131.27
-127.25
-119.23
-111.91
-110.25
-116.43
-128.17
-139.49
-143.72
-137.07
-120.70
-100.12
-82.60
-72.97
-71.38
-73.98
-75.97
-74.69
-70.85
-67.59
-68.17
-75.29
-88.37
-103.74
-116.57
-123.53
-124.38
-121.42
-117.88
-116.30
-120.41
-131.21
-146.35
-161.35
-172.46
-178.41
-180.08
-179.36
-178.07
-182.10
-195.03
-216.15
-240.99
-264.70
-284.34
-298.69
-307.38
-310.33
-313.94
-323.11
-338.34
-355.82
-371.14
-381.97
-387.93
-389.56
-349.45
-250.80
-106.16
49.12
183.40
283.93
352.69
397.07
424.22
439.29
439.65
423.92
395.29
361.12
328.51
301.20
279.79
263.42
251.03
237.06
217.69
192.93
166.38
142.37
123.74
111.81
106.87
108.42
112.21
114.53
114.10
112.36
111.55
112.76
115.56
118.28
118.93
114.73
104.71
90.48
75.51
63.13
54.97
50.84
49.58
49.22
47.67
43.47
36.05
25.66
13.15
-0.24
-12.96
-23.47
-30.71
-34.36
-34.92
-33.38
-30.81
-27.96
-25.31
-22.97
-20.97
-19.32
-17.89
-16.43
-14.62
-12.28
-9.49
-6.70
-4.41
-2.73
-1.16
1.47
6.54
14.95
26.55
40.13
53.84
65.95
75.50
82.12
85.84
86.70
84.62
79.41
71.10
60.06
46.66
32.51
19.34
8.49
0.81
-3.25
-3.74
-1.16
3.30
7.79
10.20
8.64
2.21
-8.65
-22.44
-37.28
-51.69
-64.97
-77.05
-87.86
-97.01
-103.58
-106.54
-105.35
-100.66
-94.32
-88.92
-86.91
-89.68
-97.24
-108.28
-120.69
-132.23
-141.06
-146.06
-146.87
-143.87
-138.15
-131.42
-125.52
-121.70
-119.95
-118.86
-116.30
-110.58
-101.56
-90.93
-81.35
-74.98
-72.23
-71.42
-69.71
-64.43
-54.26
-39.53
-21.68
-2.43
17.03
36.23
54.95
72.69
88.40
100.64
108.07
109.84
106.11
98.05
87.60
76.67
66.41
56.94
47.66
37.75
26.84
15.21
3.81
-5.83
-12.55
-15.85
-15.70
-12.11
-5.06
5.33
18.65
33.99
50.87
67.98
83.24
94.79
102.01
105.66
107.34
108.78
111.28
117.28
127.25
139.44
151.35
161.41
169.27
175.18
179.48
182.50
187.55
196.12
206.93
217.43
225.84
231.49
234.13
233.70
230.42
228.67
230.28
232.93
232.10
224.39
208.65
185.74
158.08
104.70
25.07
-61.61
-132.47
-178.08
-201.60
-210.06
-209.39
-203.19
-193.73
-178.56
-157.70
-134.70
-114.12
-98.42
-87.35
-80.38
-76.37
-74.52
-71.28
-64.75
-55.37
-44.52
-33.57
-23.61
-16.30
-13.84
-18.42
-29.30
-45.26
-65.36
-88.56
-113.86
-139.35
-162.18
-178.97
-186.75
-182.83
-166.84
-141.49
-111.54
-83.13
-60.80
-46.22
-38.40
-35.09
-33.58
-31.85
-28.87
-18.43
1.07
25.46
47.61
62.41
68.28
66.24
58.94
49.59
41.28
34.83
30.13
26.79
24.39
22.48
20.91
20.14
19.87
21.85
26.34
32.88
40.83
49.40
57.67
65.04
71.47
77.10
82.37
86.62
88.95
88.65
85.33
78.99
69.60
58.67
46.68
33.85
19.65
3.70
-13.80
-32.22
-50.41
-67.24
-82.27
-96.20
-109.93
-124.14
-138.40
-151.02
-159.98
-162.91
-158.26
-146.48
-130.31
-113.49
-99.47
-90.38
-86.66
-87.90
-91.77
-95.33
-96.64
-95.77
-94.40
-94.83
-98.96
-107.42
-119.71
-132.12
-138.92
-134.86
-117.05
-85.37
-42.05
8.86
66.42
120.08
156.25
167.84
158.14
136.69
113.56
96.00
87.15
86.06
88.39
91.19
92.97
93.17
91.49
87.72
81.97
74.40
65.05
53.61
41.25
30.31
22.16
18.04
18.54
23.79
33.24
44.28
52.96
56.31
53.96
47.98
41.27
35.77
32.16
29.88
27.82
25.09
21.84
18.69
15.82
13.17
9.29
3.29
-4.62
-13.07
-20.07
-23.59
-22.58
-17.40
-9.56
-1.12
6.29
11.76
15.06
16.28
15.89
14.44
12.49
10.56
9.01
8.05
7.47
6.65
4.58
0.24
-7.12
-17.51
-29.95
-42.62
-53.26
-59.75
-60.71
-55.89
-46.25
-33.64
-20.11
-7.28
3.97
13.17
20.35
25.95
30.41
33.89
36.12
36.76
35.85
33.90
31.10
27.90
25.12
23.56
23.33
23.77
23.84
22.75
20.15
14.73
5.81
-5.99
-19.02
-31.63
-43.04
-53.32
-62.72
-71.52
-81.56
-94.12
-108.98
-124.80
-140.38
-155.33
-169.63
-182.57
-181.87
-159.85
-118.53
-68.10
-18.71
24.48
60.23
88.63
110.22
125.39
132.83
132.29
126.41
120.15
118.73
126.46
142.12
161.72
179.28
187.57
181.99
162.89
134.62
103.15
73.08
45.96
20.74
-5.31
-35.98
-74.28
-118.73
-166.30
-213.25
-256.52
-294.47
-326.44
-352.39
-372.46
-385.62
-389.32
-380.71
-357.88
-321.13
-273.38
-219.02
-162.78
-108.89
-60.47
-19.50
12.43
34.33
46.10
48.98
45.89
40.69
37.18
38.07
44.56
56.09
71.01
87.16
102.43
115.20
124.58
130.44
133.32
134.04
133.33
131.64
129.13
125.79
121.63
116.80
111.63
106.48
101.64
97.19
93.14
89.37
85.76
82.12
78.27
73.96
68.96
63.15
56.51
49.22
41.55
33.89
26.64
20.19
14.76
10.35
6.70
3.28
-0.51
-5.16
-10.84
-17.31
-23.92
-29.69
-33.51
-34.38
-31.64
-25.11
-15.20
-2.87
10.56
23.67
35.23
44.43
50.96
54.91
56.61
56.50
54.93
52.28
48.93
45.34
42.05
39.49
37.88
37.12
36.89
36.70
36.07
34.67
32.34
29.12
25.14
20.63
15.83
11.00
6.27
1.67
-2.89
-7.57
-12.42
-17.38
-22.21
-26.59
-30.25
-33.10
-35.30
-37.25
-39.50
-42.57
-46.78
-52.04
-57.76
-62.83
-65.81
-65.29
-60.28
-50.57
-36.87
-20.59
-3.39
13.25
28.38
41.52
52.57
61.52
68.27
72.70
74.73
74.65
73.17
71.29
69.91
69.57
70.24
71.43
72.46
72.79
72.47
72.06
72.38
73.96
76.71
79.91
82.59
83.74
82.87
80.49
78.03
77.16
79.04
83.78
90.45
97.76
103.92
107.57
108.63
108.38
108.85
112.04
119.36
131.28
147.26
164.28
177.21
180.42
169.69
143.66
104.79
59.03
14.07
-22.96
-49.35
-67.15
-81.05
-95.54
-113.45
-135.40
-160.29
-189.39
-217.02
-235.42
-241.12
-236.31
-224.85
-209.86
-193.37
-176.65
-160.56
-145.21
-131.39
-120.10
-111.61
-104.86
-98.65
-92.50
-86.89
-82.88
-80.77
-80.56
-80.62
-78.04
-69.42
-53.31
-31.18
-6.76
15.68
33.28
45.04
51.70
52.95
51.55
49.57
47.90
46.73
45.59
43.36
37.85
26.66
9.17
-13.95
-39.95
-64.80
-84.69
-97.42
-102.81
-102.08
-96.62
-87.13
-73.06
-54.17
-31.43
-7.25
15.28
33.55
46.57
55.31
59.34
59.80
57.94
54.64
50.41
45.66
40.99
37.20
34.99
34.57
35.83
38.02
40.02
40.80
39.78
36.89
32.43
26.78
20.16
12.93
5.26
-2.64
-10.45
-17.69
-24.00
-29.39
-34.40
-39.93
-46.54
-54.27
-62.15
-68.24
-69.96
-64.87
-51.40
-29.28
0.30
35.16
72.47
109.63
144.90
177.66
208.19
237.10
264.58
289.75
310.49
323.66
326.25
316.65
295.30
264.65
228.45
190.52
153.56
118.61
84.75
50.83
16.47
-17.58
-50.15
-80.31
-107.92
-133.86
-159.72
-188.24
-221.56
-260.73
-306.14
-357.56
-413.12
-468.09
-514.91
-545.03
-553.35
-538.31
-501.99
-449.42
-387.03
-320.52
-253.62
-188.71
-128.11
-77.02
-39.48
-16.20
-4.48
0.13
2.04
4.56
9.20
28.86
65.42
109.32
147.81
174.38
189.06
194.54
193.93
189.92
184.32
175.91
164.13
150.14
136.09
123.65
113.18
104.37
96.69
89.63
81.17
70.18
56.75
41.41
24.74
7.37
-9.14
-22.41
-30.37
-33.49
-33.64
-33.24
-35.10
-39.39
-45.16
-49.92
-50.45
-44.10
-30.28
-10.07
14.46
39.44
61.14
76.08
81.94
78.16
66.26
49.62
32.92
20.83
16.30
19.65
28.12
37.66
44.88
48.43
49.16
48.95
49.07
49.27
48.45
45.38
39.85
32.94
26.26
20.99
17.11
13.78
9.57
4.11
-1.93
-7.31
-11.04
-13.09
-14.27
-15.86
-18.83
-23.42
-28.79
-33.37
-35.53
-34.12
-29.02
-21.27
-12.57
-4.73
0.86
3.77
4.36
3.43
1.65
-0.59
-3.28
-6.08
-8.28
-8.93
-7.03
-2.07
5.58
14.24
21.40
24.31
21.81
15.15
7.87
4.61
8.88
21.06
37.92
53.85
61.85
58.11
43.93
24.14
4.16
-12.81
-26.64
-40.05
-54.69
-70.20
-83.99
-92.63
-93.42
-85.44
-69.85
-49.37
-27.32
-6.52
11.19
25.33
36.47
44.82
50.04
51.65
49.24
42.66
32.31
19.00
4.00
-11.35
-26.09
-39.70
-51.84
-62.00
-69.16
-71.87
-69.16
-61.32
-50.36
-39.56
-32.02
-29.20
-30.26
-32.71
-34.05
-33.62
-33.24
-36.30
-45.65
-61.56
-80.87
-98.09
-107.74
-106.62
-94.99
-76.05
-54.20
-33.12
-14.57
1.59
16.28
30.06
42.52
52.51
58.92
61.44
60.79
58.48
56.12
54.94
55.50
57.73
60.95
64.02
65.69
65.06
62.24
58.67
56.92
59.81
69.16
84.94
105.16
126.80
147.21
165.12
180.83
195.43
209.74
223.59
235.75
244.35
247.51
243.83
232.69
214.37
190.10
161.89
132.12
102.76
74.75
47.83
21.03
-6.40
-34.32
-61.70
-87.18
-109.99
-130.20
-148.39
-164.75
-178.60
-188.57
-193.50
-193.31
-189.20
-183.02
-175.97
-167.88
-157.46
-143.50
-126.32
-108.34
-93.29
-84.43
-82.66
-85.86
-89.70
-89.69
-83.33
-71.05
-55.64
-40.47
-27.65
-17.17
-7.33
3.81
17.03
31.33
44.44
54.08
59.22
60.50
59.66
58.42
57.51
56.41
54.00
49.35
42.38
33.64
23.67
12.32
-1.29
-17.93
-37.15
-56.50
-71.76
-78.40
-73.38
-56.48
-30.49
-0.08
29.85
55.65
75.49
89.18
97.32
100.52
99.27
94.22
86.64
78.57
72.49
70.49
73.49
80.95
91.11
101.80
111.17
118.05
121.93
122.70
120.54
116.22
111.46
108.83
111.05
119.70
134.23
151.54
166.84
175.07
172.43
157.32
130.39
93.91
50.99
4.95
-41.01
-83.88
-121.04
-150.57
-171.82
-185.49
-193.41
-198.23
-202.70
-208.63
-216.48
-225.32
-233.32
-238.51
-239.23
-234.31
-223.70
-208.62
-191.51
-175.67
-164.52
-160.36
-163.72
-172.82
-183.94
-193.53
-199.52
-201.36
-199.60
-194.94
-187.54
-177.90
-166.45
-153.28
-140.17
-129.99
-124.79
-125.03
-129.26
-134.48
-138.37
-137.86
-127.63
-104.81
-69.46
-23.13
31.16
89.33
146.68
196.03
231.83
254.03
262.29
256.10
237.42
209.93
178.29
147.08
116.89
88.67
68.14
57.35
54.09
55.20
56.19
52.82
61.42
87.14
101.47
99.82
92.87
83.56
72.17
56.79
37.07
15.19
-7.80
-28.85
-40.42
-40.54
-33.24
-23.82
-18.22
-18.74
-24.84
-37.88
-59.38
-87.29
-120.95
-159.14
-196.40
-225.64
-237.63
-225.77
-191.52
-142.33
-86.05
-30.98
17.05
66.02
112.21
148.55
172.35
185.07
189.37
188.22
182.56
171.71
154.70
129.74
98.90
67.33
40.71
23.43
17.58
21.43
30.13
37.89
39.10
32.65
21.09
8.08
-3.70
-13.06
-20.25
-25.92
-30.40
-34.11
-36.07
-35.30
-32.25
-29.23
-27.91
-29.31
-32.90
-36.82
-39.05
-37.41
-30.96
-20.56
-8.49
2.72
11.23
16.69
20.14
23.17
27.58
33.99
41.43
47.72
50.53
48.24
40.85
29.94
18.06
8.19
2.22
0.65
2.75
7.11
12.33
17.71
23.70
28.66
32.64
36.08
39.56
43.76
49.25
56.07
63.43
69.46
71.56
67.62
56.54
38.95
17.23
-5.22
-25.20
-40.75
-51.50
-58.37
-62.45
-64.58
-65.05
-63.72
-60.48
-55.54
-49.61
-43.64
-38.68
-35.46
-34.59
-36.43
-40.95
-47.46
-54.55
-60.14
-62.00
-58.27
-48.06
-31.83
-11.37
10.59
30.95
46.86
56.31
58.77
55.39
48.88
42.76
40.10
42.50
49.43
58.42
66.01
69.02
65.65
55.88
41.27
24.18
6.90
-8.96
-22.71
-34.46
-44.68
-53.93
-62.48
-70.37
-77.47
-83.76
-89.34
-94.38
-98.98
-103.03
-106.20
-108.15
-108.72
-108.08
-106.66
-104.95
-103.20
-101.25
-98.60
-94.65
-88.95
-81.48
-72.70
-63.40
-54.33
-45.83
-37.53
-28.25
-16.35
-0.10
21.76
49.73
83.38
121.44
161.94
202.35
239.80
271.57
295.56
310.87
317.84
317.81
312.51
303.37
291.12
275.83
257.36
235.76
211.39
184.82
156.44
126.25
93.99
59.47
22.97
-14.55
-51.58
-86.42
-117.46
-143.38
-162.94
-175.01
-178.84
-174.63
-164.16
-150.67
-137.97
-128.90
-124.21
-122.47
-121.11
-117.95
-112.51
-106.23
-101.65
-101.10
-105.55
-114.38
-125.52
-136.15
-143.37
-144.76
-138.89
-125.64
-106.26
-83.01
-58.56
-35.31
-14.95
1.62
14.17
23.03
29.05
33.61
38.46
45.28
55.18
68.26
83.51
99.03
112.62
122.48
127.79
128.89
127.10
124.22
121.94
121.30
122.49
124.88
127.37
128.84
128.60
126.65
123.74
121.13
120.09
121.44
125.09
129.92
134.10
135.74
133.58
127.38
117.84
106.01
92.55
77.44
59.97
39.31
15.07
-12.23
-41.09
-69.27
-94.12
-113.04
-123.88
-125.35
-117.28
-100.71
-77.75
-51.26
-24.38
-0.02
19.34
32.08
37.65
36.74
31.08
23.03
14.72
7.34
0.98
-4.94
-10.96
-17.08
-22.80
-27.63
-31.56
-35.21
-39.42
-44.70
-50.80
-56.94
-62.29
-66.53
-69.91
-73.04
-76.38
-79.89
-83.10
-85.52
-86.93
-87.52
-87.73
-88.02
-88.84
-90.64
-93.77
-98.38
-104.53
-111.90
-119.62
-126.22
-129.81
-128.52
-121.17
-107.53
-88.40
-65.51
-40.97
-16.54
6.60
27.75
46.24
60.78
70.63
76.04
78.24
79.18
81.03
85.45
92.89
102.60
112.15
120.01
125.91
130.00
132.28
132.61
130.87
126.98
120.58
109.36
91.82
67.11
34.17
-7.96
-58.82
-115.61
-173.46
-226.43
-270.71
-301.85
-315.76
-310.86
-288.75
-253.31
-209.26
-161.32
-102.13
-38.65
15.18
50.76
69.01
75.39
74.90
70.95
65.66
60.86
56.04
52.24
52.51
57.59
66.29
75.85
83.01
84.89
80.62
69.67
54.69
40.65
32.19
32.20
40.41
55.47
74.59
94.91
112.31
124.05
129.38
128.97
124.25
116.73
107.38
91.72
69.33
43.12
18.01
-2.05
-15.50
-22.78
-25.47
-25.58
-24.42
-21.72
-17.30
-11.47
-5.01
1.11
6.54
11.71
16.33
21.42
27.63
34.24
39.48
41.69
40.27
36.14
31.29
26.93
23.89
22.20
20.83
18.17
12.47
2.01
-15.30
-36.38
-59.96
-83.87
-104.92
-119.54
-125.06
-120.98
-109.52
-94.93
-81.65
-73.26
-70.45
-71.58
-74.34
-77.32
-80.75
-85.86
-93.48
-102.93
-112.63
-120.22
-124.01
-123.67
-119.99
-114.19
-106.98
-98.24
-87.14
-73.11
-55.77
-35.35
-12.79
10.22
31.35
48.09
58.10
59.70
51.98
35.15
10.62
-19.02
-50.14
-78.40
-99.62
-110.97
-111.73
-103.45
-88.78
-69.89
-47.07
-18.33
19.67
69.66
131.77
202.23
273.60
336.39
381.52
402.77
398.21
370.19
324.12
266.66
204.12
141.66
83.12
31.17
-12.54
-47.61
-74.98
-96.67
-115.11
-132.15
-148.49
-163.78
-177.29
-188.85
-199.18
-209.24
-218.84
-225.66
-225.45
-213.74
-188.43
-151.74
-110.23
-72.58
-46.38
-35.20
-37.42
-47.13
-56.47
-58.36
-48.28
-25.07
9.47
51.33
95.30
136.07
169.01
190.85
199.84
196.06
181.29
158.91
132.93
106.76
82.22
59.27
36.47
12.25
-13.68
-39.74
-62.52
-78.79
-87.11
-88.19
-84.13
-77.52
-70.48
-64.20
-58.87
-53.05
-45.22
-34.54
-20.61
-3.19
17.44
40.01
62.28
81.66
97.40
109.14
116.45
119.27
118.41
115.12
110.47
105.17
99.82
97.03
98.32
103.01
108.91
113.85
116.58
116.81
115.35
102.09
75.20
42.10
12.04
-11.66
-30.43
-46.38
-60.54
-72.93
-83.43
-90.38
-93.52
-94.28
-94.61
-95.44
-96.64
-97.99
-99.16
-99.71
-97.38
-90.63
-79.46
-65.26
-50.46
-36.19
-24.04
-15.33
-10.58
-8.42
-7.30
-6.39
-5.77
-5.91
-7.23
-10.10
-14.28
-18.80
-21.93
-22.62
-21.14
-18.90
-17.65
-18.69
-22.65
-29.21
-37.54
-46.00
-53.33
-58.84
-62.11
-62.63
-59.56
-52.06
-39.58
-22.31
-1.48
20.57
40.88
56.87
66.95
70.79
69.03
63.05
54.55
45.40
37.52
32.50
31.90
36.73
46.60
59.37
71.92
81.26
85.72
85.34
81.07
75.40
71.13
69.88
71.37
73.87
75.23
73.69
68.32
58.22
44.53
29.65
15.36
1.50
-13.70
-32.36
-56.01
-84.64
-118.16
-153.37
-184.77
-206.47
-213.83
-203.73
-174.76
-127.87
-61.08
13.69
77.18
115.61
128.26
122.95
108.74
92.02
75.70
63.12
52.06
43.18
39.20
42.11
51.11
62.98
73.71
76.51
68.95
50.75
26.02
0.47
-21.76
-39.43
-53.44
-65.12
-77.19
-88.36
-97.26
-101.17
-97.60
-85.87
-67.85
-47.52
-29.92
-20.00
-20.01
-32.69
-58.04
-93.13
-132.83
-170.96
-201.56
-219.95
-223.50
-211.10
-183.94
-143.86
-93.28
-35.37
25.62
84.53
135.89
175.34
200.96
213.27
215.17
210.64
203.29
195.45
188.03
180.91
173.56
165.50
155.99
144.20
129.27
110.66
88.67
64.66
40.85
19.74
3.26
-7.86
-14.16
-17.07
-18.23
-18.87
-19.43
-19.55
-18.21
-14.10
-6.06
6.59
23.52
43.17
62.87
79.31
89.44
91.34
84.70
70.81
51.84
29.99
6.78
-17.06
-41.13
-64.78
-86.66
-105.07
-118.71
-127.36
-132.19
-135.20
-138.24
-141.97
-145.61
-147.38
-145.62
-139.74
-130.60
-120.04
-110.01
-101.69
-95.05
-89.12
-82.57
-74.47
-64.75
-54.24
-44.31
-36.22
-30.71
-27.75
-26.80
-27.21
-28.63
-31.16
-35.16
-40.82
-47.76
-55.25
-62.58
-69.52
-76.35
-83.66
-91.84
-100.54
-108.54
-113.89
-114.82
-110.52
-101.34
-88.49
-73.52
-57.81
-42.40
-28.09
-15.12
-3.75
5.68
12.95
18.23
21.92
24.39
25.65
25.47
24.67
23.89
23.19
22.22
20.95
20.02
20.68
24.46
32.57
47.40
69.00
94.19
117.95
136.18
147.49
152.99
155.06
155.98
160.30
170.13
184.15
199.25
213.50
226.96
240.26
253.23
264.60
277.03
292.17
308.91
324.00
334.44
338.47
335.13
324.35
280.43
196.59
90.24
-8.60
-79.61
-119.36
-134.37
-133.66
-125.14
-114.91
-103.24
-89.84
-75.87
-63.13
-51.82
-40.86
-29.88
-20.13
-11.98
-4.82
2.21
7.98
9.40
3.89
-8.89
-26.64
-44.95
-58.56
-61.38
-50.45
-27.91
0.32
27.90
50.53
66.40
75.29
77.95
75.52
68.61
56.81
39.43
16.92
-8.79
-35.12
-59.95
-82.57
-103.77
-125.59
-150.40
-179.22
-210.20
-238.49
-257.73
-262.56
-250.98
-225.33
-191.08
-154.64
-120.87
-91.96
-67.95
-48.07
-31.87
-19.61
-11.32
-5.95
-1.30
5.23
15.43
29.74
47.42
66.93
86.44
104.29
119.12
129.71
135.13
134.68
128.34
116.71
100.87
81.86
61.02
40.02
20.56
4.23
-8.17
-16.51
-21.34
-23.93
-26.75
-31.64
-39.01
-48.08
-57.19
-65.59
-72.93
-79.22
-85.05
-93.15
-105.12
-120.60
-137.77
-153.76
-167.62
-178.70
-186.56
-191.60
-197.54
-206.46
-217.42
-227.49
-232.79
-233.41
-230.64
-225.85
-220.25
-217.37
-216.90
-214.57
-205.45
-186.59
-163.00
-142.28
-130.93
-106.98
-61.86
-3.66
51.11
79.82
88.89
84.09
70.24
59.03
59.24
73.24
100.63
139.02
184.59
234.66
284.77
333.08
379.42
421.75
452.72
464.99
454.89
424.06
379.87
329.93
282.38
243.75
216.79
199.14
187.19
178.16
170.47
163.64
155.31
143.05
125.10
100.82
70.90
38.43
8.02
-16.23
-32.33
-41.95
-48.48
-55.23
-63.69
-73.44
-82.88
-90.81
-97.43
-104.02
-112.16
-122.21
-133.56
-144.10
-151.35
-154.33
-154.28
-153.64
-154.44
-157.16
-160.72
-164.97
-168.71
-169.96
-167.21
-160.31
-150.23
-138.76
-128.49
-122.83
-127.90
-146.44
-175.83
-209.69
-240.57
-261.66
-268.57
-260.34
-239.73
-215.24
-192.84
-173.26
-154.01
-132.57
-107.57
-79.39
-49.74
0.35
68.46
134.59
180.10
200.89
202.62
193.13
178.47
163.07
149.69
136.30
122.21
109.33
99.84
92.59
87.24
82.58
78.13
73.95
67.68
58.70
49.02
40.92
34.86
30.03
25.04
19.57
13.76
8.24
3.48
0.93
1.84
6.21
13.46
22.77
34.37
48.39
63.35
77.28
89.07
98.50
105.65
110.67
108.62
96.17
73.92
46.20
18.38
-4.76
-20.15
-27.16
-27.57
-24.99
-22.40
-21.48
-22.16
-23.27
-23.11
-20.69
-16.92
-13.23
-11.48
-12.50
-16.12
-21.25
-26.80
-32.00
-36.69
-41.26
-45.98
-50.52
-53.55
-54.01
-51.92
-48.95
-47.18
-48.63
-54.15
-62.43
-70.38
-73.76
-70.25
-60.21
-46.43
-32.27
-19.54
-9.76
-4.05
1.30
11.36
26.47
45.37
66.27
88.26
112.18
138.52
166.97
196.29
226.23
254.90
278.95
294.21
297.10
286.47
262.36
227.07
172.29
103.45
36.46
-13.72
-42.47
-62.24
-84.35
-115.52
-154.91
-196.73
-230.70
-248.83
-248.48
-232.62
-207.92
-181.62
-161.49
-153.85
-161.93
-183.00
-210.97
-237.98
-256.12
-259.51
-245.54
-216.91
-179.85
-140.86
-102.54
-64.42
-24.86
17.15
60.59
102.67
139.04
165.55
179.85
182.88
177.67
168.23
158.53
151.67
149.47
151.96
158.02
166.27
176.14
187.63
200.52
213.58
224.05
228.33
223.32
207.93
183.77
154.63
124.97
98.25
75.86
57.16
40.23
23.10
4.18
-17.63
-43.13
-72.70
-106.04
-141.79
-177.40
-209.54
-234.71
-250.64
-257.05
-255.60
-249.13
-240.71
-232.82
-226.99
-223.71
-221.59
-218.61
-212.72
-202.25
-186.01
-163.55
-135.55
-103.82
-70.90
-37.51
-4.19
28.18
58.28
84.93
107.52
125.75
139.49
148.42
155.20
161.86
168.69
174.44
178.02
179.55
180.16
181.29
183.71
191.28
205.93
226.28
248.37
268.43
284.93
298.76
312.24
307.50
275.75
221.19
157.98
98.17
46.23
2.30
-33.93
-59.61
-77.18
-85.15
-83.42
-74.82
-64.36
-56.55
-53.65
-56.43
-64.39
-76.93
-89.95
-100.08
-106.23
-109.79
-113.24
-118.76
-127.48
-139.06
-151.97
-161.55
-163.83
-157.58
-144.77
-129.43
-115.87
-107.45
-105.81
-111.12
-121.19
-133.68
-146.91
-160.13
-172.77
-183.80
-191.55
-193.66
-187.54
-170.44
-140.86
-99.32
-48.63
6.61
61.07
109.82
149.23
177.39
194.13
200.53
198.37
189.86
177.41
163.55
150.61
140.21
132.94
128.15
124.03
118.17
108.20
92.57
71.24
45.89
19.63
-3.81
-21.24
-31.04
-33.62
-31.12
-26.40
-21.93
-18.91
-17.16
-15.64
-13.18
-9.21
-4.01
1.35
5.31
6.24
3.04
-4.35
-14.66
-25.58
-34.54
-39.76
-41.08
-39.97
-38.76
-39.60
-43.66
-50.83
-59.95
-68.89
-74.69
-73.88
-63.43
-42.24
-12.35
20.85
50.35
70.19
78.02
75.94
69.06
62.83
60.59
62.67
67.39
72.87
78.27
83.84
90.01
96.31
101.08
102.02
97.32
86.47
70.59
51.86
32.72
15.09
0.04
-12.24
-22.03
-29.65
-35.15
-38.35
-39.11
-37.74
-35.33
-33.69
-34.82
-40.15
-49.75
-62.01
-73.91
-81.83
-82.72
-75.09
-59.52
-38.54
-15.84
4.90
21.07
31.64
37.08
38.69
37.84
35.49
32.09
27.94
23.49
19.58
17.17
16.93
18.81
21.73
23.98
23.78
20.17
13.59
5.82
-0.77
-4.31
-4.38
-2.28
-0.30
-0.56
-4.01
-10.11
-17.34
-24.12
-29.52
-33.43
-36.18
-38.11
-39.31
-39.67
-39.06
-37.36
-34.40
-29.84
-23.24
-14.39
-3.62
7.98
18.86
27.44
32.62
34.02
31.92
26.95
19.80
11.13
1.49
-8.62
-18.65
-28.09
-36.47
-43.51
-49.17
-53.77
-57.89
-62.26
-67.45
-73.67
-80.61
-87.66
-94.37
-100.73
-107.25
-114.62
-123.16
-132.48
-141.49
-148.97
-154.21
-157.44
-159.70
-162.37
-166.59
-172.81
-180.65
-188.85
-195.27
-197.06
-191.18
-175.36
-149.13
-114.48
-75.54
-37.34
-4.06
22.18
41.67
56.31
68.32
79.14
89.16
98.12
105.83
112.69
119.69
127.97
138.28
150.55
163.96
177.15
188.80
197.97
204.34
208.11
209.83
209.95
208.73
206.14
202.11
196.85
190.92
185.19
180.51
177.34
175.40
173.89
171.63
167.54
160.84
151.08
137.94
121.04
100.18
75.71
49.20
23.49
2.16
-11.57
-16.09
-11.95
-1.63
11.74
25.57
38.65
50.99
63.00
74.63
84.88
92.09
94.65
91.81
84.07
73.09
61.20
50.64
43.00
38.70
37.03
36.46
35.33
32.54
27.91
22.12
16.17
10.78
