1677678412.00
64.000000
-0.00
-0.00
-0.00
-0.00
-0.00
-0.00
-0.00
-0.00
-0.00
-0.00
0.00
0.01
0.01
-0.00
-0.03
-0.05
-0.05
0.00
0.13
0.36
0.66
1.01
1.37
1.72
2.06
2.40
2.79
3.24
3.80
4.42
5.06
5.66
6.20
6.68
7.15
7.68
8.31
9.14
10.09
11.04
11.88
12.56
13.14
13.76
14.65
15.96
17.91
20.32
22.90
25.38
27.58
29.57
31.68
34.32
37.81
42.54
48.15
54.10
59.83
64.97
69.58
74.14
79.34
85.71
93.76
103.00
112.62
121.73
129.77
136.75
143.30
150.75
157.77
166.64
177.95
191.79
206.97
220.57
228.25
225.36
208.53
176.87
132.76
80.05
23.07
-34.94
-92.44
-149.16
-205.23
-260.37
-313.74
-363.87
-409.83
-450.89
-486.47
-515.69
-537.16
-549.12
-549.83
-538.19
-513.98
-478.40
-433.55
-382.06
-326.56
-269.32
-212.04
-156.00
-102.22
-51.56
-5.02
36.55
72.49
102.51
126.76
145.75
160.19
170.79
178.16
182.72
184.73
184.45
182.13
178.12
172.84
166.69
160.03
153.09
146.03
138.91
131.77
124.66
117.65
110.80
104.19
97.86
91.86
86.19
80.88
75.92
71.33
67.11
63.28
59.83
56.77
54.09
51.81
49.91
48.37
47.19
46.30
45.66
45.15
44.63
43.95
42.93
41.39
39.17
36.17
32.34
27.70
22.29
16.29
9.90
3.38
-3.00
-8.98
-14.31
-18.82
-22.37
-24.92
-26.47
-27.09
-26.90
-26.02
-24.61
-22.82
-20.76
-18.52
-16.17
-13.74
-11.26
-8.75
-6.23
-3.67
-1.04
1.66
4.47
7.42
10.55
13.83
17.24
20.77
24.41
28.16
32.00
35.94
39.99
44.18
48.41
52.60
56.74
60.81
64.84
68.87
72.97
77.26
81.84
86.62
91.54
96.57
101.72
106.98
112.35
117.84
123.48
129.29
135.00
140.36
145.15
149.11
151.95
153.28
152.57
149.11
144.21
138.36
131.82
124.84
117.55
110.12
102.66
95.32
88.29
81.74
75.56
69.68
64.09
58.78
53.77
49.06
44.68
40.69
37.15
33.92
30.91
28.05
25.34
22.77
20.33
18.05
15.97
14.13
12.43
10.83
9.31
7.85
6.45
5.12
3.84
2.61
1.42
0.24
-0.93
-2.06
-3.07
-3.93
-4.63
-5.19
-5.69
-6.17
-6.71
-7.35
-8.04
-8.76
-9.46
-10.15
-10.93
-11.88
-13.11
-14.67
-16.48
-18.40
-20.23
-21.80
-23.13
-24.36
-25.79
-27.74
-30.34
-33.54
-37.02
-40.38
-43.32
-45.91
-48.51
-51.79
-56.39
-62.65
-70.40
-79.00
-87.60
-95.53
-102.68
-109.57
-117.19
-126.56
-138.23
-151.99
-167.00
-182.09
-196.32
-209.36
-221.63
-234.15
-248.30
-265.66
-287.63
-314.73
-345.81
-377.41
-404.05
-419.55
-419.09
-401.13
-368.15
-325.76
-280.62
-238.16
-201.32
-170.55
-144.85
-123.09
-104.61
-89.21
-76.56
-65.93
-56.23
-46.41
-35.94
-24.89
-13.90
-3.78
4.96
12.24
18.48
24.29
30.19
36.31
42.29
47.43
50.97
52.42
51.79
49.54
46.44
43.21
40.37
38.08
36.24
34.61
32.98
31.19
29.14
26.77
24.06
21.02
17.74
14.35
11.00
7.77
4.62
1.35
-2.42
-7.13
-13.15
-20.56
-28.86
-37.00
-43.39
-46.35
-44.53
-37.40
-25.50
-10.33
6.05
21.63
34.85
44.84
51.47
55.05
56.13
55.28
53.04
49.90
46.41
43.08
40.36
38.57
37.79
37.93
38.77
40.08
41.66
43.37
45.07
46.53
47.51
47.68
46.74
44.57
41.22
36.98
32.29
27.65
23.48
19.95
16.97
14.22
11.34
8.08
4.42
0.53
-3.28
-6.77
-9.84
-12.61
-15.27
-18.11
-21.36
-25.30
-30.16
-36.04
-42.77
-49.65
-55.50
-58.87
-58.48
-53.59
-44.22
-30.93
-14.54
4.06
23.98
44.02
62.61
77.82
87.80
91.33
88.25
79.56
67.18
53.51
40.83
30.96
24.94
23.04
24.79
29.21
35.18
41.77
48.47
55.11
61.59
67.69
72.90
76.55
78.11
77.42
74.71
70.45
65.06
58.71
51.45
43.32
34.68
26.15
18.44
11.92
6.30
0.67
-6.09
-14.69
-25.10
-36.47
-47.53
-57.19
-64.97
-71.08
-76.03
-80.07
-82.68
-82.68
-78.63
-69.69
-56.06
-39.27
-21.55
-5.11
8.62
19.22
27.10
32.93
37.18
39.91
40.95
40.25
38.12
35.25
32.40
30.10
28.50
27.36
26.37
25.29
24.13
23.10
22.52
22.64
23.64
25.58
28.34
31.54
34.53
36.37
36.15
33.24
27.70
20.23
12.02
4.27
-2.18
-7.27
-11.58
-16.12
-21.82
-29.12
-37.84
-47.20
-56.20
-64.09
-70.61
-76.09
-81.29
-87.15
-94.39
-103.26
-113.24
-123.07
-130.89
-134.72
-133.01
-125.14
-111.61
-93.83
-73.72
-53.17
-33.81
-16.81
-2.98
7.29
14.06
17.88
19.81
21.09
22.85
25.79
30.04
35.18
40.44
44.98
48.18
49.79
49.91
48.98
47.46
45.60
43.30
40.17
35.72
29.68
22.18
13.75
5.20
-2.64
-9.15
-13.97
-17.09
-18.77
-19.45
-19.59
-19.57
-19.61
-19.72
-19.88
-20.11
-20.69
-22.18
-25.24
-30.46
-38.06
-47.61
-58.02
-67.62
-74.58
-77.34
-75.01
-67.52
-55.53
-40.18
-22.76
-4.58
13.10
29.05
42.19
51.79
57.68
60.35
60.78
60.03
59.00
58.26
58.12
58.82
60.39
62.74
65.48
68.13
70.40
72.44
74.70
77.61
81.09
84.21
85.50
83.49
77.39
67.40
54.68
40.85
27.56
16.18
7.60
2.25
0.14
0.82
3.46
7.11
10.86
14.08
16.41
17.62
17.36
15.11
10.23
2.36
-8.14
-19.88
-30.47
-37.26
-38.23
-32.76
-22.01
-8.51
4.83
15.59
22.49
25.44
25.06
22.23
17.72
12.18
6.24
0.62
-3.93
-6.88
-8.06
-7.82
-6.82
-5.83
-5.44
-5.88
-6.87
-7.83
-8.13
-7.39
-5.69
-3.55
-1.76
-1.05
-1.77
-3.86
-6.86
-10.12
-13.00
-15.13
-16.38
-16.93
-17.08
-17.06
-16.93
-16.47
-15.33
-13.17
-9.81
-5.50
-0.86
3.09
5.14
4.24
-0.01
-7.01
-15.13
-22.01
-25.24
-23.12
-15.28
-2.71
12.57
28.13
41.79
52.01
58.07
60.06
58.64
54.85
49.82
44.47
39.37
34.71
30.45
26.46
22.62
18.95
15.41
12.03
8.88
6.12
4.06
3.00
3.02
3.87
4.86
5.11
3.85
0.70
-4.21
-10.24
-16.51
-22.16
-26.62
-29.61
-31.24
-31.76
-31.54
-30.92
-30.17
-29.40
-28.66
-27.92
-27.24
-26.77
-26.87
-28.05
-30.88
-35.72
-42.58
-50.88
-59.38
-66.38
-70.07
-69.03
-62.70
-51.64
-37.44
-22.27
-8.25
3.09
11.14
16.17
18.97
20.49
21.45
22.32
23.41
25.00
27.37
30.76
35.09
40.02
45.00
49.53
53.41
56.84
60.26
64.04
68.26
72.59
76.46
79.31
80.74
80.67
79.27
76.89
73.92
70.71
67.45
64.24
61.06
57.87
54.60
51.15
47.39
43.12
38.24
32.83
27.31
22.29
18.26
15.33
12.88
9.77
4.72
-3.05
-13.31
-24.63
-34.57
-40.26
-39.13
-29.55
-11.35
14.08
43.98
74.78
102.82
125.08
139.71
146.31
145.76
139.74
130.14
118.48
105.54
91.31
75.37
57.31
37.36
16.51
-3.62
-21.35
-35.50
-45.84
-53.04
-58.17
-62.19
-65.47
-67.85
-68.93
-68.48
-66.74
-64.32
-61.92
-60.00
-58.69
-57.90
-57.61
-57.90
-58.79
-59.97
-60.58
-59.44
-55.57
-48.73
-39.56
-29.30
-19.27
-10.20
-2.37
4.10
8.62
9.97
6.78
-1.57
-14.19
-28.57
-41.34
-49.60
-52.00
-49.13
-43.03
-36.16
-30.32
-26.22
-23.54
-21.55
-19.69
-17.90
-16.47
-15.66
-15.46
-15.54
-15.44
-14.85
-13.80
-12.55
-11.45
-10.63
-10.03
-9.40
-8.61
-7.65
-6.74
-6.24
-6.51
-7.83
-10.25
-13.44
-16.57
-18.48
-18.09
-14.93
-9.60
-3.74
0.57
1.72
-0.71
-5.78
-11.65
-16.47
-19.17
-19.74
-18.97
-17.98
-17.67
-18.53
-20.58
-23.53
-26.77
-29.48
-30.58
-28.91
-23.54
-14.17
-1.44
13.05
27.03
38.26
45.09
47.05
44.74
39.58
33.07
26.34
19.86
13.69
7.84
2.65
-1.20
-3.06
-2.69
-0.59
2.06
3.87
3.80
1.55
-2.42
-7.25
-12.11
-16.55
-20.51
-24.07
-27.29
-30.07
-32.28
-33.96
-35.32
-36.79
-38.74
-41.34
-44.46
-47.68
-50.42
-52.11
-52.39
-51.29
-49.25
-47.02
-45.25
-44.13
-43.06
-40.78
-35.82
-27.19
-14.98
-0.46
14.23
26.83
35.72
40.37
41.36
40.06
37.95
36.19
35.24
34.91
34.54
33.35
30.83
26.95
22.33
18.14
15.91
17.25
23.39
34.79
50.83
69.79
89.17
106.32
119.05
126.12
127.39
123.62
115.99
105.77
94.09
81.86
69.80
58.64
49.14
42.16
38.49
38.52
41.91
47.40
52.94
56.27
55.57
50.05
40.14
27.29
13.46
0.60
-9.66
-16.17
-18.31
-16.05
-10.04
-1.60
7.52
15.48
20.85
23.04
22.37
19.97
17.30
15.69
15.93
18.03
21.25
24.47
26.66
27.32
26.70
25.62
25.03
25.38
26.37
26.92
25.58
21.06
12.73
0.78
-13.88
-29.84
-45.49
-59.31
-70.01
-76.76
-79.44
-78.72
-76.00
-73.09
-71.89
-73.92
-80.02
-90.19
-103.59
-118.69
-133.55
-146.05
-154.31
-156.96
-153.49
-144.24
-130.33
-113.25
-94.54
-75.36
-56.36
-37.51
-18.17
2.64
25.81
51.53
78.81
105.42
128.30
144.54
152.40
152.11
145.90
137.27
129.68
125.12
123.36
122.17
118.43
109.65
95.14
76.26
55.66
36.16
19.54
6.16
-4.62
-13.68
-21.46
-27.83
-32.49
-35.44
-37.24
-38.87
-41.41
-45.57
-51.64
-59.35
-68.21
-77.64
-87.01
-95.66
-102.85
-107.77
-109.58
-107.79
-102.37
-93.85
-83.16
-71.40
-59.69
-48.85
-39.58
-32.32
-27.28
-24.26
-22.58
-21.22
-19.12
-15.75
-11.34
-6.90
-3.73
-2.80
-4.21
-7.24
-10.78
-14.10
-17.37
-21.50
-27.61
-36.27
-47.14
-59.03
-70.48
-80.45
-88.66
-95.58
-102.12
-109.17
-117.26
-126.52
-136.76
-147.74
-159.51
-172.42
-187.12
-204.24
-223.98
-245.88
-269.01
-292.47
-315.74
-338.42
-359.43
-376.13
-384.20
-378.68
-355.90
-315.02
-258.67
-192.00
-121.02
-51.08
13.71
70.29
116.17
149.54
169.79
178.14
177.62
172.36
166.24
161.91
160.51
162.08
166.06
171.69
178.04
183.83
187.66
188.37
185.54
179.78
172.53
165.62
160.47
157.57
156.24
154.93
151.72
145.09
134.41
120.23
103.91
87.24
71.77
58.63
48.55
42.07
39.77
42.14
49.14
59.85
72.51
84.96
95.35
102.89
107.86
111.31
114.37
117.62
121.00
124.07
126.40
127.89
128.80
129.58
130.58
131.93
133.31
133.99
132.86
128.57
119.98
106.68
89.28
69.42
49.26
30.72
14.88
1.81
-9.11
-18.52
-26.58
-33.10
-37.82
-40.84
-42.72
-44.08
-45.14
-45.37
-43.69
-38.94
-30.52
-18.67
-4.36
11.03
26.33
40.74
53.95
65.99
76.98
87.11
96.48
105.19
113.16
120.12
125.40
128.09
127.12
121.65
111.31
96.45
78.08
57.52
36.03
14.55
-6.42
-26.56
-45.53
-62.85
-77.94
-90.22
-99.37
-105.38
-108.58
-109.54
-108.94
-107.49
-105.86
-104.53
-103.80
-103.73
-104.37
-105.80
-108.38
-112.76
-119.72
-129.92
-143.58
-160.20
-178.40
-195.93
-210.00
-217.98
-218.06
-209.85
-194.51
-174.35
-152.02
-129.65
-108.45
-88.58
-69.78
-52.05
-36.17
-23.67
-16.29
-15.21
-20.42
-30.64
-43.79
-57.76
-71.02
-82.86
-93.12
-101.58
-107.58
-109.85
-106.94
-97.98
-83.39
-65.16
-46.36
-30.25
-19.09
-13.64
-13.22
-16.42
-21.89
-28.75
-36.48
-44.47
-51.74
-57.19
-60.23
-61.18
-61.19
-61.66
-63.53
-66.95
-71.46
-76.43
-81.18
-84.90
-86.20
-83.15
-73.74
-56.86
-33.13
-4.99
23.88
49.73
69.74
82.72
88.94
89.75
86.89
82.13
76.93
72.41
69.28
67.84
67.94
69.04
70.34
70.99
70.41
68.47
65.53
62.30
59.40
57.17
55.50
53.99
52.13
49.57
46.05
41.50
36.00
29.85
23.60
17.95
13.48
10.41
8.53
7.28
6.03
4.39
2.34
0.31
-0.95
-0.51
2.50
8.43
16.90
26.67
36.06
43.64
48.82
52.09
54.65
57.63
61.45
65.68
69.33
71.55
71.97
70.76
68.22
64.50
59.50
53.18
45.87
38.40
31.87
27.21
24.80
24.42
25.41
26.99
28.34
28.70
27.16
22.85
15.22
4.58
-7.77
-19.80
-29.42
-35.35
-37.54
-37.00
-35.38
-34.13
-34.21
-35.84
-38.62
-41.58
-43.27
-41.96
-36.08
-24.82
-8.60
10.71
30.37
47.79
61.49
71.54
79.27
86.29
93.52
100.57
106.04
108.35
106.65
101.31
93.75
85.71
78.49
72.51
67.53
63.05
58.83
54.96
51.66
48.90
46.27
43.11
38.80
33.19
26.64
20.01
14.23
9.95
7.24
5.69
4.56
3.16
1.03
-1.90
-5.38
-8.96
-11.99
-13.78
-13.65
-11.09
-6.00
1.20
9.58
17.90
24.94
29.93
32.71
33.73
33.81
33.77
34.12
34.91
35.86
36.44
36.18
34.84
32.46
29.32
26.00
23.33
22.23
23.46
27.18
32.63
38.22
41.96
42.35
38.99
32.82
25.70
19.60
15.87
14.77
15.70
17.52
19.05
19.28
17.47
13.23
6.67
-1.53
-10.03
-17.14
-21.29
-21.56
-18.04
-11.76
-4.42
2.27
7.04
9.37
9.49
8.15
6.30
4.78
4.10
4.34
5.23
6.27
6.98
7.06
6.47
5.44
4.34
3.47
3.04
3.08
3.50
4.16
4.87
5.43
5.55
4.94
3.41
0.94
-2.20
-5.59
-8.76
-11.38
-13.41
-15.08
-16.75
-18.76
-21.35
-24.51
-27.94
-31.01
-32.75
-32.22
-28.78
-22.46
-14.04
-4.88
3.60
10.34
15.01
17.93
19.68
20.83
21.59
21.93
21.74
21.04
20.05
19.05
18.26
17.68
17.08
16.19
14.88
13.27
11.74
10.74
10.53
10.99
11.61
11.78
10.97
9.00
6.13
2.86
-0.22
-2.79
-4.83
-6.66
-8.77
-11.58
-15.31
-19.79
-24.53
-28.73
-31.55
-32.25
-30.42
-26.08
-19.70
-12.05
-4.07
3.41
9.77
14.68
18.15
20.29
21.35
21.57
21.22
20.55
19.77
19.00
18.24
17.44
16.52
15.44
14.24
13.08
12.10
11.37
10.83
10.32
9.60
8.47
6.81
4.67
2.15
-0.63
-3.55
-6.52
-9.52
-12.54
-15.61
-18.90
-22.53
-26.63
-31.02
-35.19
-38.36
-39.58
-38.17
-33.89
-27.18
-18.96
-10.40
-2.61
3.67
8.18
10.99
12.44
12.94
12.84
12.41
11.84
11.26
10.80
10.59
10.71
11.08
11.59
12.02
12.27
12.29
12.18
12.08
12.05
11.94
11.50
10.39
8.41
5.57
2.09
-1.68
-5.41
-8.88
-12.01
-14.78
-17.25
-19.50
-21.67
-23.95
-26.51
-29.24
-31.78
-33.42
-33.42
-31.20
-26.69
-20.33
-12.97
-5.60
0.95
6.20
9.98
12.36
13.56
13.83
13.41
12.50
11.26
9.78
8.11
6.33
4.54
2.90
1.61
0.82
0.62
0.98
1.80
2.89
4.06
5.08
5.71
5.70
4.90
3.30
1.07
-1.45
-3.94
-6.16
-8.04
-9.67
-11.19
-12.75
-14.44
-16.46
-18.96
-22.07
-25.73
-29.49
-32.57
-34.06
-33.22
-29.86
-24.35
-17.50
-10.30
-3.56
2.20
6.77
10.13
12.36
13.52
13.77
13.28
12.35
11.27
10.36
9.79
9.59
9.62
9.66
9.55
9.25
8.86
8.50
8.28
8.13
7.88
7.27
6.10
4.27
1.82
-1.09
-4.25
-7.43
-10.41
-13.00
-15.10
-16.74
-18.09
-19.47
-21.18
-23.47
-26.37
-29.51
-32.21
-33.60
-32.91
-29.75
-24.27
-17.13
-9.38
-2.06
3.99
8.35
11.04
12.37
12.83
12.87
12.79
12.69
12.56
12.23
11.60
10.61
9.36
8.03
6.81
5.86
5.23
4.88
4.73
4.70
4.73
4.76
4.72
4.47
3.81
2.58
0.69
-1.75
-4.47
-7.15
-9.47
-11.33
-12.80
-14.12
-15.61
-17.55
-20.16
-23.54
-27.60
-32.02
-36.18
-39.23
-40.25
-38.60
-34.08
-27.19
-18.91
-10.45
-2.85
3.21
7.55
10.38
12.11
13.19
13.95
14.59
15.15
15.57
15.76
15.64
15.25
14.68
14.09
13.68
13.60
13.88
14.45
15.13
15.64
15.68
15.03
13.65
11.69
9.45
7.20
5.04
2.88
0.46
-2.45
-5.93
-9.84
-13.89
-17.80
-21.38
-24.66
-27.85
-31.23
-35.05
-39.37
-43.92
-48.14
-51.13
-51.90
-49.66
-44.11
-35.61
-25.08
-13.78
-2.92
6.58
14.24
19.96
23.86
26.18
27.19
27.22
26.61
25.70
24.75
23.86
23.00
22.02
20.84
19.50
18.17
17.10
16.47
16.33
16.56
16.93
17.21
17.23
16.86
16.01
14.61
12.66
10.23
7.50
4.66
1.88
-0.77
-3.32
-5.86
-8.52
-11.43
-14.74
-18.64
-23.27
-28.53
-33.95
-38.66
-41.68
-42.16
-39.77
-34.83
-28.16
-20.77
-13.52
-6.90
-1.10
3.91
8.20
11.72
14.40
16.20
17.21
17.62
17.70
17.70
17.78
18.01
18.39
18.88
19.41
19.98
20.57
21.23
21.93
22.60
23.07
23.06
22.30
20.65
18.09
14.81
11.13
7.44
3.97
0.84
-2.03
-4.81
-7.76
-11.10
-14.99
-19.46
-24.31
-29.08
-33.06
-35.33
-35.13
-32.01
-26.09
-18.04
-8.88
0.27
8.55
15.40
20.62
24.19
26.19
26.71
25.90
24.01
21.43
18.58
15.84
13.45
11.57
10.23
9.43
9.15
9.31
9.82
10.56
11.38
12.11
12.54
12.41
11.48
9.56
6.71
3.22
-0.42
-3.78
-6.69
-9.37
-12.33
-16.11
-21.00
-26.85
-33.03
-38.64
-42.67
-44.28
-42.98
-38.74
-31.91
-23.24
-13.71
-4.33
4.07
10.99
16.26
19.99
22.39
23.73
24.26
24.20
23.74
23.06
22.26
21.36
20.33
19.16
17.90
16.67
15.61
14.79
14.21
13.70
13.07
12.04
10.39
7.99
4.80
0.97
-3.26
-7.59
-11.76
-15.68
-19.44
-23.32
-27.66
-32.69
-38.30
-44.02
-48.96
-52.06
-52.33
-49.24
-42.84
-33.85
-23.37
-12.60
-2.52
6.26
13.48
19.14
23.31
26.10
27.65
28.21
28.13
27.80
27.58
27.56
27.63
27.48
26.79
25.41
23.42
21.13
18.99
17.36
16.38
15.85
15.36
14.38
12.51
9.61
5.83
1.52
-2.92
-7.20
-11.18
-14.95
-18.69
-22.62
-26.97
-31.83
-37.06
-42.14
-46.17
-48.06
-46.84
-42.06
-34.04
-23.83
-12.82
-2.42
6.40
13.28
18.31
21.87
24.40
26.22
27.52
28.40
28.91
29.08
28.98
28.75
28.49
28.30
28.17
28.06
27.87
27.55
27.12
26.68
26.38
26.25
26.13
25.72
24.64
22.59
19.50
15.59
11.24
6.90
2.93
-0.53
-3.55
-6.38
-9.44
-13.13
-17.75
-23.39
-29.75
-36.12
-41.49
-44.74
-45.02
-41.96
-35.85
-27.49
-18.01
-8.53
0.07
7.28
12.96
17.21
20.28
22.45
23.91
24.76
25.10
24.97
24.48
23.82
23.16
22.68
22.48
22.59
22.99
23.63
24.42
25.21
25.77
25.86
25.26
23.93
21.98
19.66
17.20
14.77
12.33
9.74
6.85
3.58
-0.04
-3.81
-7.50
-10.89
-13.86
-16.48
-19.04
-21.97
-25.73
-30.52
-36.08
-41.57
-45.78
-47.45
-45.76
-40.61
-32.68
-23.19
-13.49
-4.65
2.73
8.47
12.72
15.75
17.84
19.32
20.46
21.56
22.74
24.01
25.17
26.00
26.31
26.12
25.60
25.01
24.63
24.54
24.71
24.94
24.94
24.46
23.31
21.45
19.00
16.20
13.36
10.80
8.64
6.80
5.03
2.99
0.48
-2.53
-5.85
-9.20
-12.38
-15.34
-18.25
-21.35
-24.88
-28.87
-33.14
-37.27
-40.59
-42.38
-41.99
-39.02
-33.51
-25.96
-17.27
-8.46
-0.47
6.07
10.94
14.28
16.40
17.67
18.36
18.70
18.84
18.90
19.02
19.28
19.67
20.07
20.32
20.29
20.02
19.72
19.63
19.93
20.63
21.50
22.17
22.28
21.57
20.03
17.82
15.20
12.44
9.72
7.15
4.67
2.16
-0.52
-3.46
-6.63
-9.90
-13.08
-16.02
-18.75
-21.45
-24.44
-28.02
-32.26
-36.90
-41.33
-44.71
-46.25
-45.38
-41.94
-36.20
-28.78
-20.46
-12.00
-4.05
2.97
8.79
13.25
16.33
18.09
18.77
18.70
18.25
17.73
17.30
16.95
16.58
16.15
15.72
15.44
15.48
15.97
16.83
17.89
18.87
19.54
19.71
19.29
18.29
16.79
14.93
12.85
10.66
8.36
5.93
3.27
0.33
-2.93
-6.40
-9.92
-13.25
-16.12
-18.34
-19.86
-20.85
-21.73
-23.05
-25.23
-28.32
-31.93
-35.20
-37.17
-37.05
-34.50
-29.73
-23.38
-16.29
-9.28
-2.97
2.30
6.35
9.21
10.97
11.79
11.88
11.49
10.86
10.21
9.74
9.50
9.54
9.83
10.34
11.04
11.92
12.97
14.14
15.43
16.76
17.98
18.88
19.20
18.77
17.54
15.63
13.34
11.01
8.91
7.17
5.73
4.37
2.91
1.18
-0.87
-3.20
-5.69
-8.23
-10.67
-12.97
-15.22
-17.66
-20.62
-24.41
-29.05
-34.10
-38.71
-41.73
-42.13
-39.44
-33.85
-26.21
-17.70
-9.43
-2.16
3.74
8.24
11.43
13.46
14.48
14.70
14.38
13.84
13.33
13.00
12.82
12.66
12.44
12.15
11.87
11.76
11.92
12.32
12.82
13.25
13.48
13.50
13.37
13.16
12.88
12.41
11.54
10.09
7.99
5.33
2.32
-0.74
-3.64
-6.26
-8.63
-10.82
-12.98
-15.25
-17.72
-20.41
-23.15
-25.60
-27.24
-27.50
-25.91
-22.29
-16.88
-10.32
-3.52
2.64
7.50
10.77
12.63
13.46
13.74
13.84
13.94
14.11
14.34
14.71
15.31
16.24
17.42
18.69
19.83
20.65
21.04
20.96
20.39
19.29
17.58
15.27
12.45
9.30
6.06
2.90
-0.15
-3.08
-5.93
-8.72
-11.44
-14.04
-16.51
-18.87
-21.15
-23.46
-25.91
-28.73
-32.07
-35.95
-40.07
-43.80
-46.22
-46.44
-43.90
-38.65
-31.31
-22.95
-14.67
-7.35
-1.42
3.01
6.08
7.98
8.91
9.07
8.74
8.26
7.92
7.87
8.10
8.44
8.73
8.90
9.03
9.26
9.74
10.48
11.37
12.19
12.66
12.55
11.70
10.10
7.88
5.22
2.33
-0.66
-3.66
-6.67
-9.62
-12.44
-15.04
-17.35
-19.42
-21.44
-23.69
-26.41
-29.72
-33.47
-37.20
-40.21
-41.71
-41.06
-37.93
-32.54
-25.53
-17.84
-10.40
-3.88
1.38
5.44
8.54
10.98
12.97
14.57
15.73
16.37
16.49
16.19
15.66
15.09
14.63
14.33
14.12
13.95
13.73
13.44
13.08
12.69
12.29
11.86
11.38
10.82
10.10
9.16
7.96
6.49
4.82
3.05
1.25
-0.56
-2.39
-4.32
-6.46
-8.94
-11.86
-15.38
-19.53
-24.21
-29.08
-33.48
-36.61
-37.67
-36.16
-32.03
-25.76
-18.19
-10.34
-3.11
2.87
7.28
10.11
11.61
12.16
12.17
11.96
11.71
11.38
10.93
10.30
9.60
8.99
8.66
8.64
8.84
9.12
9.37
9.57
9.72
9.78
9.60
8.97
7.76
6.06
4.12
2.30
0.83
-0.26
-1.17
-2.21
-3.61
-5.46
-7.63
-9.91
-12.06
-14.01
-15.81
-17.71
-20.04
-23.10
-27.05
-31.66
-36.40
-40.44
-42.86
-42.95
-40.41
-35.45
-28.73
-21.16
-13.68
-6.99
-1.50
2.75
5.93
8.41
10.52
12.55
14.60
16.64
18.50
20.03
21.08
21.68
21.88
21.82
21.63
21.41
21.25
21.17
21.15
21.15
21.02
20.64
19.90
18.75
17.14
15.11
12.73
10.08
7.27
4.43
1.67
-0.92
-3.28
-5.44
-7.41
-9.29
-11.12
-12.96
-14.92
-17.15
-19.85
-23.12
-26.85
-30.59
-33.55
-34.81
-33.65
-29.84
-23.78
-16.37
-8.72
-1.71
4.16
8.81
12.45
15.29
17.45
18.93
19.66
19.63
18.92
17.72
16.28
14.87
13.77
13.14
13.07
13.47
14.16
14.83
15.19
15.00
14.18
12.89
11.39
9.93
8.64
7.36
5.77
3.47
0.29
-3.63
-7.86
-11.87
-15.30
-18.15
-20.77
-23.60
-26.90
-30.59
-34.27
-37.41
-39.70
-41.09
-41.71
-41.48
-39.83
-35.74
-28.21
-16.86
-2.30
14.33
32.24
51.81
74.48
101.59
132.88
165.70
195.81
219.40
235.09
244.45
250.71
256.47
261.92
264.94
262.72
253.86
239.31
221.74
203.73
186.33
168.78
149.65
128.25
105.32
82.68
62.19
44.74
29.93
16.45
2.75
-12.27
-28.98
-46.98
-65.25
-82.48
-97.55
-109.76
-119.13
-126.22
-131.87
-136.66
-140.64
-143.17
-143.31
-140.28
-133.85
-124.43
-112.88
-100.11
-86.71
-72.89
-58.59
-43.68
-28.17
-12.27
3.65
19.17
33.79
47.01
58.33
67.37
73.97
78.27
80.62
81.49
81.31
80.53
79.64
79.22
79.71
81.17
82.94
83.74
82.06
76.74
67.44
54.69
39.65
23.65
7.78
-7.16
-20.59
-32.06
-41.25
-47.98
-52.27
-54.29
-54.26
-52.53
-49.71
-46.77
-45.01
-45.61
-49.06
-54.86
-61.57
-67.37
-70.79
-71.17
-68.65
-63.88
-57.57
-50.14
-41.81
-32.67
-22.87
-12.61
-2.00
8.96
20.30
31.90
43.21
53.26
60.83
64.85
64.85
61.26
55.36
49.02
44.01
41.48
41.60
43.75
46.91
50.22
53.22
55.86
58.25
60.53
62.80
65.38
68.77
73.51
79.68
86.56
92.55
95.73
94.57
88.52
78.06
64.26
48.27
30.76
12.04
-7.73
-28.19
-48.65
-68.25
-86.11
-101.56
-114.08
-123.35
-129.27
-132.13
-132.70
-132.10
-131.47
-131.55
-132.42
-133.56
-134.07
-133.08
-130.07
-124.91
-117.82
-109.20
-99.61
-89.65
-80.09
-71.63
-64.95
-60.44
-58.20
-58.01
-59.45
-61.97
-64.99
-68.06
-70.82
-73.17
-75.21
-77.23
-79.53
-82.28
-85.40
-88.50
-90.90
-91.89
-91.11
-88.71
-85.45
-82.50
-81.10
-82.06
-85.50
-90.84
-97.02
-102.95
-107.93
-111.78
-114.94
-118.14
-122.10
-127.19
-133.14
-138.90
-142.85
-143.02
-137.63
-125.42
-106.02
-80.09
-49.30
-16.17
16.49
46.18
71.26
91.26
106.58
118.01
126.24
131.68
134.68
135.77
135.79
135.38
134.56
132.36
127.10
117.32
102.60
84.06
63.96
44.85
28.65
16.17
7.18
0.91
-3.57
-7.08
-10.28
-13.74
-17.92
-23.19
-29.71
-37.46
-46.24
-55.78
-65.79
-75.98
-86.16
-96.25
-106.34
-116.63
-127.37
-138.78
-150.93
-163.85
-177.51
-191.79
-206.51
-221.40
-236.21
-250.76
-265.11
-279.46
-294.05
-309.11
-324.79
-341.16
-358.07
-374.82
-389.86
-400.53
-403.57
-395.85
-375.55
-342.86
-300.00
-250.56
-198.38
-146.65
-97.47
-51.95
-10.55
26.64
59.91
89.97
118.11
145.94
174.82
205.06
235.31
262.53
282.78
292.55
290.17
276.55
254.88
229.51
204.46
182.28
163.73
148.31
135.15
123.74
114.22
107.07
102.55
100.24
99.03
97.43
94.20
88.95
82.22
75.21
68.95
63.79
59.09
53.68
46.48
37.16
26.42
15.77
7.04
1.81
1.02
4.73
12.16
22.02
32.82
43.36
52.81
60.75
67.04
71.66
74.62
76.10
76.46
76.23
75.92
75.83
75.96
76.15
76.15
75.89
75.43
74.81
74.00
72.73
70.67
67.52
63.12
57.53
51.03
44.05
36.97
30.11
23.69
17.95
13.28
10.24
9.49
11.53
16.53
24.25
34.18
45.77
58.59
72.38
86.93
101.87
116.51
129.76
140.26
146.61
147.56
142.38
131.03
114.42
94.37
73.51
54.73
40.71
33.19
32.56
37.80
46.88
57.49
67.66
76.27
82.92
87.75
90.97
92.64
92.67
90.92
87.36
82.14
75.65
68.49
61.42
55.21
50.46
47.45
45.97
45.38
44.80
43.33
40.16
34.79
27.01
17.02
5.46
-6.80
-18.85
-30.03
-40.17
-49.54
-58.51
-67.27
-75.64
-83.23
-89.87
-96.01
-102.70
-111.25
-122.70
-137.24
-154.26
-172.73
-191.73
-211.00
-230.89
-252.08
-275.02
-299.40
-323.98
-346.74
-365.23
-376.96
-379.82
-372.37
-354.15
-325.82
-289.02
-246.02
-199.20
-150.60
-101.78
-53.87
-7.80
35.52
75.15
110.26
140.28
164.96
184.36
198.74
208.39
213.64
214.88
212.61
207.58
200.97
194.21
188.90
186.22
186.40
188.44
190.35
189.73
184.76
174.65
159.79
141.27
120.34
98.03
75.19
52.70
31.63
13.16
-1.79
-13.03
-21.18
-27.57
-33.75
-40.91
-49.44
-58.66
-67.02
-72.46
-73.11
-67.91
-57.05
-41.93
-24.75
-7.80
7.13
19.13
28.12
34.54
39.00
42.05
44.09
45.42
46.18
46.43
46.05
44.79
42.44
38.98
34.64
29.89
25.33
21.43
18.46
16.42
15.11
14.29
13.72
13.32
13.02
12.85
12.84
13.00
13.38
13.89
14.43
14.84
15.04
15.06
15.08
15.33
16.01
17.15
18.64
20.26
21.65
22.47
22.42
21.41
19.77
18.23
17.85
19.66
24.22
31.30
39.87
48.35
55.10
58.95
59.50
57.14
52.79
47.50
42.04
36.58
30.82
24.12
15.96
6.16
-5.01
-16.95
-28.92
-40.18
-49.94
-57.31
-61.27
-60.89
-55.87
-46.92
-35.88
-25.39
-18.09
-15.68
-18.49
-25.40
-34.67
-44.73
-54.84
-65.26
-76.76
-89.96
-104.87
-120.75
-136.45
-150.89
-163.50
-174.37
-184.07
-193.36
-202.93
-213.14
-224.04
-235.23
-245.67
-253.52
-256.11
-250.48
-234.29
-206.76
-169.23
-124.92
-77.84
-31.47
12.07
52.10
88.54
121.14
148.98
170.87
186.12
195.20
199.75
201.92
203.42
204.98
206.27
206.46
205.00
201.99
198.16
194.45
191.47
189.26
187.23
184.47
180.16
173.76
165.15
154.55
142.42
129.38
116.08
103.12
90.86
79.31
68.10
56.64
44.33
30.88
16.35
1.06
-14.75
-31.20
-48.80
-68.10
-89.07
-110.60
-130.48
-146.02
-155.01
-156.63
-151.83
-142.82
-132.16
-121.80
-112.57
-104.33
-96.61
-89.12
-82.00
-75.52
-69.68
-63.89
-57.07
-48.05
-35.99
-20.67
-2.40
18.16
40.24
63.11
86.10
108.56
129.79
149.00
165.26
177.55
184.77
185.93
180.49
168.66
151.61
131.31
110.12
90.14
72.78
58.48
46.89
37.22
28.66
20.63
12.82
5.10
-2.64
-10.47
-18.53
-26.94
-35.80
-45.26
-55.40
-66.16
-77.10
-87.23
-95.09
-99.02
-97.76
-90.93
-79.32
-64.81
-49.83
-36.74
-27.22
-22.02
-20.90
-22.97
-26.99
-31.77
-36.35
-40.19
-43.18
-45.63
-48.14
-51.35
-55.73
-61.39
-67.98
-74.83
-81.20
-86.55
-90.92
-95.01
-100.05
-107.42
-117.90
-131.11
-145.16
-156.92
-162.73
-159.59
-146.08
-122.92
-92.85
-59.83
-28.05
-1.01
19.02
31.22
35.94
34.37
28.14
18.97
8.40
-2.31
-12.17
-20.39
-26.22
-28.93
-27.78
-22.16
-11.66
3.68
23.40
46.54
71.64
96.88
120.29
140.05
154.94
164.53
169.38
170.79
170.34
169.44
168.99
169.30
170.30
171.74
173.41
175.21
177.02
178.57
179.34
178.65
175.82
170.36
162.11
151.21
137.98
122.78
106.06
88.43
70.64
53.59
38.07
24.48
12.75
2.30
-7.60
-17.51
-27.55
-37.43
-46.63
-54.67
-61.37
-66.87
-71.67
-76.41
-81.71
-87.91
-94.77
-101.33
-105.94
-106.66
-101.95
-91.44
-76.36
-59.43
-44.22
-34.02
-30.90
-35.23
-45.74
-60.10
-75.52
-89.38
-99.64
-105.13
-105.71
-102.23
-96.22
-89.37
-83.11
-78.26
-75.10
-73.62
-73.74
-75.41
-78.57
-82.93
-87.77
-91.92
-93.83
-91.87
-84.68
-71.75
-53.69
-32.28
-10.08
10.29
26.94
39.01
46.69
50.78
52.16
51.66
49.88
47.42
44.82
42.50
40.42
38.05
34.41
28.54
19.98
9.28
-1.96
-11.49
-17.02
-17.11
-11.68
-2.13
9.23
19.99
28.45
34.02
37.15
38.77
39.62
39.92
39.27
37.02
32.65
26.11
17.81
8.56
-0.73
-9.19
-16.17
-21.29
-24.46
-25.78
-25.52
-24.06
-21.85
-19.35
-16.99
-15.12
-13.85
-13.05
-12.40
-11.52
-10.18
-8.51
-6.99
-6.29
-7.07
-9.68
-14.09
-19.88
-26.43
-33.17
-39.79
-46.38
-53.29
-60.97
-69.78
-79.92
-91.35
-103.71
-116.16
-127.17
-134.60
-136.06
-129.60
-114.61
-92.17
-64.95
-36.40
-9.83
12.29
28.69
39.15
44.16
44.78
42.43
38.80
35.52
33.75
34.04
36.19
39.65
43.86
48.54
53.68
59.39
65.54
71.63
76.88
80.48
81.80
80.68
77.43
72.77
67.57
62.67
58.62
55.58
53.37
51.61
49.87
47.85
45.36
42.29
38.51
33.89
28.37
22.10
15.44
8.76
2.20
-4.45
-11.75
-20.18
-29.65
-39.22
-47.22
-51.68
-51.06
-44.71
-33.07
-17.50
0.11
17.82
33.95
47.37
57.53
64.49
68.70
70.83
71.44
70.86
69.19
66.45
62.84
58.96
55.78
54.53
56.22
61.25
69.08
78.20
86.57
92.20
93.83
91.31
85.57
78.39
71.77
67.35
65.91
67.03
69.16
70.02
67.41
59.95
47.66
31.86
14.66
-1.88
-16.42
-28.65
-39.04
-48.29
-56.91
-64.91
-71.67
-76.23
-77.47
-74.54
-67.22
-56.11
-42.58
-28.54
-15.91
-6.20
-0.20
2.07
1.32
-1.32
-4.48
-6.92
-7.78
-6.70
-3.95
-0.23
3.56
6.66
8.71
9.79
10.34
10.95
12.15
14.24
17.21
20.74
24.30
27.25
29.00
29.15
27.67
24.83
21.13
17.05
12.89
8.57
3.84
-1.61
-7.89
-14.77
-21.74
-28.18
-33.63
-37.88
-41.10
-43.77
-46.51
-50.02
-54.79
-60.91
-67.85
-74.37
-78.73
-79.11
-74.27
-63.98
-49.26
-32.02
-14.50
1.39
14.56
24.81
32.55
38.44
42.97
46.38
48.62
49.57
49.16
47.44
44.58
40.91
36.83
32.80
29.29
26.75
25.47
25.53
26.77
28.88
31.42
34.01
36.30
38.05
39.08
39.17
38.05
35.39
30.82
24.08
15.21
4.60
-6.95
-18.41
-28.72
-37.03
-42.89
-46.33
-47.78
-48.00
-47.90
-48.37
-50.02
-52.96
-56.62
-59.74
-60.77
-58.30
-51.60
-41.02
-27.86
-13.97
-1.24
9.05
16.34
20.86
23.27
24.32
24.55
24.17
23.18
21.41
18.79
15.35
11.34
7.09
2.91
-0.92
-4.22
-6.88
-8.88
-10.30
-11.36
-12.38
-13.73
-15.62
-18.03
-20.61
-22.83
-24.20
-24.37
-23.26
-21.00
-17.77
-13.78
-9.15
-4.01
1.56
7.37
13.25
18.91
23.98
27.97
30.34
30.71
29.18
26.52
24.14
23.73
26.76
33.78
44.12
56.04
67.27
75.78
80.44
81.24
79.07
75.21
70.81
66.63
63.02
60.04
57.63
55.61
53.71
51.56
48.83
45.34
41.25
37.02
33.27
30.72
29.97
31.45
35.15
40.44
45.95
49.73
49.70
44.31
33.09
16.85
-2.62
-23.19
-42.98
-60.72
-75.70
-87.52
-95.88
-100.54
-101.55
-99.37
-95.00
-89.66
-84.50
-80.30
-77.44
-76.00
-75.98
-77.32
-79.84
-83.02
-86.01
-87.81
-87.65
-85.35
-81.36
-76.64
-72.25
-68.99
-67.25
-67.01
-68.04
-69.98
-72.49
-75.27
-78.16
-81.16
-84.41
-88.16
-92.59
-97.75
-103.43
-109.15
-114.14
-117.31
-117.37
-113.05
-103.64
-89.36
-71.64
-52.78
-35.12
-20.16
-7.96
2.64
13.24
24.81
37.21
49.34
59.96
68.60
75.82
82.89
90.91
99.95
108.97
116.17
119.96
119.49
114.88
106.82
96.06
83.19
68.71
53.31
38.08
24.37
13.42
5.89
1.57
-0.47
-1.46
-2.44
-3.90
-5.75
-7.55
-8.80
-9.26
-9.01
-8.38
-7.78
-7.49
-7.54
-7.76
-7.96
-7.96
-7.75
-7.41
-6.95
-6.31
-5.36
-4.00
-2.36
-0.74
0.49
0.99
0.72
-0.07
-0.95
-1.44
-1.28
-0.48
0.64
1.58
1.83
1.10
-0.61
-3.00
-5.56
-7.84
-9.59
-10.87
-11.98
-13.36
-15.40
-18.40
-22.45
-27.30
-32.33
-36.51
-38.61
-37.53
-32.70
-24.34
-13.44
-1.49
10.08
20.22
28.50
35.05
40.28
44.61
48.30
51.44
53.99
55.96
57.46
58.74
60.11
61.80
63.96
66.63
69.76
73.32
77.26
81.49
85.81
89.91
93.32
95.63
96.58
96.06
94.27
91.55
88.37
85.10
81.97
78.87
75.45
71.21
65.77
58.99
51.01
42.05
32.19
21.25
8.90
-5.01
-20.29
-36.32
-52.27
-67.47
-81.49
-94.04
-104.80
-113.24
-118.68
-120.73
-119.71
-116.74
-113.50
-111.63
-112.04
-114.53
-117.94
-120.46
-120.32
-116.04
-106.68
-91.73
-70.91
-44.12
-11.54
26.04
67.14
109.57
150.79
188.41
220.41
245.25
261.60
268.24
264.18
249.06
223.68
190.24
152.02
112.56
74.93
41.08
11.80
-13.05
-34.08
-52.16
-68.21
-83.13
-97.68
-112.40
-127.57
-143.28
-159.59
-176.53
-194.22
-212.61
-231.44
-250.14
-268.10
-284.76
-299.94
-313.81
-326.86
-339.89
-353.92
-370.06
-389.21
-411.27
-434.37
-454.57
-466.42
-464.46
-445.16
-408.33
-357.28
-297.60
-235.17
-174.41
-117.45
-64.58
-15.15
31.52
76.06
119.09
161.34
203.19
243.84
280.91
310.75
329.63
335.13
327.16
307.95
281.11
250.42
218.93
188.67
160.85
136.17
114.89
96.72
80.83
66.19
52.15
38.83
27.04
17.78
11.62
8.18
6.31
4.55
1.59
-3.38
-10.63
-20.02
-30.95
-42.31
-52.43
-59.33
-61.32
-57.55
-48.47
-35.67
-21.33
-7.43
4.67
14.42
21.90
27.52
31.67
34.62
36.57
37.57
37.73
37.15
36.04
34.73
33.54
32.75
32.53
32.89
33.70
34.92
36.55
38.59
41.04
43.63
45.94
47.46
47.82
47.02
45.38
43.49
41.85
40.66
39.65
38.29
36.02
32.52
27.81
22.19
16.04
9.61
3.01
-3.84
-11.00
-18.54
-26.50
-34.94
-43.84
-52.93
-61.52
-68.43
-72.32
-72.12
-67.44
-58.87
-47.91
-36.54
-26.69
-19.75
-16.26
-15.97
-18.08
-21.64
-25.91
-30.55
-35.59
-41.30
-47.95
-55.59
-63.88
-71.96
-78.36
-81.26
-79.04
-71.09
-58.30
-43.03
-28.36
-16.77
-9.05
-4.04
0.76
8.06
19.63
35.91
56.26
79.45
104.10
128.65
151.33
170.17
183.43
189.98
189.63
182.87
170.48
153.15
131.55
106.79
80.76
56.05
35.41
20.94
13.49
12.66
17.33
26.18
38.15
52.28
67.55
82.76
96.88
109.38
120.47
130.87
141.08
150.76
158.61
162.86
162.10
155.94
145.24
131.76
117.63
104.98
95.60
90.86
91.50
97.34
107.18
118.87
129.89
137.93
141.50
140.03
133.92
124.37
113.31
103.08
95.98
93.61
96.31
103.12
112.19
121.57
129.81
136.19
140.42
142.31
141.64
138.36
132.96
126.63
120.95
117.39
116.69
118.88
123.54
130.28
139.01
149.67
161.62
173.06
180.94
181.70
172.59
152.73
123.62
88.57
51.49
15.41
-18.26
-49.71
-80.10
-110.64
-142.04
-174.21
-206.28
-236.85
-264.11
-286.43
-302.63
-312.57
-317.14
-317.99
-316.96
-315.45
-314.17
-313.23
-312.62
-312.44
-313.10
-315.05
-318.24
-321.79
-323.96
-322.46
-315.10
-300.57
-279.05
-252.33
-223.43
-195.76
-172.22
-154.57
-143.28
-137.84
-137.26
-140.61
-147.05
-155.68
-165.25
-174.01
-179.93
-181.07
-176.06
-164.21
-145.48
-120.36
-89.78
-55.20
-18.69
17.31
50.35
78.49
100.64
116.65
127.05
132.64
134.33
132.96
129.46
124.80
120.00
115.79
112.54
110.13
108.05
105.58
102.07
97.15
90.89
83.90
77.12
71.66
68.41
67.89
70.07
74.46
80.27
86.61
92.62
97.60
101.04
102.72
102.63
101.00
98.22
94.61
90.39
85.69
80.49
74.87
68.98
63.03
57.25
51.77
46.56
41.54
36.62
31.77
27.06
22.63
18.59
14.98
11.70
8.54
5.20
1.50
-2.62
-6.93
-11.05
-14.51
-17.03
-18.64
-19.65
-20.54
-21.85
-23.91
-26.82
-30.42
-34.25
-37.58
-39.51
-39.16
-35.94
-29.84
-21.49
-12.00
-2.63
5.61
12.20
17.10
20.61
23.13
24.98
26.35
27.30
27.88
28.10
27.94
27.45
26.71
25.84
25.01
24.34
23.94
23.82
23.94
24.14
24.30
24.20
23.70
22.76
21.45
20.00
18.62
17.50
16.64
15.87
14.93
13.55
11.63
9.31
6.89
4.75
3.16
2.12
1.38
0.46
-1.21
-4.07
-8.31
-13.70
-19.48
-24.48
-27.41
-27.20
-23.39
-16.35
-7.15
2.83
12.35
20.70
27.67
33.47
38.30
42.36
45.69
48.43
50.73
52.78
54.68
56.35
57.56
58.15
58.10
57.64
57.16
56.99
57.34
58.14
59.17
60.05
60.44
60.05
58.79
56.76
54.33
51.95
50.03
48.80
48.25
48.07
47.84
47.15
45.70
43.39
40.31
36.68
32.72
28.57
24.15
19.19
13.40
6.61
-0.92
-8.53
-15.26
-20.25
-23.05
-23.93
-23.86
-24.24
-26.58
-31.98
-40.90
-53.00
-67.29
-82.39
-96.91
-109.75
-120.31
-128.58
-134.88
-139.78
-143.82
-147.35
-150.24
-151.86
-151.10
-146.81
-138.27
-125.68
-110.24
-93.82
-78.27
-64.98
-54.55
-47.09
-42.61
-41.32
-43.66
-50.06
-60.59
-74.86
-92.10
-111.23
-131.01
-149.91
-166.13
-177.79
-183.33
-182.03
-174.31
-161.62
-145.96
-129.24
-112.83
-97.46
-83.27
-70.06
-57.36
-44.47
-30.51
-14.66
3.50
23.60
44.53
64.71
82.68
97.54
109.15
117.97
124.65
129.62
133.03
134.77
134.73
132.98
129.85
125.94
121.94
118.46
115.87
114.23
113.28
112.59
111.72
110.43
108.64
106.44
103.94
101.06
97.49
92.71
86.19
77.63
67.16
55.38
43.23
31.60
21.13
12.05
4.27
-2.35
-7.77
-11.85
-14.40
-15.52
-15.67
-15.50
-15.69
-16.65
-18.51
-21.25
-24.74
-28.82
-33.09
-36.87
-39.18
-38.94
-35.40
-28.37
-18.38
-6.50
5.94
17.75
28.11
36.65
43.42
48.64
52.65
55.78
58.34
60.66
63.04
65.59
68.26
70.74
72.68
73.92
74.56
74.97
75.61
76.76
78.41
80.26
81.80
82.44
81.58
78.69
73.35
65.38
54.88
42.19
27.66
11.58
-5.97
-24.95
-45.21
-66.26
-87.23
-107.07
-124.68
-139.31
-150.59
-158.58
-163.61
-166.09
-166.30
-164.31
-160.01
-153.15
-143.42
-130.53
-114.22
-94.38
-71.23
-45.57
-18.73
7.42
30.97
50.43
65.11
75.13
81.25
84.40
85.40
84.78
82.92
80.17
76.92
73.54
70.23
66.90
63.36
59.34
54.78
49.84
44.86
40.19
35.95
32.05
28.17
23.99
19.23
13.72
7.30
-0.23
-9.13
-19.55
-31.35
-44.02
-56.60
-67.96
-77.02
-83.14
-86.20
-86.64
-85.21
-82.83
-80.35
-78.39
-77.10
-76.13
-74.62
-71.51
-65.78
-56.91
-45.07
-31.14
-16.47
-2.49
9.61
19.18
26.09
30.61
33.19
34.24
34.04
32.78
30.70
28.18
25.72
23.79
22.76
22.72
23.46
24.61
25.79
26.80
27.57
28.18
28.73
29.18
29.35
29.01
27.90
25.85
22.82
18.85
14.14
8.92
3.47
-1.94
-7.07
-11.82
-16.26
-20.59
-25.21
-30.52
-36.72
-43.68
-50.71
-56.61
-59.91
-59.34
-54.32
-45.25
-33.39
-20.53
-8.42
1.75
9.49
15.01
18.81
21.48
23.44
24.90
25.92
26.46
26.47
25.93
24.83
23.24
21.28
19.14
17.11
15.43
14.25
13.58
13.23
12.89
12.28
11.24
9.75
7.98
6.13
4.27
2.37
0.28
-2.25
-5.35
-9.04
-13.10
-17.26
-21.23
-24.89
-28.35
-31.96
-36.11
-40.94
-46.10
-50.71
-53.51
-53.34
-49.56
-42.31
-32.52
-21.58
-10.90
-1.55
5.95
11.53
15.46
18.15
20.00
21.29
22.20
22.85
23.33
23.75
24.26
24.97
25.88
26.86
27.67
28.16
28.27
28.14
27.96
27.87
27.84
27.62
26.80
24.99
21.95
17.64
12.34
6.48
0.59
-4.93
-9.83
-14.08
-17.87
-21.50
-25.35
-29.82
-35.14
-41.28
-47.80
-53.71
-57.75
-58.70
-55.80
-49.07
-39.38
-28.11
-16.76
-6.56
1.83
8.22
12.79
15.87
17.80
18.79
19.06
18.74
17.99
16.99
15.89
14.86
14.05
13.62
13.63
14.14
15.03
16.11
17.07
17.60
17.50
16.74
15.47
13.90
12.21
10.40
8.29
5.64
2.28
-1.71
-6.08
-10.50
-14.68
-18.51
-22.11
-25.71
-29.58
-33.96
-39.00
-44.67
-50.61
-56.11
-60.06
-61.29
-58.92
-52.70
-43.26
-31.89
-20.15
-9.38
-0.40
6.56
11.69
15.28
17.61
18.92
19.49
19.66
19.83
20.25
20.96
21.77
22.39
22.58
22.40
22.09
22.04
22.56
23.75
25.41
27.12
28.39
28.76
27.99
26.10
23.33
20.03
16.59
13.18
9.80
6.25
2.30
-2.13
-6.92
-11.76
-16.31
-20.43
-24.20
-27.94
-32.11
-37.19
-43.49
-51.06
-59.64
-68.50
-76.67
-82.97
-86.31
-86.09
-82.34
-75.84
-67.84
-59.81
-52.95
-48.01
-45.14
-44.06
-44.29
-45.43
-47.19
-49.42
-51.92
-54.38
-56.39
-57.50
-57.42
-56.08
-53.60
-50.18
-45.88
-40.61
-34.20
-26.60
-18.09
-9.21
-0.70
6.90
13.44
19.23
24.79
30.49
36.31
41.67
45.78
47.89
47.66
45.19
40.91
35.28
28.69
21.39
13.61
5.59
-2.40
-10.08
-17.31
-24.13
-30.73
-37.44
-44.61
-52.33
-60.33
-67.71
-73.14
-75.20
-72.88
-66.02
-55.51
-42.99
-30.43
-19.49
-11.05
-4.97
0.05
6.37
17.00
34.89
61.92
97.92
140.18
183.65
222.08
249.57
262.13
258.66
241.08
213.76
182.28
152.15
127.58
110.65
101.10
96.82
94.84
92.47
88.16
81.68
73.68
65.02
56.24
47.52
38.80
30.13
21.74
13.86
6.60
-0.16
-6.64
-12.91
-18.95
-24.76
-30.53
-36.70
-43.72
-51.63
-59.83
-67.11
-71.93
-72.87
-69.05
-60.40
-47.60
-32.00
-15.21
1.29
16.47
29.89
41.64
51.91
60.74
67.86
72.89
75.73
76.85
77.29
78.30
80.83
85.08
90.44
95.73
99.64
101.18
100.01
96.53
91.75
86.99
83.39
81.59
81.44
82.01
81.98
80.17
75.95
69.42
61.20
52.06
42.54
32.84
22.95
12.87
2.86
-6.65
-15.18
-22.46
-28.62
-34.16
-39.83
-46.33
-54.10
-63.25
-73.59
-84.82
-96.54
-108.26
-119.26
-128.63
-135.37
-138.75
-138.66
-135.74
-131.17
-126.23
-121.87
-118.44
-115.75
-113.29
-110.60
-107.40
-103.57
-99.14
-94.22
-88.94
-83.48
-77.96
-72.46
-66.96
-61.39
-55.76
-50.12
-44.60
-39.32
-34.26
-29.35
-24.51
-19.79
-15.42
-11.68
-8.82
-6.92
-5.84
-5.34
-5.17
-5.22
-5.52
-6.23
-7.55
-9.63
-12.48
-16.01
-19.98
-24.05
-27.81
-30.92
-33.19
-34.74
-35.91
-37.26
-39.37
-42.64
-47.05
-51.93
-55.95
-57.29
-54.10
-45.16
-30.40
-11.06
10.57
31.91
50.80
65.97
77.03
84.24
88.02
88.88
87.35
84.11
79.95
75.55
71.33
67.41
63.68
60.11
56.87
54.31
52.75
52.27
52.67
53.57
54.61
55.61
56.57
57.56
58.46
58.95
58.57
57.02
54.36
51.11
48.08
45.97
44.98
44.68
44.10
42.17
38.08
31.65
23.39
14.37
6.04
-0.24
-3.43
-3.34
-0.85
2.05
2.60
-1.89
-13.15
-31.11
-53.51
-76.12
-93.53
-100.52
-93.63
-72.47
-40.11
-2.47
33.33
60.95
76.51
79.26
71.20
56.04
37.86
20.16
5.28
-5.67
-12.68
-16.57
-18.58
-20.02
-21.91
-24.87
-29.05
-34.36
-40.51
-47.06
-53.51
-59.32
-64.04
-67.44
-69.60
-70.78
-71.30
-71.37
-71.02
-70.17
-68.65
-66.42
-63.54
-60.30
-57.15
-54.65
-53.40
-53.81
-56.08
-60.16
-65.68
-72.05
-78.42
-83.78
-87.05
-87.33
-84.12
-77.55
-68.41
-57.98
-47.60
-38.40
-30.95
-25.26
-20.88
-17.20
-13.79
-10.62
-8.11
-6.86
-7.34
-9.36
-11.87
-13.17
-11.48
-5.73
3.97
16.26
29.12
40.70
49.96
56.94
62.45
67.52
72.82
78.53
84.38
89.91
94.64
97.97
99.15
97.16
91.10
80.63
66.38
49.98
33.53
18.89
6.94
-2.57
-10.66
-18.36
-26.13
-33.75
-40.58
-46.11
-50.21
-52.89
-53.99
-52.93
-48.83
-41.01
-29.59
-15.64
-0.99
12.49
23.50
31.73
37.69
42.26
46.06
49.21
51.44
52.49
52.51
52.26
52.83
55.26
60.05
67.05
75.61
84.85
94.03
102.67
110.46
117.11
122.32
125.77
127.20
126.54
123.90
119.58
113.97
107.44
100.33
92.98
85.78
79.09
73.06
67.47
61.80
55.45
48.24
40.62
33.62
28.26
24.88
22.79
20.36
15.88
8.28
-2.26
-14.30
-25.77
-34.71
-40.00
-41.74
-41.16
-40.31
-41.39
-45.91
-54.18
-65.09
-76.67
-86.90
-94.47
-99.07
-101.02
-100.74
-98.35
-93.85
-87.63
-80.85
-75.28
-72.75
-74.37
-80.02
-88.51
-98.09
-106.94
-113.44
-116.00
-112.81
-101.85
-81.45
-51.20
-12.86
29.41
69.86
102.80
124.56
134.73
136.03
132.87
129.16
126.70
124.77
121.11
113.63
101.80
86.89
71.25
57.43
47.65
43.94
48.36
62.78
87.79
121.62
159.73
195.59
222.65
236.23
234.63
218.82
191.40
155.31
113.23
67.49
20.45
-25.17
-66.43
-100.47
-125.06
-139.19
-143.42
-140.14
-133.10
-126.77
-125.21
-131.25
-146.08
-169.35
-199.43
-233.63
-268.15
-298.22
-318.87
-326.26
-319.14
-299.45
-271.89
-242.40
-216.17
-196.34
-183.50
-176.22
-172.04
-168.50
-163.76
-156.96
-148.04
-137.55
-126.27
-114.77
-103.22
-91.30
-78.29
-63.31
-45.57
-24.70
-1.09
23.97
48.47
70.25
87.78
100.69
109.77
116.35
121.60
125.96
129.25
131.16
131.65
131.05
129.65
127.25
123.03
115.86
105.08
90.97
74.92
58.95
45.02
34.45
27.64
24.09
22.73
22.27
21.55
19.81
16.79
12.76
8.39
4.57
2.09
1.47
2.74
5.38
8.48
10.94
11.88
11.03
8.86
6.62
5.96
8.42
14.84
25.02
37.73
51.09
63.16
72.50
78.52
81.43
82.00
81.10
79.38
77.10
74.14
70.11
64.65
57.48
48.63
38.51
27.75
17.29
7.99
0.58
-4.57
-7.60
-8.97
-9.39
-9.53
-9.85
-10.59
-11.81
-13.51
-15.65
-18.19
-21.07
-24.14
-27.20
-30.08
-32.66
-34.91
-36.88
-38.63
-40.31
-42.09
-44.20
-46.87
-50.17
-53.84
-57.24
-59.43
-59.49
-56.80
-51.35
-43.78
-35.21
-26.89
-19.95
-15.09
-12.56
-12.14
-13.35
-15.56
-18.12
-20.48
-22.22
-23.05
-22.84
-21.58
-19.38
-16.48
-13.14
-9.65
-6.14
-2.65
0.90
4.54
8.09
11.18
13.36
14.34
14.19
13.36
12.47
11.99
12.02
12.25
12.15
11.32
9.67
7.44
5.06
2.98
1.67
1.60
3.36
7.58
14.63
24.43
36.25
48.98
61.52
73.24
84.13
94.49
104.48
113.73
121.29
125.99
126.96
124.00
117.59
108.59
97.91
86.32
74.45
62.95
52.48
43.59
36.52
31.09
26.78
22.91
18.89
14.32
9.05
3.13
-3.23
-9.62
-15.59
-20.70
-24.78
-28.10
-31.27
-34.94
-39.35
-44.02
-47.72
-48.88
-46.19
-39.22
-28.56
-15.67
-2.29
10.12
20.71
29.23
35.80
40.60
43.69
45.17
45.21
44.26
42.93
41.85
41.43
41.70
42.40
43.09
43.36
42.98
41.90
40.19
37.89
34.90
31.02
25.99
19.71
12.29
4.14
-4.13
-11.89
-18.70
-24.47
-29.49
-34.40
-40.00
-46.79
-54.73
-62.90
-69.67
-73.13
-71.77
-65.03
-53.70
-39.66
-25.23
-12.46
-2.59
4.07
7.94
9.66
9.85
8.89
7.09
4.75
2.25
-0.02
-1.81
-3.07
-4.07
-5.17
-6.66
-8.63
-10.86
-12.98
-14.58
-15.53
-16.03
-16.67
-18.08
-20.73
-24.60
-29.23
-33.90
-37.93
-40.98
-43.15
-44.89
-46.83
-49.57
-53.50
-58.64
-64.52
-70.11
-73.93
-74.49
-70.76
-62.58
-50.86
-37.23
-23.56
-11.31
-1.24
6.56
12.48
16.95
20.34
22.84
24.60
25.79
26.62
27.29
27.89
28.48
28.95
29.26
29.38
29.44
29.54
29.85
30.47
31.39
32.50
33.59
34.42
34.72
34.28
32.90
30.43
26.76
21.87
15.89
9.11
1.99
-4.96
-11.26
-16.68
-21.29
-25.45
-29.69
-34.51
-40.22
-46.69
-53.33
-59.07
-62.56
-62.48
-58.01
-49.10
-36.59
-22.04
-7.33
5.91
16.66
24.69
30.42
34.66
38.16
41.41
44.60
47.68
50.49
52.86
54.58
55.34
54.72
52.36
48.10
42.10
34.90
27.26
19.89
13.31
7.65
2.90
-1.10
-4.28
-6.47
-7.40
-7.04
-5.73
-4.24
-3.59
-4.74
-8.35
-14.57
-23.08
-33.22
-44.11
-54.83
-64.46
-72.20
-77.47
-80.09
-80.35
-78.97
-76.85
-74.77
-73.12
-71.68
-69.75
-66.41
-60.91
-53.05
-43.32
-32.81
-22.82
-14.51
-8.56
-5.04
-3.55
-3.41
-3.91
-4.45
-4.63
-4.14
-2.85
-0.68
2.35
6.08
10.26
14.53
18.56
22.08
24.98
27.29
29.11
30.54
31.66
32.46
32.89
32.84
32.14
30.72
28.60
26.00
23.27
20.82
18.92
17.50
16.13
14.20
11.23
7.06
2.04
-3.16
-7.84
-11.55
-14.29
-16.47
-18.77
-21.95
-26.56
-32.80
-40.31
-48.14
-54.88
-58.92
-58.93
-54.28
-45.28
-33.15
-19.67
-6.62
4.51
12.97
18.63
21.90
23.39
23.66
23.11
21.94
20.27
18.26
16.17
14.38
13.17
12.69
12.83
13.33
13.90
14.34
14.62
14.80
14.98
15.13
15.13
14.80
13.94
12.51
10.60
8.41
6.15
4.06
2.20
0.54
-1.12
-2.99
-5.28
-8.09
-11.39
-14.96
-18.51
-21.72
-24.36
-26.35
-27.79
-28.96
-30.25
-32.17
-35.15
-39.44
-44.84
-50.64
-55.49
-57.82
-56.19
-49.91
-39.35
-25.92
-11.64
1.51
12.12
19.64
24.21
26.37
26.69
25.64
23.56
20.84
17.90
15.17
12.98
11.48
10.63
10.25
10.20
10.35
10.67
11.17
11.89
12.79
13.71
14.39
14.47
13.61
11.69
8.85
5.51
2.24
-0.45
-2.33
-3.46
-4.19
-5.01
-6.27
-8.13
-10.43
-12.85
-14.99
-16.59
-17.58
-18.07
-18.36
-18.82
-19.79
-21.57
-24.28
-27.74
-31.39
-34.24
-35.05
-32.76
-26.78
-17.32
-5.40
7.40
19.46
29.48
36.83
41.47
43.78
44.29
43.46
41.68
39.30
36.65
34.14
32.19
31.11
31.07
32.04
33.78
35.98
38.34
40.63
42.67
44.21
44.87
44.13
41.50
36.65
29.63
20.93
11.38
1.90
-6.87
-14.65
-21.65
-28.31
-35.15
-42.44
-50.12
-57.80
-65.02
-71.40
-76.83
-81.57
-86.05
-90.81
-96.22
-102.46
-109.38
-116.52
-123.11
-128.13
-130.43
-129.08
-123.57
-114.10
-101.66
-87.80
-74.27
-62.50
-53.32
-46.77
-42.41
-39.51
-37.49
-35.98
-34.82
-33.80
-32.58
-30.72
-27.74
-23.45
-17.93
-11.47
-4.27
3.66
12.62
22.91
34.51
46.82
58.72
68.82
75.90
79.27
78.96
75.55
69.84
62.58
54.11
44.34
32.89
19.26
3.32
-14.49
-33.10
-50.99
-66.75
-79.55
-89.54
-97.65
-105.16
-112.93
-120.82
-127.61
-131.32
-129.96
-122.08
-107.37
-86.60
-61.56
-34.64
-8.49
14.54
32.76
45.51
53.13
56.71
57.66
57.23
56.17
54.71
52.77
50.17
46.93
43.27
39.59
36.34
33.95
32.76
32.99
34.69
37.64
41.30
44.90
47.67
49.05
48.98
47.80
46.11
44.36
42.68
40.89
38.70
35.92
32.66
29.15
25.64
22.23
18.88
15.47
11.90
8.06
3.79
-1.02
-6.22
-11.15
-14.48
-14.49
-9.69
0.56
15.65
33.91
53.22
71.66
87.93
101.36
111.75
119.00
123.12
124.24
122.69
118.97
113.61
107.16
100.13
93.09
86.69
81.48
77.75
75.35
73.78
72.34
70.49
68.06
65.23
62.36
59.77
57.47
55.19
52.39
48.49
43.16
36.56
29.28
22.26
16.42
12.40
10.36
9.92
10.16
9.80
7.38
1.70
-7.73
-20.25
-33.97
-46.13
-53.98
-55.70
-51.08
-41.54
-29.55
-17.70
-7.98
-1.35
2.11
2.85
1.45
-1.53
-5.55
-9.95
-14.03
-17.12
-18.83
-19.18
-18.56
-17.49
-16.46
-15.69
-15.14
-14.56
-13.70
-12.41
-10.76
-9.01
-7.55
-6.83
-7.19
-8.76
-11.43
-14.84
-18.57
-22.31
-25.94
-29.56
-33.26
-37.11
-41.01
-44.86
-48.68
-52.77
-57.61
-63.53
-70.37
-77.12
-82.10
-83.40
-79.59
-70.22
-56.12
-39.05
-21.21
-4.54
9.67
20.85
29.08
34.68
38.09
39.71
39.85
38.85
37.01
34.66
32.05
29.34
26.58
23.82
21.20
19.03
17.80
17.95
19.71
22.84
26.72
30.47
33.31
34.76
34.73
33.46
31.27
28.43
25.15
21.58
17.86
14.17
10.76
7.82
5.47
3.73
2.44
1.35
0.14
-1.46
-3.46
-5.43
-6.48
-5.35
-0.92
7.28
18.76
32.16
45.73
57.91
67.70
74.58
78.10
77.51
71.77
60.01
42.20
19.55
-5.74
-31.10
-54.41
-74.44
-90.86
-103.77
-113.26
-119.14
-120.98
-118.39
-111.13
-99.24
-82.96
-62.72
-39.25
-13.74
12.11
36.11
56.05
70.14
77.51
78.39
73.91
65.64
55.01
43.05
30.37
17.42
4.72
-7.13
-17.67
-26.80
-34.98
-42.93
-51.30
-60.16
-68.81
-75.87
-79.51
-78.11
-70.66
-57.24
-39.15
-18.68
1.38
18.43
30.67
37.40
39.06
36.89
32.62
28.07
24.93
24.70
28.59
37.41
51.27
69.28
89.39
108.58
123.59
131.81
132.31
126.18
116.22
106.04
98.84
96.47
99.08
105.24
112.52
118.17
119.78
115.73
105.52
89.79
70.09
48.42
26.75
6.57
-11.27
-26.64
-39.82
-51.40
-61.94
-71.66
-80.27
-86.96
-90.59
-90.36
-86.33
-79.60
-72.01
-65.45
-61.06
-58.80
-57.58
-55.72
-51.70
-44.50
-33.70
-19.34
-1.82
18.02
38.82
58.66
75.39
87.09
92.58
91.70
85.17
74.20
60.01
43.57
25.67
7.17
-10.85
-27.12
-40.36
-49.68
-54.80
-56.06
-54.29
-50.59
-46.10
-41.97
-39.22
-38.67
-40.89
-46.00
-53.66
-63.13
-73.46
-83.74
-93.38
-102.24
-110.57
-118.87
-127.64
-137.16
-147.43
-158.25
-169.37
-180.72
-192.46
-204.89
-218.35
-232.97
-248.65
-265.07
-281.86
-298.64
-315.22
-331.43
-347.04
-361.60
-374.42
-384.74
-391.89
-395.27
-394.24
-387.90
-375.16
-354.97
-326.91
-291.61
-250.85
-207.17
-163.19
-120.88
-81.33
-44.87
-11.37
19.36
47.53
73.49
97.88
121.60
145.51
169.98
194.52
217.77
237.86
253.02
262.19
265.38
263.54
258.17
250.74
242.20
232.99
223.06
212.27
200.54
187.95
174.68
160.94
146.90
132.71
118.61
104.90
91.90
79.86
68.77
58.38
48.07
37.14
24.94
11.21
-3.75
-18.92
-32.65
-43.06
-48.50
-48.13
-42.20
-32.05
-19.66
-7.03
4.33
13.72
21.09
26.80
31.25
34.76
37.59
40.01
42.32
44.72
47.23
49.59
51.48
52.68
53.32
53.75
54.50
55.93
58.11
60.83
63.71
66.38
68.52
69.89
70.39
70.00
68.84
67.12
65.09
62.91
60.63
58.23
55.70
53.03
50.24
47.22
43.71
39.39
34.05
27.70
20.64
13.40
6.44
0.04
-5.85
-11.56
-17.56
-24.34
-32.24
-41.37
-51.47
-61.84
-71.29
-78.32
-81.41
-79.55
-72.56
-61.33
-47.58
-33.32
-20.29
-9.54
-1.24
5.02
9.89
13.89
17.25
19.99
22.14
23.89
25.72
28.21
31.88
36.90
43.10
50.03
57.16
64.06
70.39
75.90
80.30
83.25
84.46
83.83
81.49
77.81
73.25
68.25
63.16
58.26
53.74
49.74
46.24
43.12
40.13
37.02
33.63
29.85
25.70
21.24
16.62
12.05
7.78
3.92
0.31
-3.51
-8.24
-14.46
-22.29
-31.13
-39.65
-46.18
-49.11
-47.50
-41.35
-31.51
-19.48
-6.91
4.79
14.69
22.38
27.93
31.63
33.89
35.12
35.65
35.75
35.61
35.33
34.94
34.50
34.09
33.83
33.91
34.52
35.83
37.83
40.31
42.89
45.02
46.21
46.07
44.51
41.65
37.89
33.73
29.65
25.96
22.71
19.70
16.56
12.98
8.78
4.06
-0.95
-5.96
-10.82
-15.53
-20.29
-25.40
-31.17
-37.89
-45.62
-54.12
-62.69
-70.10
-74.87
-75.59
-71.41
-62.41
-49.59
-34.60
-19.21
-4.93
7.36
17.31
25.02
30.82
35.17
38.50
41.23
43.67
45.94
48.01
49.65
50.58
50.59
49.59
47.76
45.46
43.17
41.36
40.28
39.90
39.87
39.65
38.74
36.84
34.01
30.53
26.82
23.23
19.91
16.84
13.85
10.79
7.58
4.29
1.06
-2.04
-4.96
-7.84
-10.90
-14.37
-18.45
-23.21
-28.73
-34.94
-41.68
-48.51
-54.72
-59.33
-61.32
-59.93
-54.95
-46.68
-35.80
-22.98
-8.60
7.16
24.14
41.82
59.21
75.09
88.45
98.96
107.11
113.93
120.54
127.55
134.85
141.57
146.43
148.12
145.75
139.15
128.95
116.42
103.18
90.67
79.89
71.14
64.25
58.78
54.27
50.44
47.24
44.86
43.64
43.92
45.83
49.10
52.97
56.42
58.42
58.34
56.14
52.28
47.38
41.98
36.21
29.90
22.73
14.41
4.89
-5.55
-16.21
-25.95
-33.32
-36.97
-36.00
-30.51
-21.66
-11.44
-1.97
5.28
9.90
12.63
14.86
17.96
22.79
29.51
37.65
46.39
54.83
62.17
67.85
71.56
73.32
73.44
72.46
70.98
69.44
68.05
66.73
65.10
62.69
59.10
54.09
47.68
39.94
30.90
20.45
8.36
-5.40
-20.45
-35.93
-50.59
-63.02
-72.10
-77.26
-78.65
-77.18
-74.25
-71.41
-69.98
-70.71
-73.67
-78.36
-83.88
-89.00
-92.15
-91.37
-84.43
-69.52
-46.10
-15.53
18.87
52.57
81.25
102.00
113.77
116.98
112.54
100.97
82.23
56.22
23.62
-13.64
-52.60
-90.05
-123.34
-150.92
-172.28
-187.63
-197.56
-202.97
-205.05
-205.08
-204.05
-202.23
-198.99
-193.13
-183.57
-169.97
-153.00
-133.84
-113.62
-92.81
-71.39
-49.37
-27.50
-7.24
9.69
22.35
31.09
37.31
42.42
46.81
49.37
48.20
41.85
30.51
16.13
1.49
-11.26
-21.66
-30.68
-39.64
-48.58
-55.38
-56.15
-46.79
-24.94
8.47
48.99
89.78
123.73
145.57
153.30
148.26
134.13
115.33
95.50
76.75
59.73
44.17
29.57
15.60
2.12
-11.03
-24.13
-37.36
-50.48
-62.46
-71.40
-74.92
-70.98
-58.93
-40.22
-18.40
1.74
15.75
21.13
18.06
9.16
-1.84
-11.66
-18.63
-22.84
-25.56
-28.18
-31.39
-34.66
-36.31
-34.02
-25.68
-10.30
11.45
37.35
64.35
89.56
110.99
127.52
138.44
142.77
139.29
127.10
106.60
79.97
50.77
22.74
-1.65
-21.86
-38.91
-54.12
-67.86
-79.19
-86.47
-88.71
-86.58
-82.51
-79.78
-80.90
-86.51
-95.30
-104.89
-113.19
-119.43
-124.10
-128.23
-132.49
-136.77
-140.32
-142.47
-143.14
-142.95
-142.91
-143.94
-146.55
-150.86
-156.77
-164.16
-172.92
-182.88
-193.79
-205.19
-216.51
-227.04
-236.00
-242.43
-245.51
-244.80
-240.56
-233.81
-226.09
-218.94
-213.41
-209.99
-208.80
-209.97
-213.71
-219.83
-227.23
-233.49
-235.15
-228.82
-212.34
-185.63
-150.69
-110.76
-69.15
-28.28
10.69
47.49
82.10
114.15
142.79
166.98
185.97
199.79
209.21
215.47
219.63
222.11
222.62
220.55
215.52
207.69
197.76
186.54
174.66
162.24
149.05
134.87
119.68
103.79
87.81
72.51
58.70
47.08
38.14
32.05
28.64
27.43
27.87
29.43
31.73
34.47
37.39
40.21
42.70
44.80
46.58
48.16
49.63
51.04
52.37
53.73
55.34
57.52
60.52
64.34
68.65
72.88
76.42
78.76
79.68
79.14
77.21
73.92
69.29
63.37
56.43
48.92
41.38
34.22
27.51
21.05
14.43
7.44
0.18
-6.90
-13.21
-18.39
-22.48
-26.00
-29.69
-34.24
-39.93
-46.43
-52.75
-57.33
-58.52
-55.09
-46.77
-34.47
-20.05
-5.74
6.64
16.17
22.94
27.60
30.96
33.46
35.22
36.16
36.27
35.72
34.78
33.64
32.35
30.88
29.25
27.73
26.74
26.74
28.03
30.44
33.41
36.08
37.58
37.40
35.49
32.31
28.58
25.00
21.95
19.46
17.17
14.63
11.48
7.60
3.11
-1.69
-6.46
-11.00
-15.21
-19.26
-23.46
-28.23
-33.81
-40.07
-46.27
-51.20
-53.47
-51.94
-46.29
-37.07
-25.60
-13.51
-2.27
7.19
14.54
19.89
23.60
26.08
27.71
28.79
29.57
30.28
31.01
31.87
32.87
34.05
35.41
36.95
38.67
40.51
42.44
44.40
46.29
47.93
49.05
49.28
48.35
46.10
42.61
38.24
33.50
28.87
24.70
21.10
17.93
14.93
11.81
8.31
4.33
-0.05
-4.62
-9.04
-12.99
-16.25
-18.90
-21.29
-24.07
-27.95
-33.44
-40.50
-48.38
-55.67
-60.60
-61.63
-57.90
-49.58
-37.78
-24.23
-10.70
1.44
11.44
19.12
24.76
28.76
31.59
33.62
35.12
36.25
37.12
37.71
37.98
37.92
37.59
37.16
36.85
36.95
37.61
38.82
40.37
41.91
43.06
43.51
43.16
42.08
40.43
38.37
36.01
33.34
30.39
27.23
24.00
20.85
17.83
14.84
11.71
8.23
4.33
0.14
-4.05
-7.98
-11.43
-14.35
-16.88
-19.24
-21.74
-24.72
-28.50
-33.28
-38.88
-44.63
-49.40
-51.80
-50.63
-45.35
-36.25
-24.42
-11.42
1.19
12.24
21.16
27.87
32.67
35.93
38.05
39.34
40.02
40.28
40.25
39.96
39.45
38.69
37.69
36.50
35.17
33.79
32.44
31.21
30.17
29.34
28.67
28.00
27.13
25.83
23.98
21.63
18.97
16.25
13.74
11.57
9.77
8.22
6.71
5.00
2.91
0.34
-2.66
-5.93
-9.24
-12.40
-15.29
-17.90
-20.38
-22.96
-25.96
-29.69
-34.28
-39.50
-44.68
-48.70
-50.26
-48.35
-42.59
-33.43
-22.03
-9.92
1.41
10.90
18.03
22.80
25.52
26.66
26.77
26.30
25.67
25.10
24.69
24.42
24.15
23.77
23.25
22.67
22.24
22.15
22.52
23.34
24.47
25.63
26.46
26.59
25.77
23.88
21.06
17.65
14.07
10.70
7.72
5.11
2.68
0.27
-2.19
-4.69
-7.14
-9.48
-11.68
-13.72
-15.56
-17.16
-18.55
-19.97
-21.87
-24.79
-29.13
-34.83
-41.25
-47.16
-51.14
-52.02
-49.26
-43.22
-34.96
-25.95
-17.53
-10.60
-5.55
-2.26
-0.35
0.63
1.07
1.24
1.31
1.31
1.28
1.17
0.96
0.68
0.41
0.35
0.72
1.74
3.60
6.37
9.93
14.02
18.13
21.72
24.32
25.68
25.86
25.17
24.07
22.89
21.81
20.73
19.40
17.56
15.05
11.88
8.22
4.33
0.48
-3.13
-6.40
-9.35
-12.14
-15.07
-18.51
-22.76
-27.83
-33.27
-38.20
-41.49
-42.13
-39.61
-34.10
-26.42
-17.76
-9.27
-1.83
4.15
8.64
11.81
13.94
15.26
15.99
16.31
16.34
16.16
15.84
15.39
14.81
14.14
13.42
12.76
12.32
12.25
12.61
13.32
14.12
14.66
14.56
13.57
11.72
9.21
6.44
3.83
1.68
0.07
-1.20
-2.41
-3.92
-5.86
-8.18
-10.58
-12.64
-14.05
-14.75
-15.01
-15.32
-16.29
-18.29
-21.32
-24.91
-28.18
-30.13
-29.89
-26.99
-21.54
-14.23
-6.16
1.46
7.65
11.83
13.95
14.41
13.81
12.72
11.50
10.23
8.81
7.14
5.22
3.19
1.25
-0.42
-1.69
-2.52
-2.90
-2.85
-2.49
-2.03
-1.76
-1.98
-2.85
-4.39
-6.46
-8.86
-11.41
-13.96
-16.38
-18.56
-20.41
-21.86
-22.94
-23.69
-24.14
-24.27
-24.07
-23.60
-23.12
-22.99
-23.59
-25.10
-27.23
-29.33
-30.48
-29.90
-27.16
-22.40
-16.27
-9.64
-3.42
1.76
5.55
7.93
9.07
9.23
8.68
7.65
6.34
4.89
3.44
2.05
0.81
-0.20
-0.89
-1.16
-0.98
-0.40
0.41
1.24
1.90
2.32
2.52
2.65
2.83
3.06
3.20
2.98
2.16
0.61
-1.58
-4.19
-6.91
-9.51
-11.92
-14.26
-16.76
-19.66
-23.18
-27.46
-32.49
-38.05
-43.65
-48.56
-51.83
-52.60
-50.37
-45.20
-37.75
-29.09
-20.38
-12.46
-5.71
-0.09
4.74
9.09
13.17
16.96
20.29
22.99
24.91
26.09
26.62
26.70
26.54
26.37
26.37
26.68
27.32
28.19
29.03
29.56
29.50
28.71
27.21
25.20
22.95
20.71
18.61
16.64
14.64
12.39
9.67
6.41
2.69
-1.26
-5.09
-8.50
-11.36
-13.77
-16.07
-18.70
-21.97
-25.89
-30.01
-33.53
-35.52
-35.17
-32.14
-26.65
-19.42
-11.46
-3.76
2.88
7.98
11.39
13.23
13.77
13.46
12.70
11.88
11.19
10.66
10.20
9.64
8.93
8.12
7.34
6.75
6.43
6.34
6.35
6.33
6.21
5.98
5.68
5.28
4.70
3.76
2.26
0.10
-2.72
-5.98
-9.37
-12.49
-15.06
-16.85
-17.90
-18.37
-18.58
-18.92
-19.78
-21.40
-23.77
-26.48
-28.79
-29.71
-28.39
-24.32
-17.61
-8.98
0.52
9.77
17.92
24.57
29.82
34.06
37.77
41.36
45.01
48.72
52.39
55.95
59.41
62.87
66.49
70.47
75.04
80.41
86.62
93.41
100.09
105.65
109.02
109.53
107.10
102.31
96.06
89.08
81.63
73.36
63.52
51.27
36.05
17.79
-2.99
-25.20
-47.33
-67.74
-85.06
-98.49
-107.98
-114.11
-117.79
-119.81
-120.50
-119.73
-117.06
-112.08
-104.63
-95.05
-84.07
-72.64
-61.69
-51.92
-43.76
-37.33
-32.56
-29.23
-27.02
-25.63
-24.77
-24.20
-23.74
-23.20
-22.34
-20.86
-18.42
-14.83
-10.21
-4.97
0.24
4.80
8.33
10.77
12.33
13.28
13.82
14.08
14.14
14.05
13.86
13.51
12.74
11.21
8.61
4.89
0.39
-4.30
-8.54
-11.87
-14.14
-15.50
-16.29
-17.04
-18.25
-20.42
-23.76
-28.09
-32.70
-36.47
-38.23
-37.16
-33.13
-26.68
-18.92
-11.09
-4.21
1.20
5.11
7.87
9.92
11.53
12.75
13.44
13.51
13.02
12.34
11.87
11.94
12.53
13.36
14.03
14.25
13.96
13.39
12.86
12.63
12.81
13.25
13.66
13.64
12.86
11.13
8.50
5.24
1.74
-1.61
-4.58
-7.16
-9.54
-12.01
-14.82
-18.09
-21.71
-25.30
-28.26
-29.87
-29.46
-26.64
-21.41
-14.21
-5.86
2.70
10.63
17.42
22.88
27.08
30.22
32.49
34.00
34.78
34.88
34.36
33.40
32.18
30.92
29.78
28.82
28.06
27.46
26.94
26.42
25.85
25.11
24.07
22.57
20.49
17.77
14.49
10.83
7.10
3.65
0.77
-1.35
-2.73
-3.63
-4.51
-5.87
-7.89
-10.33
-12.35
-12.75
-10.37
-4.58
4.50
16.03
28.85
41.93
54.73
67.10
79.07
90.57
101.33
110.98
119.17
125.61
129.99
131.97
131.25
127.92
122.63
116.66
111.59
108.79
108.90
111.63
115.85
120.06
122.82
123.08
120.29
114.48
106.14
96.15
85.50
74.99
65.07
55.72
46.65
37.47
27.83
17.43
5.98
-6.62
-20.10
-33.46
-44.97
-52.49
-54.32
-50.02
-40.83
-29.35
-18.59
-10.90
-7.19
-6.97
-8.92
-11.71
-14.60
-17.61
-21.15
-25.61
-30.90
-36.33
-40.80
-43.19
-42.76
-39.68
-35.00
-30.49
-27.98
-28.74
-33.05
-40.22
-49.16
-58.91
-68.99
-79.34
-89.91
-100.28
-109.56
-116.80
-121.40
-123.33
-123.10
-121.18
-117.55
-111.64
-102.70
-90.43
-75.50
-59.42
-44.16
-31.42
-22.26
-16.98
-15.32
-16.63
-19.97
-24.16
-27.81
-29.68
-29.12
-26.38
-22.66
-19.58
-18.52
-20.02
-23.56
-28.01
-32.30
-36.11
-40.23
-46.35
-56.45
-72.09
-93.87
-121.39
-153.37
-188.08
-223.66
-258.43
-291.19
-321.25
-348.19
-371.23
-388.67
-397.53
-394.21
-375.65
-340.68
-290.73
-229.44
-161.58
-91.74
-23.66
39.82
96.26
143.50
179.89
204.89
219.39
225.53
226.05
223.46
219.63
215.62
211.86
208.31
204.46
199.58
192.88
183.90
172.73
159.91
146.14
131.96
117.67
103.52
89.96
77.72
67.50
59.45
52.86
46.31
38.23
27.66
14.70
0.48
-13.34
-25.26
-34.33
-40.28
-43.30
-43.73
-41.86
-37.74
-31.27
-22.37
-11.21
1.48
14.38
25.76
34.07
38.40
38.92
36.70
33.26
29.89
27.16
24.99
22.91
20.64
18.33
16.58
16.08
17.23
19.95
23.78
28.19
32.92
38.05
43.90
50.68
58.22
65.95
73.07
78.95
83.35
86.41
88.44
89.70
90.20
89.81
88.31
85.58
81.53
76.05
68.92
59.94
49.08
36.76
23.90
11.72
1.34
-6.63
-12.27
-16.30
-19.74
-23.52
-28.13
-33.54
-39.27
-44.68
-49.22
-52.63
-54.93
-56.34
-57.03
-57.01
-56.08
-53.90
-50.08
-44.37
-36.78
-27.65
-17.67
-7.82
0.88
7.66
12.30
15.37
18.15
22.31
29.40
40.10
53.73
67.98
79.24
83.54
77.79
60.92
34.37
1.80
-31.94
-62.12
-85.14
-99.14
-104.00
-100.91
-91.87
-79.16
-64.80
-50.19
-36.02
-22.34
-9.01
3.94
16.12
26.95
35.88
42.66
47.28
49.87
50.38
48.59
44.21
37.09
27.40
15.70
2.88
-9.99
-21.85
-31.76
-39.06
-43.48
-45.23
-44.90
-43.37
-41.53
-40.13
-39.65
-40.28
-41.96
-44.48
-47.59
-50.91
-54.02
-56.48
-57.85
-57.86
-56.45
-53.75
-50.03
-45.56
-40.53
-35.12
-29.61
-24.47
-20.51
-18.68
-20.00
-25.26
-34.92
-49.04
-67.39
-89.43
-114.24
-140.37
-165.93
-188.68
-206.49
-217.86
-222.34
-220.60
-214.30
-205.45
-195.92
-187.00
-179.25
-172.51
-166.05
-158.85
-149.91
-138.70
-125.45
-111.29
-97.84
-86.55
-77.96
-71.12
-63.81
-53.23
-37.33
-15.76
9.72
35.76
58.57
75.14
84.06
85.68
81.73
74.77
67.53
62.43
61.25
64.78
72.66
83.29
94.13
102.38
105.89
103.82
97.01
87.65
78.47
71.80
68.77
69.11
71.42
73.93
75.23
74.77
72.82
70.16
67.54
65.30
63.36
61.41
59.17
56.72
54.31
52.34
51.09
50.55
50.48
50.52
50.35
49.75
48.70
47.26
45.51
43.44
40.98
38.06
34.64
30.85
26.92
23.11
19.50
16.04
12.47
8.51
3.93
-1.26
-6.96
-12.97
-19.11
-25.34
-31.66
-38.08
-44.47
-50.47
-55.45
-58.61
-59.13
-56.46
-50.55
-41.89
-31.53
-20.72
-10.59
-1.90
5.13
10.64
14.99
18.48
21.19
23.02
23.85
23.68
22.75
21.48
20.31
19.53
19.18
19.06
18.91
18.55
17.94
17.21
16.49
15.86
15.24
14.37
13.05
11.16
8.91
6.76
5.25
4.80
5.49
6.96
8.54
9.48
9.19
7.28
3.69
-1.41
-7.48
-13.63
-18.65
-21.24
-20.44
-16.01
-8.57
0.57
9.84
18.01
24.43
29.12
32.44
34.79
36.37
37.12
36.87
35.51
33.11
29.99
26.59
23.39
20.75
18.83
17.56
16.71
15.99
15.14
13.99
12.47
10.57
8.34
5.99
3.84
2.33
1.98
3.19
6.06
10.22
14.82
18.70
20.65
19.78
15.80
9.19
1.19
-6.58
-12.45
-15.16
-14.19
-9.79
-2.87
5.32
13.47
20.43
25.45
28.25
29.08
28.67
28.03
28.11
29.45
32.03
35.31
38.52
41.00
42.45
42.92
42.65
41.91
40.78
39.27
37.34
35.03
32.51
29.90
27.26
24.47
21.37
17.84
13.94
9.91
6.10
2.74
-0.17
-2.93
-6.07
-10.06
-15.13
-21.07
-27.19
-32.47
-35.81
-36.36
-33.81
-28.47
-21.16
-13.00
-5.06
1.90
7.55
11.91
15.21
17.73
19.67
21.15
22.21
22.90
23.23
23.22
22.86
22.19
21.30
20.37
19.62
19.26
19.42
20.08
20.99
21.79
22.13
21.74
20.58
18.83
16.80
14.79
12.93
11.15
9.20
6.74
3.48
-0.71
-5.68
-10.99
-15.90
-19.53
-21.00
-19.81
-15.96
-10.02
-2.92
4.29
10.78
16.07
20.07
22.93
24.86
26.01
26.49
26.37
25.75
24.77
23.62
22.51
21.58
20.87
20.31
19.78
19.19
18.54
17.85
17.12
16.22
14.88
12.78
9.78
5.93
1.56
-2.88
-6.95
-10.44
-13.35
-15.95
-18.63
-21.81
-25.78
-30.57
-35.84
-40.83
-44.57
-46.11
-44.87
-40.83
-34.59
-27.10
-19.41
-12.31
-6.20
-1.13
3.11
6.70
9.76
12.25
14.05
15.10
15.46
15.35
15.07
14.90
15.04
15.49
16.16
16.89
17.52
17.91
18.03
17.88
17.50
16.94
16.18
15.12
13.66
11.71
9.24
6.36
3.26
0.10
-2.99
-6.02
-9.04
-12.17
-15.53
-19.18
-23.10
-27.19
-31.13
-34.38
-36.29
-36.21
-33.81
-29.17
-22.82
-15.59
-8.36
-1.78
3.82
8.43
12.18
15.23
17.62
19.30
20.24
20.54
20.36
19.98
19.58
19.25
18.97
18.67
18.36
18.12
18.09
18.31
18.66
18.90
18.73
17.96
16.60
14.83
12.95
11.18
9.61
8.14
6.53
4.52
1.95
-1.14
-4.48
-7.69
-10.39
-12.38
-13.72
-14.72
-15.83
-17.50
-20.00
-23.29
-26.98
-30.35
-32.53
-32.82
-30.86
-26.83
-21.35
-15.31
-9.49
-4.44
-0.32
3.01
5.77
8.14
10.18
11.86
13.09
13.82
14.08
13.97
13.64
13.24
12.89
12.63
12.44
12.29
12.09
11.80
11.36
10.76
10.00
9.05
7.92
6.61
5.14
3.54
1.87
0.16
-1.51
-3.14
-4.71
-6.26
-7.77
-9.21
-10.52
-11.69
-12.81
-14.08
-15.68
-17.67
-19.85
-21.72
-22.66
-22.16
-19.96
-16.23
-11.48
-6.38
-1.53
2.70
6.15
8.85
10.89
12.30
13.08
13.25
12.87
12.13
11.27
10.53
10.08
9.96
10.07
10.23
10.26
10.03
9.53
8.88
8.26
7.84
7.66
7.63
7.52
7.08
6.17
4.82
3.24
1.70
0.40
-0.63
-1.58
-2.69
-4.15
-5.96
-7.95
-9.85
-11.52
-12.99
-14.46
-16.16
-18.25
-20.71
-23.33
-25.72
-27.39
-27.84
-26.72
-23.89
-19.57
-14.29
-8.76
-3.65
0.56
3.70
5.86
7.27
8.22
8.88
9.32
9.54
9.51
9.27
8.93
8.64
8.52
8.56
8.65
8.65
8.54
8.41
8.47
8.86
9.62
10.56
11.39
11.79
11.58
10.75
9.48
8.05
6.73
5.71
5.00
4.46
3.83
2.86
1.43
-0.40
-2.46
-4.53
-6.46
-8.23
-9.91
-11.67
-13.67
-15.99
-18.61
-21.34
-23.83
-25.62
-26.26
-25.47
-23.23
-19.78
-15.53
-10.99
-6.58
-2.63
0.69
3.24
5.04
6.13
6.67
6.84
6.81
6.69
6.50
6.23
5.86
5.44
5.06
4.84
4.88
5.22
5.80
6.47
7.06
7.43
7.43
7.05
6.30
5.23
3.93
2.47
0.93
-0.64
-2.15
-3.50
-4.69
-5.66
-6.42
-7.00
-7.49
-8.01
-8.72
-9.80
-11.31
-13.28
-15.54
-17.79
-19.58
-20.41
-19.89
-17.85
-14.44
-10.08
-5.42
-1.07
2.54
5.18
6.93
7.95
8.43
8.48
8.12
7.39
6.33
5.11
3.90
2.97
2.48
2.57
3.24
4.37
5.76
7.21
8.50
9.49
10.15
10.52
10.63
10.51
10.16
9.54
8.59
7.35
5.85
4.16
2.35
0.50
-1.30
-2.95
-4.36
-5.49
-6.36
-7.15
-8.11
-9.52
-11.51
-13.96
-16.30
-17.71
-17.27
-14.37
-9.00
-1.83
6.01
13.39
19.52
24.27
28.02
31.46
35.11
39.11
43.29
47.22
50.57
53.23
55.36
57.32
59.57
62.60
66.93
72.94
80.65
89.42
97.77
103.61
104.83
100.09
89.46
74.44
57.45
40.93
26.59
15.10
6.29
-0.31
-5.03
-7.86
-8.65
-7.32
-4.15
0.32
5.48
10.85
16.13
21.15
25.65
29.27
31.55
32.22
31.38
29.61
27.82
26.93
27.42
29.13
31.24
32.49
31.66
27.87
20.94
11.22
-0.40
-12.87
-25.14
-36.30
-45.58
-52.38
-56.30
-57.15
-55.06
-50.48
-44.10
-36.84
-29.61
-23.22
-18.14
-14.58
-12.35
-11.05
-10.10
-8.97
-7.23
-4.73
-1.56
1.94
5.43
8.77
12.17
16.21
21.52
28.41
36.59
45.20
52.97
58.77
61.88
62.12
59.72
55.12
48.82
41.37
33.33
25.12
16.84
8.08
-1.85
-13.60
-27.16
-41.70
-55.63
-67.28
-75.43
-79.89
-81.34
-80.96
-79.98
-79.31
-79.50
-80.86
-83.48
-87.18
-91.41
-95.39
-98.36
-99.93
-100.32
-100.23
-100.44
-101.38
-103.00
-104.84
-106.43
-107.63
-108.68
-109.94
-111.62
-113.43
-114.65
-114.37
-111.84
-106.74
-99.19
-89.67
-78.65
-66.56
-53.75
-40.57
-27.47
-14.81
-2.71
9.16
21.52
35.18
50.60
67.67
85.53
102.84
118.14
130.14
137.95
141.17
139.79
134.19
125.12
113.56
100.61
87.30
74.31
61.99
50.30
39.06
28.15
17.62
7.76
-1.05
-8.49
-14.47
-19.14
-22.75
-25.47
-27.31
-28.03
-27.45
-25.63
-22.92
-19.91
-17.09
-14.68
-12.56
-10.52
-8.36
-5.98
-3.17
0.58
6.13
14.19
24.64
36.18
46.29
52.13
51.66
44.51
32.07
16.69
0.63
-14.82
-29.43
-43.51
-57.13
-69.75
-80.30
-87.77
-91.74
-92.54
-91.14
-88.74
-86.55
-85.66
-87.13
-92.00
-101.09
-114.66
-132.05
-151.73
-171.58
-189.71
-205.14
-218.08
-229.64
-241.03
-252.73
-263.91
-272.54
-275.95
-271.43
-257.12
-232.44
-198.34
-157.22
-112.15
-65.71
-19.00
28.46
77.72
128.68
178.89
223.80
258.54
280.16
288.78
287.05
278.14
263.93
244.76
220.53
192.42
163.63
138.48
120.43
110.46
106.74
105.81
104.39
100.73
94.97
88.57
83.40
80.78
81.06
83.50
86.62
88.88
89.36
88.31
87.02
87.24
90.19
95.93
103.17
109.78
113.65
113.31
108.18
98.53
85.07
68.84
51.13
33.51
17.52
4.37
-5.71
-13.55
-20.80
-29.15
-39.54
-51.60
-63.83
-74.34
-81.78
-86.03
-88.18
-89.89
-92.60
-96.82
-102.11
-107.42
-111.78
-114.78
-116.63
-117.90
-119.00
-119.87
-119.97
-118.50
-114.80
-108.65
-100.34
-90.50
-79.83
-68.82
-57.69
-46.30
-34.38
-21.68
-8.14
5.98
20.18
33.80
46.21
56.90
65.47
71.63
75.25
76.60
76.63
76.98
79.62
85.96
95.95
107.60
117.45
121.99
119.38
110.69
99.82
91.91
91.23
99.36
114.67
133.02
149.35
159.06
158.90
146.98
122.69
86.40
39.46
-15.86
-76.82
-140.88
-206.62
-273.99
-343.73
-415.87
-488.27
-555.94
-611.95
-649.45
-664.12
-655.70
-627.94
-586.96
-538.92
-488.20
-436.87
-385.69
-335.42
-287.75
-244.84
-208.18
-177.21
-149.12
-119.83
-85.79
-45.45
0.06
47.62
93.39
134.00
167.14
191.54
206.61
212.39
209.67
200.30
187.04
172.94
160.51
151.11
144.80
140.80
138.00
135.51
132.75
129.37
125.18
120.12
114.43
108.71
103.71
100.14
98.18
97.39
96.97
96.25
95.17
94.44
95.23
98.55
104.72
113.15
122.70
132.25
141.36
150.61
161.41
175.56
194.51
218.81
247.68
278.94
309.28
334.67
351.21
356.07
348.40
329.74
303.66
274.50
245.66
218.30
190.86
159.94
122.02
75.35
21.11
-36.71
-92.61
-141.55
-180.51
-209.17
-229.49
-244.60
-257.51
-270.08
-282.51
-293.36
-300.15
-300.35
-292.28
-275.91
-252.94
-226.00
-197.69
-169.52
-141.68
-113.25
-82.89
-49.18
-10.76
33.43
83.39
136.80
188.32
230.18
254.49
256.16
235.09
196.33
148.14
99.12
55.89
22.24
-0.53
-12.54
-15.06
-10.52
-2.62
4.13
5.58
-0.68
-14.44
-33.02
-52.32
-68.22
-77.90
-80.38
-76.26
-66.91
-53.14
-34.59
-10.02
21.77
60.72
104.91
151.11
195.76
235.98
269.94
296.33
313.68
320.16
314.04
294.91
264.45
226.35
185.33
145.76
110.62
81.35
58.33
41.42
30.06
22.97
17.87
11.83
2.20
-12.19
-30.30
-49.15
-65.26
-76.13
-81.40
-82.73
-82.70
-83.41
-85.54
-88.41
-90.89
-92.53
-94.20
-97.82
-105.31
-117.40
-133.04
-149.55
-163.73
-173.07
-176.59
-174.94
-169.75
-162.77
-155.14
-147.31
-139.33
-131.22
-123.28
-115.91
-109.42
-103.73
-98.23
-91.98
-84.16
-74.41
-63.08
-51.18
-39.90
-30.25
-22.63
-16.92
-12.63
-9.23
-6.20
-3.09
0.58
5.20
10.90
17.34
23.74
29.18
33.00
35.10
35.93
36.21
36.67
37.78
39.67
42.02
44.01
44.33
41.42
33.99
21.58
4.99
-13.76
-31.84
-46.41
-55.26
-57.21
-52.20
-41.04
-25.10
-6.08
14.23
34.14
52.35
68.14
81.48
93.03
103.61
113.66
122.58
128.81
130.40
126.15
116.59
104.15
92.38
84.55
82.33
85.34
91.70
99.18
106.21
112.30
117.81
123.32
129.16
135.33
141.64
147.83
153.62
158.63
162.42
164.63
164.95
163.24
159.33
152.99
143.98
132.38
118.75
104.19
90.01
77.41
67.22
59.82
55.33
53.56
53.86
54.95
55.05
52.35
45.85
35.99
24.66
14.55
8.14
6.75
10.17
17.03
25.52
34.14
42.08
49.08
54.98
59.28
61.03
59.20
53.23
43.44
31.13
17.98
5.21
-7.12
-20.19
-35.90
-55.80
-80.30
-108.38
-138.02
-167.00
-193.81
-217.96
-239.81
-260.15
-279.58
-298.05
-314.62
-327.57
-334.71
-333.94
-323.79
-303.92
-275.28
-240.00
-200.88
-160.84
-122.43
-87.57
-57.47
-32.72
-13.23
1.71
13.30
22.99
31.97
40.75
49.03
56.03
61.13
64.42
66.84
69.92
75.03
82.83
93.26
105.83
120.12
135.85
152.52
169.00
183.35
193.34
197.44
195.71
190.01
183.39
178.64
176.99
177.44
177.20
173.02
162.72
146.31
126.11
105.75
88.73
77.10
70.89
68.49
67.69
66.62
64.30
60.50
55.20
48.09
38.48
25.50
8.48
-12.56
-36.78
-62.69
-88.58
-112.95
-134.92
-154.30
-171.45
-187.03
-201.85
-216.82
-232.86
-250.90
-271.49
-294.53
-319.09
-343.55
-366.05
-384.99
-399.22
-408.11
-411.52
-409.63
-403.02
-392.50
-378.92
-362.93
-344.90
-325.01
-303.54
-280.92
-257.76
-234.33
-210.34
-184.60
-155.43
-121.00
-80.13
-32.83
19.22
72.78
123.57
167.28
200.67
222.43
233.40
236.04
233.53
228.78
223.85
219.89
217.27
215.71
214.37
211.85
206.42
196.48
181.12
160.53
135.99
109.45
83.01
58.27
36.13
16.85
0.25
-13.99
-26.21
-36.80
-46.08
-54.23
-60.97
-65.47
-66.55
-63.18
-55.02
-42.83
-28.35
-13.68
-0.67
9.65
17.02
21.85
24.67
25.91
25.84
24.61
22.36
19.37
15.93
12.36
9.00
6.08
3.80
2.12
0.84
-0.33
-1.67
-3.23
-4.96
-6.72
-8.43
-10.15
-11.88
-13.53
-14.78
-15.25
-14.63
-12.98
-10.66
-8.32
-6.52
-5.60
-5.61
-6.43
-7.97
-10.32
-13.70
-18.31
-23.95
-29.89
-34.82
-37.19
-35.76
-29.99
-20.37
-8.22
4.68
16.71
26.74
34.32
39.50
42.66
44.28
44.79
44.58
43.91
42.94
41.75
40.34
38.79
37.17
35.64
34.31
33.13
31.99
30.69
29.09
27.09
24.79
22.34
19.89
17.60
15.49
13.52
11.53
9.34
6.76
3.69
0.14
-3.76
-7.81
-11.83
-15.65
-19.24
-22.67
-26.19
-30.11
-34.68
-39.88
-45.13
-49.34
-51.07
-49.06
-42.67
-32.37
-19.52
-6.06
6.13
15.77
22.44
26.45
28.52
29.39
29.66
29.65
29.50
29.24
28.85
28.32
27.69
27.04
26.46
26.10
26.09
26.38
26.89
27.38
27.64
27.51
26.95
25.96
24.57
22.72
20.28
17.11
13.12
8.35
2.98
-2.68
-8.29
-13.56
-18.32
-22.63
-26.68
-30.82
-35.42
-40.78
-46.89
-53.38
-59.43
-63.90
-65.58
-63.54
-57.50
-47.96
-36.17
-23.69
-12.04
-2.28
5.07
10.01
12.84
13.96
13.77
12.57
10.65
8.31
5.87
3.66
1.92
0.85
0.42
0.48
0.77
1.01
1.00
0.66
0.02
-0.78
-1.58
-2.20
-2.50
-2.37
-1.75
-0.62
0.95
2.85
4.86
6.63
7.75
7.85
6.68
4.26
0.76
-3.49
-8.18
-13.04
-17.74
-21.77
-24.36
-24.63
-21.86
-15.78
-6.84
3.92
15.13
25.53
34.31
41.23
46.48
50.39
53.24
55.15
56.19
56.49
56.36
56.22
56.44
57.23
58.52
60.12
61.79
63.41
64.99
66.62
68.21
69.47
69.91
68.98
66.31
61.82
55.80
48.71
41.08
33.34
25.78
18.62
12.09
6.46
1.94
-1.40
-3.74
-5.51
-7.34
-9.91
-13.73
-18.94
-25.16
-31.49
-36.73
-39.63
-39.37
-35.77
-29.33
-21.07
-12.25
-3.95
3.07
8.42
12.09
14.22
15.06
14.89
13.99
12.68
11.23
9.93
8.91
8.24
7.88
7.78
7.97
8.54
9.55
11.00
12.68
14.33
15.72
16.83
17.84
19.06
20.68
22.68
24.78
26.57
27.68
27.82
26.82
24.60
21.15
16.47
10.71
4.12
-2.99
-10.37
-17.85
-25.38
-32.83
-39.83
-45.66
-49.28
-49.66
-46.21
-39.06
-29.09
-17.77
-6.60
3.25
11.17
17.10
21.37
24.42
26.71
28.60
30.30
31.80
32.87
33.10
32.02
29.28
24.74
18.52
10.97
2.59
-6.05
-14.32
-21.69
-27.74
-32.32
-35.54
-37.73
-39.24
-40.33
-41.09
-41.47
-41.46
-41.22
-41.03
-41.18
-41.67
-42.17
-41.99
-40.38
-36.89
-31.65
-25.43
-19.53
-15.23
-13.41
-14.19
-16.86
-20.11
-22.41
-22.50
-19.73
-14.13
-6.39
2.41
11.08
18.64
24.48
28.40
30.63
31.63
31.94
31.95
31.84
31.53
30.78
29.37
27.17
24.28
20.94
17.53
14.42
11.88
9.99
8.67
7.74
6.97
6.19
5.22
3.91
2.12
-0.25
-3.21
-6.56
-9.91
-12.86
-15.04
-16.35
-17.01
-17.42
-18.04
-19.23
-21.15
-23.76
-26.87
-30.09
-32.89
-34.63
-34.65
-32.51
-28.21
-22.26
-15.54
-9.06
-3.61
0.40
2.93
4.17
4.36
3.64
2.07
-0.29
-3.31
-6.76
-10.36
-13.87
-17.07
-19.85
-22.13
-23.79
-24.67
-24.64
-23.64
-21.74
-19.14
-16.09
-12.83
-9.46
-5.92
-2.06
2.22
6.94
11.91
16.84
21.43
25.44
28.73
31.17
32.70
33.13
32.25
29.87
25.83
20.18
13.19
5.49
-1.99
-8.10
-11.72
-12.07
-9.00
-3.13
4.35
11.99
18.49
23.06
25.49
26.01
25.07
23.13
20.66
18.12
15.96
14.61
14.25
14.81
15.95
17.18
18.12
18.63
18.88
19.20
19.92
21.20
22.91
24.65
25.92
26.22
25.28
23.06
19.94
16.47
13.30
10.84
9.14
7.88
6.56
4.80
2.52
-0.03
-2.38
-4.27
-5.70
-6.97
-8.31
-9.59
-10.23
-9.36
-6.19
-0.32
8.33
19.74
33.85
50.22
67.51
83.17
93.86
96.53
89.82
74.83
54.78
33.78
15.19
0.58
-10.21
-18.25
-24.50
-29.23
-32.26
-33.45
-33.06
-31.69
-29.81
-27.53
-24.51
-20.25
-14.53
-7.63
-0.35
6.28
11.31
14.15
14.66
13.20
10.42
7.13
4.01
1.53
-0.08
-0.71
-0.22
1.74
5.64
11.93
20.91
32.61
46.76
62.84
80.12
97.64
114.29
128.94
140.62
148.79
153.43
155.25
155.58
156.03
157.83
160.95
163.59
162.30
152.99
132.36
99.32
55.71
5.86
-44.62
-90.44
-127.79
-155.04
-172.50
-181.83
-185.31
-185.18
-183.21
-180.58
-177.90
-175.35
-172.96
-170.71
-168.58
-166.39
-163.72
-159.89
-154.05
-145.49
-133.87
-119.38
-102.67
-84.62
-66.17
-48.14
-31.26
-16.21
-3.63
6.00
12.52
16.24
17.84
18.09
17.67
16.97
16.18
15.46
15.08
15.32
16.43
18.51
21.49
25.19
29.42
34.00
38.70
43.22
47.26
50.70
53.81
57.13
61.32
66.69
72.93
79.26
84.76
88.83
91.39
92.79
93.38
93.21
92.06
89.73
86.40
82.61
78.95
75.53
71.67
66.03
57.24
44.43
27.72
8.10
-12.87
-33.61
-52.83
-69.61
-83.53
-94.53
-102.85
-108.85
-112.79
-114.63
-113.94
-110.16
-102.82
-91.84
-77.70
-61.46
-44.61
-28.82
-15.60
-5.93
0.05
3.08
4.43
5.34
6.51
7.82
8.53
7.76
5.01
0.32
-5.90
-13.20
-21.43
-30.76
-41.40
-53.14
-65.15
-75.96
-83.80
-87.19
-85.38
-78.74
-68.49
-56.35
-43.90
-32.19
-21.52
-11.71
-2.42
6.46
14.65
21.58
26.66
29.48
30.11
29.02
26.98
24.80
23.10
22.15
21.84
21.80
21.69
21.31
20.76
20.28
20.07
20.19
20.42
20.42
19.86
18.58
16.64
14.23
11.55
8.75
5.88
2.96
-0.00
-3.06
-6.35
-10.17
-14.88
-20.79
-27.83
-35.44
-42.59
-48.03
-50.73
-50.18
-46.56
-40.53
-33.03
-25.09
-17.66
-11.62
-7.65
-5.94
-6.00
-6.66
-6.53
-4.60
-0.71
4.37
9.49
13.78
17.25
20.72
25.30
31.64
39.61
48.35
56.80
64.25
70.56
76.03
80.83
84.75
87.15
87.34
85.00
80.47
74.79
69.24
65.08
63.27
64.46
68.99
76.80
87.26
99.09
110.38
119.02
123.15
121.75
114.88
103.74
90.22
76.43
64.18
54.57
47.80
43.22
39.75
36.15
31.56
25.66
18.63
10.99
3.20
-4.54
-12.36
-20.58
-29.53
-39.17
-49.06
-58.36
-66.18
-71.88
-75.30
-76.74
-76.64
-75.42
-73.26
-70.25
-66.50
-62.29
-57.96
-53.81
-50.13
-47.17
-45.36
-45.22
-47.27
-51.70
-58.16
-65.80
-73.57
-80.56
-86.33
-90.84
-94.39
-97.33
-99.97
-102.37
-104.25
-104.84
-102.99
-97.39
-87.10
-72.00
-53.05
-32.16
-11.55
6.83
21.74
32.75
39.99
43.86
44.83
43.43
40.26
36.08
31.65
27.65
24.54
22.53
21.64
21.82
22.92
24.76
27.09
29.56
31.81
33.48
34.27
34.00
32.63
30.23
27.05
23.39
19.59
15.86
12.22
8.53
4.58
0.30
-4.18
-8.59
-12.61
-16.12
-19.25
-22.34
-25.77
-29.73
-34.11
-38.41
-41.83
-43.39
-42.22
-37.74
-29.93
-19.37
-7.10
5.61
17.63
28.12
36.68
43.19
47.77
50.59
51.95
52.22
51.88
51.44
51.23
51.35
51.65
51.80
51.45
50.44
48.72
46.38
43.56
40.44
37.25
34.36
32.17
31.12
31.47
33.31
36.54
40.93
46.25
52.35
59.22
66.94
75.68
85.53
96.38
107.85
119.11
129.07
136.48
140.39
140.42
137.08
131.66
126.00
121.92
120.59
121.91
124.38
125.34
121.84
111.59
93.71
68.78
38.54
5.09
-29.71
-64.44
-97.98
-129.22
-156.90
-179.81
-197.03
-208.28
-213.85
-214.47
-210.80
-203.20
-191.59
-175.68
-155.35
-131.04
-104.02
-76.30
-50.22
-27.89
-10.75
0.67
6.70
8.21
6.37
2.29
-3.07
-9.04
-15.20
-21.41
-27.76
-34.39
-41.37
-48.45
-54.95
-59.79
-61.67
-59.48
-52.70
-41.71
-27.73
-12.64
1.65
13.55
22.21
27.41
29.42
28.76
26.03
21.87
16.98
12.04
7.72
4.48
2.61
2.15
3.03
5.09
8.08
11.80
16.07
20.76
25.73
30.80
35.57
39.55
42.32
43.81
44.56
45.64
48.21
52.86
59.10
65.33
69.42
69.48
64.62
55.12
42.03
26.57
9.57
-8.65
-28.04
-48.48
-69.46
-90.13
-109.44
-126.36
-140.05
-149.92
-155.67
-157.22
-154.82
-148.93
-140.27
-129.71
-118.19
-106.67
-96.06
-87.02
-79.79
-74.06
-68.96
-63.24
-55.65
-45.14
-31.20
-13.90
6.18
28.06
50.45
71.88
90.71
105.24
114.05
116.24
111.84
101.80
87.81
71.83
55.57
40.26
26.54
14.80
5.41
-1.25
-4.90
-5.72
-4.35
-1.75
1.29
4.45
7.94
12.20
17.47
23.42
29.10
33.27
34.62
32.02
24.50
11.11
-8.94
-36.09
-69.88
-108.79
-150.31
-191.57
-229.97
-263.86
-292.72
-316.86
-337.01
-353.94
-368.25
-380.23
-389.75
-396.02
-397.42
-391.84
-377.19
-352.34
-317.71
-275.29
-228.06
-179.12
-130.81
-84.42
-40.32
1.82
42.73
83.45
125.05
168.01
211.51
252.93
288.25
313.26
325.26
324.25
313.19
296.80
279.85
265.49
254.70
246.63
239.65
232.36
224.05
214.61
204.25
193.18
181.72
170.32
159.53
149.85
141.43
133.87
126.34
117.90
107.84
95.95
82.44
67.73
52.12
35.76
18.73
1.26
-15.90
-31.46
-43.73
-51.05
-52.35
-47.57
-37.81
-25.17
-12.20
-1.09
6.83
11.50
13.83
15.16
16.52
18.11
19.36
19.37
17.45
13.53
8.11
1.93
-4.40
-10.56
-16.32
-21.37
-25.21
-27.31
-27.42
-25.84
-23.40
-21.20
-20.19
-20.85
-23.04
-26.17
-29.46
-32.26
-34.25
-35.57
-36.72
-38.40
-41.23
-45.56
-51.42
-58.41
-65.83
-72.59
-77.38
-78.86
-76.01
-68.54
-57.09
-43.14
-28.65
-15.52
-5.01
2.44
7.20
10.02
11.61
12.31
11.99
10.28
6.88
1.84
-4.44
-11.40
-18.62
-25.95
-33.52
-41.44
-49.70
-57.93
-65.68
-72.62
-78.75
-84.46
-90.26
-96.57
-103.38
-110.40
-117.18
-123.39
-128.96
-133.90
-138.02
-140.69
-140.85
-137.27
-129.08
-116.24
-99.68
-81.14
-62.71
-46.33
-33.43
-24.68
-19.93
-18.24
-18.07
-17.59
-14.98
-8.96
0.94
14.19
29.47
44.96
59.03
70.53
79.08
84.83
88.33
90.05
90.35
89.37
87.31
84.43
81.12
77.84
74.91
72.47
70.39
68.57
66.96
65.70
65.04
65.07
65.69
66.46
66.84
66.36
64.86
62.49
59.66
56.74
53.91
51.11
48.07
44.55
40.39
35.65
30.58
25.48
20.66
16.24
12.20
8.30
4.18
-0.59
-6.32
-12.99
-20.06
-26.39
-30.42
-30.70
-26.38
-17.71
-6.04
6.63
18.34
27.87
34.94
40.02
43.82
46.84
49.18
50.70
51.39
51.40
51.07
50.72
50.51
50.47
50.84
52.12
55.11
60.64
69.05
80.05
92.80
106.28
119.67
132.56
144.81
156.35
167.00
176.33
183.77
188.66
190.41
188.64
183.32
174.80
163.70
150.75
136.35
120.56
103.09
83.72
62.65
40.66
18.84
-1.92
-21.32
-39.78
-58.15
-77.12
-96.82
-116.55
-134.88
-150.08
-160.60
-165.46
-164.50
-158.24
-147.75
-134.34
-119.29
-103.80
-88.89
-75.28
-63.33
-52.98
-43.71
-34.75
-25.36
-15.09
-3.95
7.65
19.08
29.85
39.73
48.83
57.60
66.68
76.73
88.20
101.08
114.64
127.48
137.83
144.19
145.96
143.70
138.91
133.35
128.37
124.38
121.03
117.58
113.53
108.89
104.14
99.99
96.99
95.42
95.27
96.33
98.26
100.61
102.84
104.37
104.63
103.10
99.41
93.29
84.77
74.23
62.47
50.60
39.79
31.04
24.95
21.62
20.75
21.73
23.71
25.62
26.33
24.72
20.04
12.11
1.35
-11.34
-25.03
-38.99
-52.83
-66.44
-79.67
-92.12
-103.16
-112.16
-118.75
-122.93
-125.08
-125.61
-124.75
-122.49
-118.61
-112.95
-105.57
-96.81
-87.14
-77.05
-66.93
-57.09
-47.83
-39.50
-32.45
-26.94
-22.99
-20.42
-18.86
-17.95
-17.44
-17.27
-17.44
-17.93
-18.66
-19.41
-20.06
-20.64
-21.38
-22.65
-24.76
-27.91
-32.04
-36.89
-42.01
-46.72
-50.25
-51.77
-50.59
-46.46
-39.73
-31.34
-22.56
-14.64
-8.44
-4.27
-1.94
-1.01
-0.93
-1.29
-1.81
-2.27
-2.54
-2.56
-2.33
-1.97
-1.59
-1.20
-0.54
0.81
3.36
7.45
13.13
19.97
27.17
33.78
38.90
41.96
42.78
41.59
38.86
35.08
30.65
25.77
20.54
15.07
9.63
4.54
0.17
-3.28
-5.84
-7.79
-9.43
-11.07
-12.78
-14.50
-16.01
-17.09
-17.57
-17.41
-16.76
-15.91
-15.29
-15.27
-16.07
-17.51
-19.04
-19.69
-18.40
-14.25
-6.92
3.07
14.50
25.68
35.07
41.81
46.09
48.97
51.84
55.66
60.32
64.69
67.01
65.70
59.89
49.49
34.77
16.00
-6.74
-33.10
-61.77
-90.14
-114.70
-132.06
-140.06
-138.53
-129.04
-113.87
-95.05
-73.73
-50.14
-23.98
5.24
38.20
75.70
118.66
167.27
219.80
271.85
316.54
346.15
354.69
340.36
306.97
263.13
219.46
184.92
163.61
153.79
149.38
143.13
129.87
108.19
80.00
48.33
15.12
-19.53
-56.56
-95.98
-135.54
-170.93
-197.65
-213.24
-218.57
-217.42
-214.49
-213.72
-217.14
-225.14
-237.59
-254.59
-276.11
-300.84
-324.97
-342.55
-347.43
-336.21
-310.33
-276.17
-242.63
-217.45
-204.22
-201.51
-204.44
-207.64
-207.76
-204.18
-198.10
-190.87
-182.76
-173.13
-161.36
-147.66
-133.16
-119.12
-106.03
-93.40
-80.16
-65.64
-50.25
-35.57
-23.65
-16.24
-14.03
-16.53
-22.26
-29.14
-35.03
-38.10
-37.14
-31.53
-21.13
-6.03
13.72
38.09
66.63
98.10
130.36
160.55
185.95
204.57
215.54
218.98
215.63
206.52
192.91
176.45
159.18
143.35
130.80
122.42
117.90
115.76
113.61
108.45
97.25
77.64
48.89
12.76
-26.47
-62.92
-90.84
-106.57
-109.75
-103.14
-91.37
-79.02
-69.14
-62.72
-59.14
-57.16
-55.79
-54.68
-53.96
-53.86
-54.27
-54.56
-53.78
-51.19
-46.68
-40.99
-35.37
-31.03
-28.54
-27.71
-27.88
-28.50
-29.54
-31.48
-34.86
-39.66
-44.87
-48.65
-49.01
-44.59
-35.36
-22.67
-8.74
4.13
14.33
21.29
25.40
27.55
28.64
29.25
29.62
29.69
29.38
28.63
27.55
26.30
25.02
23.83
22.77
21.87
21.19
20.79
20.70
20.89
21.23
21.45
21.27
20.43
18.85
16.64
14.05
11.39
8.82
6.34
3.73
0.66
-3.16
-7.82
-13.12
-18.62
-23.83
-28.37
-32.11
-35.22
-38.13
-41.39
-45.52
-50.79
-57.03
-63.46
-68.81
-71.66
-70.82
-65.69
-56.50
-44.31
-30.54
-16.74
-4.11
6.69
15.57
22.86
28.92
34.03
38.08
40.83
42.16
42.37
42.32
43.16
45.93
51.11
58.51
67.33
76.46
84.63
90.49
92.71
90.17
82.64
71.17
58.16
46.59
38.86
35.58
35.35
35.48
33.42
27.99
19.85
10.91
3.10
-2.62
-6.53
-9.72
-13.19
-17.23
-21.41
-25.00
-27.64
-29.69
-32.13
-35.99
-41.76
-48.85
-55.60
-59.84
-59.52
-53.54
-42.02
-26.28
-8.37
9.42
25.05
37.12
45.10
49.35
50.95
51.30
51.58
52.43
53.76
54.87
54.86
52.93
48.63
42.01
33.67
24.78
16.82
11.25
8.97
10.00
13.32
17.31
20.35
21.22
19.50
15.25
8.82
0.63
-8.81
-18.68
-27.73
-34.46
-37.64
-36.83
-32.72
-27.06
-22.06
-19.67
-20.99
-26.10
-34.16
-43.96
-54.27
-63.99
-72.14
-77.71
-79.60
-76.93
-69.33
-57.19
-41.68
-24.35
-6.75
10.03
25.39
39.04
50.75
60.24
67.20
71.56
73.54
73.64
72.41
70.21
67.13
63.08
57.97
51.87
45.05
37.81
30.38
22.80
15.11
7.46
0.17
-6.29
-11.49
-15.32
-18.11
-20.64
-23.88
-28.66
-35.28
-43.47
-52.42
-61.09
-68.44
-73.65
-76.25
-76.12
-73.58
-69.26
-64.02
-58.67
-53.77
-49.34
-44.78
-39.09
-31.08
-19.81
-4.97
12.95
32.58
51.98
68.94
81.53
88.44
89.29
84.80
76.62
67.05
58.48
52.81
50.87
52.23
55.52
59.00
61.28
61.81
60.81
58.91
56.70
54.46
52.33
50.53
49.60
50.21
52.94
57.94
64.94
73.30
82.28
91.18
99.34
106.14
110.97
113.32
112.92
109.81
104.34
97.00
88.34
78.84
68.90
58.85
48.94
39.19
29.59
20.17
11.26
3.60
-1.75
-3.73
-1.70
4.20
13.01
23.16
32.97
41.09
46.84
50.27
51.82
51.99
51.00
48.59
44.21
37.26
27.47
15.05
0.85
-13.71
-26.71
-36.20
-40.62
-39.37
-33.03
-23.24
-12.14
-1.71
6.67
12.38
15.38
15.86
14.25
11.09
7.27
3.97
2.44
3.50
7.26
12.84
18.55
22.36
22.40
17.62
8.09
-4.88
-19.15
-32.29
-42.35
-48.31
-50.12
-48.59
-44.93
-40.47
-36.49
-34.09
-34.01
-36.55
-41.44
-47.97
-55.30
-62.72
-69.91
-76.86
-83.59
-89.92
-95.33
-99.14
-100.86
-100.44
-98.36
-95.41
-92.41
-89.80
-87.58
-85.39
-82.73
-79.20
-74.73
-69.40
-63.48
-57.33
-51.33
-45.91
-41.59
-38.79
-37.67
-37.91
-38.59
-38.48
-36.53
-32.40
-26.69
-20.69
-15.65
-12.04
-9.12
-5.11
2.03
13.67
29.81
48.90
68.36
85.37
97.73
104.37
105.38
101.78
95.00
86.38
76.91
66.94
56.32
44.63
31.55
17.21
2.32
-11.88
-24.00
-32.93
-38.22
-40.31
-40.32
-39.62
-39.28
-39.66
-40.38
-40.61
-39.58
-37.00
-33.20
-28.95
-25.00
-21.86
-19.63
-18.29
-17.93
-18.99
-21.99
-27.22
-34.19
-41.58
-47.53
-50.27
-48.75
-42.99
-33.95
-23.15
-12.07
-1.75
7.31
15.05
21.58
26.96
31.17
34.08
35.66
36.03
35.49
34.54
33.78
33.75
34.84
37.06
40.09
43.37
46.27
48.33
49.34
49.43
48.87
47.90
46.58
44.72
42.02
38.28
33.59
28.29
22.90
17.80
13.14
8.75
4.30
-0.59
-6.16
-12.51
-19.60
-27.19
-34.83
-41.77
-47.07
-49.85
-49.55
-46.29
-40.87
-34.57
-28.70
-24.24
-21.52
-20.29
-19.94
-19.83
-19.51
-18.88
-18.14
-17.69
-18.02
-19.45
-21.99
-25.23
-28.32
-30.16
-29.74
-26.46
-20.38
-12.18
-2.94
6.25
14.55
21.45
26.70
30.08
31.45
30.72
28.03
23.83
18.77
13.54
8.62
4.25
0.44
-2.89
-5.79
-8.28
-10.42
-12.21
-13.63
-14.42
-14.11
-12.14
-8.19
-2.36
4.72
12.08
18.81
24.24
28.16
30.68
32.04
32.45
32.03
30.83
29.00
26.74
24.33
22.05
20.12
18.62
17.51
16.71
16.09
15.60
15.17
14.80
14.46
14.04
13.37
12.21
10.29
7.46
3.76
-0.45
-4.60
-8.13
-10.75
-12.57
-14.08
-15.96
-18.70
-22.41
-26.82
-31.39
-35.45
-38.34
-39.45
-38.34
-34.83
-29.24
-22.29
-15.05
-8.56
-3.57
-0.38
1.08
1.04
-0.26
-2.61
-5.77
-9.44
-13.18
-16.57
-19.29
-21.14
-22.09
-22.14
-21.29
-19.53
-16.86
-13.27
-8.90
-4.10
0.65
4.76
7.62
8.82
8.25
6.06
2.64
-1.51
-5.96
-10.31
-14.33
-17.96
-21.38
-24.94
-29.04
-33.94
-39.51
-45.09
-49.66
-52.04
-51.36
-47.29
-40.10
-30.50
-19.35
-7.46
4.54
16.05
26.45
35.11
41.47
45.21
46.39
45.44
42.99
39.70
36.10
32.53
29.17
26.21
23.84
22.32
21.90
22.69
24.53
26.95
29.30
30.96
31.55
31.01
29.58
27.58
25.27
22.77
20.11
17.35
14.65
12.18
10.01
8.01
5.87
3.21
-0.28
-4.57
-9.23
-13.54
-16.55
-17.42
-15.74
-11.59
-5.66
1.01
7.38
12.72
16.77
19.64
21.66
23.05
23.81
23.78
22.87
21.15
19.01
16.92
15.30
14.31
13.79
13.42
12.97
12.39
11.81
11.36
11.10
10.92
10.61
9.97
9.01
7.81
6.56
5.37
4.26
3.15
1.93
0.51
-1.10
-2.77
-4.28
-5.42
-6.10
-6.43
-6.74
-7.48
-9.10
-11.78
-15.39
-19.40
-23.01
-25.32
-25.59
-23.47
-19.15
-13.30
-6.92
-1.04
3.61
6.74
8.49
9.30
9.72
10.23
11.12
12.37
13.79
15.07
15.91
16.13
15.79
15.07
14.27
13.62
13.26
13.18
13.33
13.61
13.89
13.99
13.75
13.03
11.82
10.20
8.36
6.54
4.83
3.24
1.67
-0.01
-1.83
-3.66
-5.25
-6.39
-6.89
-6.85
-6.50
-6.29
-6.73
-8.27
-11.15
-15.31
-20.34
-25.45
-29.64
-31.98
-31.88
-29.29
-24.75
-19.20
-13.63
-8.82
-5.12
-2.57
-0.96
-0.02
0.51
0.81
1.02
1.23
1.40
1.44
1.20
0.58
-0.42
-1.65
-2.89
-3.84
-4.30
-4.19
-3.70
-3.12
-2.88
-3.33
-4.59
-6.54
-8.75
-10.65
-11.72
-11.64
-10.42
-8.29
-5.70
-3.04
-0.59
1.63
3.85
6.52
10.08
14.77
20.41
26.31
31.45
34.70
35.20
32.70
27.71
21.39
15.18
10.40
7.83
7.55
8.98
11.18
13.19
14.34
14.37
13.34
11.47
9.08
6.52
4.08
2.09
0.80
0.25
0.23
0.33
0.07
-0.88
-2.57
-4.78
-7.08
-9.04
-10.41
-11.14
-11.48
-11.80
-12.51
-13.79
-15.59
-17.60
-19.42
-20.72
-21.41
-21.64
-21.64
-21.61
-21.58
-21.41
-20.83
-19.63
-17.76
-15.31
-12.55
-9.89
-7.74
-6.50
-6.40
-7.39
-9.11
-10.96
-12.15
-12.06
-10.31
-6.97
-2.47
2.55
7.41
11.55
14.63
16.52
17.28
17.17
16.54
15.78
15.22
15.04
15.21
15.60
16.05
16.46
16.87
17.43
18.24
19.37
20.72
22.11
23.26
23.91
23.88
23.13
21.78
20.05
18.23
16.50
14.90
13.40
11.86
10.17
8.30
6.37
4.50
2.83
1.36
-0.01
-1.57
-3.57
-6.32
-10.01
-14.75
-20.38
-26.52
-32.53
-37.59
-40.86
-41.71
-40.00
-36.06
-30.67
-24.79
-19.29
-14.78
-11.45
-9.20
-7.76
-6.83
-6.18
-5.66
-5.17
-4.63
-3.93
-2.99
-1.74
-0.11
1.81
3.89
5.99
7.98
9.84
11.53
13.04
14.21
14.81
14.63
13.62
11.91
9.79
7.55
5.39
3.37
1.43
-0.50
-2.49
-4.50
-6.42
-8.18
-9.65
-10.80
-11.69
-12.50
-13.52
-15.09
-17.47
-20.69
-24.38
-27.92
-30.43
-31.14
-29.59
-25.85
-20.48
-14.36
-8.40
-3.27
0.71
3.55
5.46
6.68
7.44
7.93
8.30
8.70
9.20
9.84
10.53
11.13
11.56
11.76
11.78
11.74
11.77
11.93
12.25
12.65
13.01
13.18
13.07
12.56
11.66
10.41
8.93
7.38
5.91
4.60
3.42
2.23
0.85
-0.83
-2.78
-4.87
-6.86
-8.60
-10.08
-11.46
-13.05
-15.15
-17.94
-21.41
-25.24
-28.89
-31.64
-32.73
-31.62
-28.16
-22.64
-15.80
-8.53
-1.74
3.94
8.17
10.96
12.48
13.08
13.11
12.89
12.70
12.65
12.80
13.11
13.56
14.11
14.75
15.38
15.86
16.14
16.23
16.27
16.43
16.75
17.11
17.24
16.82
15.69
13.92
11.77
9.60
7.68
6.12
4.84
3.66
2.34
0.73
-1.24
-3.53
-5.95
-8.30
-10.37
-12.01
-13.18
-13.99
-14.73
-15.72
-17.39
-19.95
-23.39
-27.28
-30.86
-33.09
-33.09
-30.33
-24.92
-17.56
-9.34
-1.47
5.08
9.78
12.56
13.74
13.79
13.23
12.46
11.75
11.22
10.91
10.80
10.86
11.04
11.31
11.63
12.04
12.62
13.45
14.59
16.03
17.60
19.04
19.97
20.06
19.13
17.26
14.74
12.07
9.70
7.92
6.69
5.75
4.67
3.11
0.98
-1.54
-4.09
-6.26
-7.76
-8.46
-8.41
-7.92
-7.41
-7.45
-8.55
-11.02
-14.79
-19.33
-23.74
-26.93
-27.96
-26.33
-22.14
-16.01
-8.94
-1.96
4.06
8.68
11.77
13.49
14.13
13.99
13.39
12.60
11.85
11.25
10.77
10.32
9.72
8.85
7.73
6.54
5.58
5.10
5.27
6.04
7.22
8.44
9.35
9.66
9.23
8.12
6.60
5.00
3.64
2.69
2.11
1.63
0.91
-0.33
-2.21
-4.63
-7.27
-9.77
-11.83
-13.37
-14.50
-15.54
-16.89
-18.91
-21.78
-25.42
-29.43
-33.07
-35.45
-35.74
-33.47
-28.72
-22.10
-14.64
-7.32
-0.97
4.04
7.64
9.95
11.10
11.24
10.46
9.04
7.41
6.13
5.78
6.83
9.46
13.56
18.72
24.37
29.83
34.60
38.28
40.69
41.75
41.42
39.71
36.66
32.46
27.48
22.25
17.27
12.83
8.91
5.19
1.30
-3.03
-7.71
-12.36
-16.42
-19.48
-21.31
-22.06
-22.13
-22.09
-22.44
-23.54
-25.49
-28.10
-30.83
-32.98
-33.79
-32.72
-29.56
-24.53
-18.23
-11.45
-5.01
0.40
4.41
6.95
8.15
8.31
7.79
6.91
5.93
5.09
4.56
4.46
4.81
5.51
6.41
7.30
8.13
8.88
9.68
10.65
11.80
13.03
14.11
14.76
14.76
14.01
12.63
10.85
8.96
7.17
5.50
3.84
2.01
-0.15
-2.68
-5.45
-8.25
-10.88
-13.25
-15.44
-17.66
-20.25
-23.46
-27.30
-31.43
-35.17
-37.68
-38.21
-36.36
-32.20
-26.23
-19.25
-12.03
-5.25
0.67
5.51
9.17
11.65
13.06
13.65
13.75
13.72
13.81
14.08
14.47
14.85
15.07
15.13
15.12
15.14
15.29
15.52
15.75
15.82
15.58
14.91
13.77
12.22
10.37
8.39
6.41
4.49
2.65
0.78
-1.17
-3.21
-5.30
-7.29
-9.06
-10.57
-11.85
-13.06
-14.43
-16.19
-18.51
-21.40
-24.67
-27.91
-30.49
-31.72
-31.00
-28.00
-22.80
-15.92
-8.22
-0.67
5.89
10.95
14.37
16.35
17.22
17.29
16.73
15.69
14.33
12.89
11.70
11.02
10.93
11.27
11.76
12.10
12.19
12.07
11.91
11.86
11.94
12.07
12.08
11.85
11.29
10.39
9.16
7.58
5.65
3.40
0.92
-1.61
-4.02
-6.15
-7.92
-9.36
-10.59
-11.80
-13.28
-15.32
-18.10
-21.57
-25.34
-28.72
-30.81
-30.91
-28.65
-24.25
-18.38
-11.94
-5.80
-0.54
3.61
6.75
9.10
10.88
12.25
13.24
13.87
14.18
14.18
13.95
13.59
13.22
12.97
12.97
13.26
13.78
14.39
14.92
15.27
15.41
15.35
15.11
14.66
13.88
12.68
11.03
8.97
6.58
3.95
1.21
-1.56
-4.24
-6.73
-8.95
-10.89
-12.64
-14.40
-16.41
-18.85
-21.73
-24.76
-27.37
-28.85
-28.51
-25.95
-21.19
-14.72
-7.33
0.02
6.49
11.47
14.69
16.27
16.64
16.40
16.08
15.97
16.02
16.01
15.68
14.92
13.91
12.91
12.14
11.66
11.35
11.06
10.72
10.36
10.07
9.88
9.70
9.42
8.88
8.07
7.03
5.84
4.56
3.17
1.65
-0.03
-1.86
-3.74
-5.58
-7.37
-9.17
-11.17
-13.61
-16.61
-20.16
-23.93
-27.38
-29.83
-30.60
-29.27
-25.78
-20.43
-13.85
-6.84
-0.15
5.62
10.15
13.36
15.32
16.22
16.24
15.62
14.60
13.45
12.41
11.63
11.16
10.94
10.84
10.79
10.76
10.79
10.93
11.21
11.59
11.91
12.04
11.81
11.12
10.02
8.70
7.39
6.31
5.56
5.00
4.42
3.57
2.31
0.72
-1.04
-2.81
-4.52
-6.31
-8.34
-10.82
-13.81
-17.22
-20.78
-24.04
-26.43
-27.33
-26.24
-22.99
-17.82
-11.43
-4.76
1.33
6.29
9.98
12.56
14.26
15.27
15.64
15.40
14.66
13.64
12.69
12.03
11.71
11.56
11.32
10.82
10.06
9.24
8.61
8.33
8.41
8.67
8.86
8.77
8.32
7.58
6.72
5.88
5.15
4.46
3.65
2.49
0.88
-1.10
-3.21
-5.16
-6.74
-7.94
-8.97
-10.14
-11.74
-13.94
-16.69
-19.75
-22.73
-25.09
-26.23
-25.67
-23.12
-18.69
-12.87
-6.46
-0.32
4.86
8.71
11.26
12.80
13.71
14.37
14.94
15.50
15.95
16.27
16.41
16.41
16.30
16.10
15.80
15.39
14.91
14.42
14.04
13.81
13.70
13.60
13.36
12.86
12.02
10.87
9.50
8.04
6.60
5.26
3.98
2.70
1.25
-0.47
-2.48
-4.58
-6.46
-7.76
-8.31
-8.14
-7.58
-7.08
-7.15
-8.10
-10.08
-13.03
-16.76
-20.98
-25.24
-28.89
-31.21
-31.56
-29.60
-25.50
-19.91
-13.80
-8.16
-3.64
-0.44
1.61
2.93
3.91
4.77
5.52
6.07
6.27
6.08
5.58
4.94
4.37
4.02
3.92
3.96
4.05
4.06
3.95
3.79
3.66
3.65
3.77
3.92
3.88
3.47
2.55
1.19
-0.39
-1.92
-3.16
-4.04
-4.68
-5.31
-6.10
-7.06
-8.10
-9.03
-9.73
-10.17
-10.42
-10.62
-10.92
-11.43
-12.29
-13.61
-15.52
-18.01
-20.81
-23.44
-25.14
-25.14
-22.97
-18.65
-12.74
-6.14
0.17
5.47
9.39
11.98
13.45
14.03
13.93
13.26
12.21
10.98
9.82
8.97
8.59
8.73
9.32
10.17
11.02
11.68
12.05
12.13
12.08
12.01
11.96
11.78
11.26
10.16
8.43
6.23
3.90
1.84
0.30
-0.62
-1.07
-1.27
-1.49
-1.91
-2.55
-3.34
-4.09
-4.66
-4.96
-5.05
-5.12
-5.44
-6.28
-7.82
-10.05
-12.78
-15.63
-18.03
-19.37
-19.12
-16.99
-13.11
-8.02
-2.50
2.61
6.66
9.34
10.66
10.87
10.34
9.44
8.47
7.61
6.97
6.57
6.37
6.29
6.21
6.04
5.68
5.10
4.41
3.81
3.53
3.70
4.26
4.97
5.51
5.65
5.35
4.74
4.04
3.36
2.71
1.99
1.03
-0.23
-1.79
-3.54
-5.37
-7.14
-8.76
-10.18
-11.37
-12.44
-13.56
-14.96
-16.77
-18.90
-20.99
-22.46
-22.70
-21.31
-18.26
-13.99
-9.20
-4.66
-0.96
1.65
3.21
3.95
4.10
3.79
3.12
2.20
1.17
0.24
-0.37
-0.55
-0.29
0.28
0.97
1.58
2.00
2.17
2.16
2.08
2.05
2.18
2.42
2.64
2.64
2.25
1.38
0.07
-1.50
-3.16
-4.78
-6.27
-7.66
-8.99
-10.41
-12.08
-14.19
-16.90
-20.21
-23.83
-27.14
-29.31
-29.51
-27.28
-22.71
-16.47
-9.63
-3.34
1.56
4.76
6.42
7.06
7.26
7.43
7.79
8.32
8.89
9.36
9.65
9.77
9.75
9.66
9.55
9.42
9.29
9.15
9.01
8.85
8.61
8.22
7.62
6.77
5.71
4.52
3.29
2.07
0.85
-0.48
-2.01
-3.79
-5.81
-8.01
-10.34
-12.79
-15.40
-18.24
-21.33
-24.54
-27.57
-29.86
-30.80
-29.83
-26.75
-21.76
-15.51
-8.86
-2.64
2.57
6.54
9.32
11.11
12.11
12.49
12.39
11.95
11.38
10.83
10.43
10.25
10.33
10.61
11.01
11.42
11.68
11.72
11.52
11.18
10.88
10.74
10.71
10.61
10.14
9.08
7.39
5.28
3.10
1.19
-0.24
-1.23
-1.97
-2.83
-4.12
-6.08
-8.76
-12.09
-15.79
-19.48
-22.61
-24.58
-24.90
-23.25
-19.67
-14.58
-8.68
-2.80
2.37
6.40
9.19
10.89
11.75
12.06
11.97
11.58
10.97
10.24
9.51
8.93
8.55
8.37
8.25
8.03
7.59
6.92
6.08
5.19
4.33
3.52
2.70
1.80
0.74
-0.48
-1.81
-3.21
-4.57
-5.80
-6.87
-7.81
-8.76
-9.99
-11.79
-14.38
-17.72
-21.46
-24.91
-27.24
-27.67
-25.81
-21.75
-16.09
-9.76
-3.74
1.28
4.97
7.46
9.08
10.22
11.15
11.96
12.60
13.01
13.21
13.22
13.16
13.13
13.17
13.23
13.25
13.11
12.75
12.13
11.27
10.26
9.19
8.18
7.28
6.48
5.66
4.70
3.46
1.88
-0.04
-2.19
-4.48
-6.77
-9.02
-11.26
-13.54
-16.01
-18.77
-21.90
-25.28
-28.57
-31.18
-32.37
-31.53
-28.36
-23.10
-16.46
-9.45
-3.05
2.08
5.76
8.19
9.79
10.97
11.98
12.84
13.46
13.74
13.60
13.13
12.50
11.88
11.47
11.34
11.50
11.84
12.24
12.60
12.86
13.00
13.00
12.79
12.31
11.52
10.47
9.25
7.96
6.69
5.43
4.09
2.60
0.94
-0.88
-2.80
-4.79
-6.91
-9.25
-11.90
-14.97
-18.39
-21.91
-25.09
-27.27
-27.83
-26.30
-22.61
-17.18
-10.78
-4.35
1.29
5.64
8.62
10.36
11.18
11.39
11.21
10.80
10.24
9.62
8.97
8.41
8.05
8.05
8.52
9.52
10.94
12.53
14.04
15.24
16.05
16.46
16.56
16.37
15.88
15.04
13.86
12.40
10.69
8.77
6.64
4.33
1.91
-0.46
-2.58
-4.31
-5.66
-6.81
-8.09
-9.86
-12.35
-15.49
-18.91
-21.92
-23.73
-23.71
-21.66
-17.87
-13.04
-8.08
-3.72
-0.36
1.92
3.31
4.09
4.45
4.55
4.50
4.38
4.27
4.21
4.23
4.32
4.54
4.96
5.65
6.62
7.69
8.65
9.22
9.23
8.70
7.82
6.83
5.95
5.22
4.50
3.62
2.37
0.68
-1.42
-3.82
-6.33
-8.72
-10.76
-12.27
-13.21
-13.75
-14.29
-15.36
-17.38
-20.49
-24.34
-28.04
-30.46
-30.51
-27.63
-21.99
-14.48
-6.45
0.83
6.46
10.19
12.32
13.43
14.03
14.47
14.89
15.32
15.84
16.57
17.59
18.87
20.21
21.29
21.84
21.74
21.11
20.21
19.35
18.69
18.22
17.75
17.05
15.97
14.49
12.74
10.90
9.09
7.38
5.72
4.02
2.28
0.60
-0.89
-2.09
-3.02
-3.89
-5.02
-6.71
-9.13
-12.17
-15.50
-18.52
-20.61
-21.22
-20.00
-16.92
-12.28
-6.67
-0.84
4.50
8.75
11.61
13.06
13.35
12.83
11.94
10.96
10.09
9.39
8.88
8.55
8.44
8.52
8.81
9.26
9.81
10.42
10.97
11.42
11.68
11.76
11.67
11.50
11.30
11.04
10.60
9.78
8.45
6.60
4.40
2.16
0.17
-1.34
-2.37
-3.05
-3.67
-4.53
-5.87
-7.77
-10.10
-12.56
-14.60
-15.59
-14.97
-12.43
-8.10
-2.51
3.53
9.17
13.77
17.10
19.27
20.57
21.31
21.69
21.84
21.90
22.06
22.53
23.52
25.13
27.41
30.43
34.29
39.13
45.03
51.92
59.58
67.63
75.63
83.13
89.74
95.03
98.62
100.20
99.70
97.45
94.33
91.59
90.51
91.95
95.98
101.69
107.49
111.51
112.29
109.31
103.07
94.96
86.69
79.82
75.33
73.51
73.95
75.55
76.55
74.78
68.08
54.92
35.11
10.03
-17.54
-44.37
-67.82
-86.66
-101.13
-112.45
-121.94
-130.39
-137.73
-143.27
-146.12
-145.61
-141.60
-134.52
-125.39
-115.72
-107.27
-101.65
-99.78
-101.58
-105.80
-110.53
-113.83
-114.52
-112.53
-108.68
-104.10
-99.48
-94.82
-89.56
-83.23
-75.99
-68.60
-61.88
-56.09
-50.62
-44.38
-36.78
-28.45
-21.38
-18.22
-21.09
-30.68
-45.87
-64.20
-82.62
-98.24
-108.87
-113.21
-110.88
-102.42
-89.18
-73.04
-56.09
-40.22
-26.87
-16.91
-10.68
-7.86
-7.57
-8.47
-9.11
-8.33
-5.64
-1.26
4.21
10.01
15.52
20.31
23.94
25.99
26.21
24.76
22.39
20.19
19.16
19.60
20.98
22.17
22.19
20.90
19.19
18.73
21.02
26.61
34.70
43.48
50.90
55.60
57.37
57.12
56.32
56.23
57.27
58.88
59.91
59.18
56.11
50.98
44.77
38.70
33.77
30.50
28.99
28.97
29.85
30.59
29.84
26.32
19.51
10.19
0.32
-7.67
-12.16
-13.19
-12.54
-12.84
-16.34
-23.85
-34.60
-46.73
-58.16
-67.35
-73.40
-75.96
-74.94
-70.40
-62.48
-51.49
-37.90
-22.47
-6.17
9.81
24.24
36.08
44.79
50.46
53.74
55.53
56.64
57.47
57.99
57.85
56.69
54.36
51.05
47.19
43.24
39.56
36.30
33.53
31.30
29.83
29.57
31.11
35.00
41.42
50.03
59.92
69.88
78.78
85.84
90.69
93.16
93.07
90.09
84.00
74.93
63.57
51.06
38.62
27.10
16.85
7.96
0.55
-4.82
-7.33
-6.34
-1.77
5.62
14.39
23.10
31.02
38.57
47.10
57.94
71.31
85.72
98.29
105.91
106.78
101.12
90.79
78.00
64.04
48.67
30.84
9.92
-13.29
-36.54
-57.10
-73.02
-83.85
-90.53
-94.55
-97.13
-98.89
-99.94
-100.29
-100.20
-100.12
-100.47
-101.48
-103.09
-105.06
-107.05
-108.70
-109.55
-108.95
-106.09
-100.20
-90.97
-78.76
-64.68
-50.28
-37.03
-25.91
-17.20
-10.57
-5.53
-1.73
0.85
2.01
1.65
0.06
-2.07
-3.83
-4.36
-3.16
-0.21
4.20
9.48
15.02
20.24
24.71
28.25
30.91
32.89
34.45
35.84
37.11
38.24
39.19
40.10
41.09
42.30
43.65
44.92
45.85
46.32
46.43
46.50
46.85
47.73
49.17
51.01
53.04
55.14
57.33
59.78
62.61
65.72
68.64
70.83
72.00
72.56
73.55
76.22
81.31
88.43
96.07
102.05
104.36
101.77
93.85
80.88
63.51
42.79
20.22
-2.26
-22.68
-39.67
-52.95
-63.40
-72.48
-81.50
-91.00
-100.67
-109.71
-117.43
-123.71
-129.18
-135.06
-142.84
-153.78
-168.16
-184.83
-200.93
-212.51
-215.72
-208.34
-190.74
-165.87
-138.19
-111.95
-89.89
-72.74
-59.71
-49.52
-41.38
-35.20
-31.16
-29.14
-28.35
-27.55
-25.77
-22.87
-19.64
-17.46
-17.43
-19.58
-22.69
-24.81
-24.13
-20.06
-13.50
-6.54
-1.49
0.07
-2.11
-7.09
-13.32
-19.31
-24.03
-27.00
-28.15
-27.68
-26.06
-24.04
-22.60
-22.82
-25.36
-30.24
-36.53
-42.67
-46.84
-47.68
-44.73
-38.70
-31.17
-23.95
-18.35
-14.81
-12.84
-11.54
-10.09
-8.21
-6.13
-4.31
-3.13
-2.79
-3.42
-5.02
-7.51
-10.39
-12.70
-13.16
-10.58
-4.50
4.56
15.14
25.45
34.07
40.36
44.54
47.32
49.42
51.27
52.91
54.16
54.79
54.52
52.90
49.39
43.51
35.26
25.39
15.45
7.29
2.33
0.99
2.39
4.85
6.51
6.08
3.09
-2.09
-8.62
-15.60
-22.24
-27.99
-32.46
-35.38
-36.62
-36.20
-34.31
-31.37
-27.93
-24.55
-21.69
-19.47
-17.67
-15.83
-13.59
-10.84
-7.93
-5.38
-3.57
-2.47
-1.59
-0.23
2.15
5.66
9.88
14.09
17.55
19.74
20.54
20.28
19.71
19.79
21.50
25.48
31.83
40.00
48.94
57.38
64.18
68.63
70.47
69.89
67.33
63.47
59.02
54.62
50.69
47.28
44.06
40.53
36.27
31.17
25.59
20.19
15.61
12.15
9.61
7.39
4.78
1.37
-2.89
-7.53
-11.96
-15.54
-17.95
-19.24
-19.84
-20.49
-22.03
-25.14
-30.14
-36.80
-44.38
-51.82
-57.87
-61.40
-61.57
-57.99
-50.88
-41.08
-30.01
-19.30
-10.46
-4.38
-1.13
-0.08
-0.23
-0.73
-1.17
-1.59
-2.27
-3.33
-4.51
-5.19
-4.74
-2.73
0.79
5.33
10.24
14.95
19.17
22.84
26.12
29.14
32.02
34.74
37.22
39.37
41.08
42.33
43.10
43.43
43.26
42.55
41.21
39.37
37.48
36.30
36.78
39.58
44.78
51.76
59.41
66.56
72.34
76.51
79.21
80.77
81.43
81.23
80.16
78.34
76.09
73.90
72.21
71.21
70.75
70.53
70.15
69.43
68.32
66.92
65.37
63.78
62.22
60.77
59.48
58.41
57.58
56.99
56.53
56.00
55.05
53.18
49.68
43.85
35.13
23.48
9.46
-5.60
-19.95
-31.74
-39.51
-42.56
-40.93
-35.45
-27.33
-17.96
-8.60
-0.35
5.96
9.71
10.58
8.67
4.33
-1.86
-9.37
-17.89
-27.39
-38.07
-50.14
-63.52
-77.70
-91.83
-104.95
-116.33
-125.78
-133.74
-141.16
-149.07
-158.24
-168.86
-180.60
-192.71
-204.39
-215.02
-224.29
-232.22
-239.01
-244.85
-249.69
-253.18
-254.65
-253.32
-248.48
-239.61
-226.39
-208.65
-186.41
-159.99
-130.16
-98.19
-65.72
-34.32
-5.18
21.01
44.07
63.97
80.63
93.85
103.58
110.09
114.08
116.62
118.81
121.41
124.72
128.44
131.91
134.22
134.52
132.13
126.81
118.82
108.99
98.56
88.81
80.70
74.52
69.81
65.57
60.82
55.03
48.33
41.38
35.06
30.18
27.34
27.10
29.89
35.95
44.92
55.57
65.91
73.66
77.21
76.12
71.36
64.67
57.74
51.54
46.04
40.61
34.48
27.19
18.70
9.28
-0.79
-11.21
-21.66
-31.78
-41.02
-48.88
-55.00
-59.30
-62.06
-63.78
-65.02
-66.18
-67.35
-68.18
-68.00
-66.04
-61.78
-55.23
-47.07
-38.60
-31.26
-26.19
-23.70
-23.09
-22.95
-21.78
-18.70
-13.91
-8.55
-4.12
-1.75
-1.70
-3.26
-5.27
-6.65
-7.01
-6.58
-6.12
-6.45
-8.01
-10.77
-14.18
-17.35
-19.33
-19.29
-16.75
-11.72
-4.62
3.75
12.40
20.34
26.73
31.08
33.24
33.49
32.38
30.57
28.62
26.79
25.09
23.30
21.11
18.06
13.61
7.19
-1.70
-13.15
-26.66
-40.93
-54.14
-64.32
-69.90
-70.16
-65.41
-56.92
-46.44
-35.76
-26.09
-17.90
-10.91
-4.56
1.50
7.21
12.00
15.28
16.79
16.92
16.49
16.40
17.15
18.63
20.26
21.41
21.80
21.61
21.28
21.12
20.94
20.01
17.30
12.14
4.51
-4.68
-13.97
-21.92
-27.61
-30.95
-32.50
-33.21
-33.98
-35.40
-37.63
-40.47
-43.41
-45.68
-46.34
-44.46
-39.39
-31.01
-19.91
-7.31
5.19
16.05
24.10
28.72
29.91
28.15
24.21
18.96
13.19
7.58
2.65
-1.23
-3.67
-4.40
-3.19
0.02
5.02
11.29
18.18
24.91
30.81
35.43
38.55
40.25
40.80
40.65
40.23
39.87
39.61
39.26
38.48
36.89
34.33
30.97
27.29
24.10
22.27
22.53
25.29
30.45
37.54
45.76
54.30
62.42
69.65
75.64
80.22
83.29
84.89
85.18
84.50
83.34
82.34
82.23
83.67
87.07
92.26
98.43
104.27
108.56
110.70
110.97
110.15
108.78
106.46
101.78
92.93
78.82
60.05
38.99
19.04
3.35
-6.33
-9.93
-8.64
-4.09
2.38
9.86
17.70
25.17
31.34
35.35
36.77
35.91
33.83
31.96
31.68
33.85
38.67
45.62
53.73
61.69
68.13
71.80
71.83
67.66
59.14
46.43
29.98
10.42
-11.51
-35.14
-60.05
-85.97
-112.55
-138.96
-163.71
-184.96
-201.22
-212.08
-218.38
-221.64
-222.90
-221.59
-215.28
-200.28
-173.15
-132.17
-78.13
-14.35
54.17
121.85
183.64
235.58
275.10
301.08
313.82
315.02
307.67
295.64
282.90
272.33
264.76
258.60
250.51
236.84
215.38
186.41
152.87
119.30
90.08
67.95
53.10
43.56
36.36
28.93
19.97
9.37
-2.59
-16.08
-31.82
-50.23
-70.24
-88.57
-100.44
-101.49
-90.05
-68.31
-41.88
-17.60
-0.97
5.58
2.91
-6.09
-18.16
-30.97
-43.49
-55.66
-67.68
-79.50
-90.72
-100.72
-109.01
-115.38
-120.04
-123.50
-126.36
-129.04
-131.69
-134.34
-137.07
-140.26
-144.49
-150.13
-156.78
-163.10
-166.97
-166.41
-160.59
-150.46
-138.57
-128.08
-121.36
-118.95
-119.31
-119.43
-115.95
-106.40
-89.90
-67.35
-41.06
-14.06
10.85
31.55
47.06
57.33
63.02
65.17
64.94
63.60
62.47
62.87
65.82
71.65
79.74
88.54
96.01
100.26
100.27
96.27
89.62
82.34
76.53
73.74
74.61
78.63
84.07
88.18
87.80
80.27
64.28
40.56
11.82
-18.03
-44.81
-65.20
-77.25
-80.45
-75.52
-64.07
-48.38
-31.17
-15.38
-3.73
1.80
0.32
-7.61
-20.21
-34.87
-48.80
-59.82
-66.79
-69.73
-69.51
-67.37
-64.39
-61.28
-58.44
-56.14
-54.83
-55.10
-57.41
-61.84
-67.80
-74.26
-80.05
-84.40
-87.28
-89.25
-91.12
-93.38
-95.89
-97.89
-98.30
-96.28
-91.53
-84.38
-75.65
-66.19
-56.67
-47.37
-38.27
-29.27
-20.52
-12.53
-6.26
-2.83
-3.11
-7.28
-14.59
-23.46
-31.90
-38.33
-42.13
-43.90
-45.16
-47.54
-52.02
-58.42
-65.75
-72.83
-79.22
-85.82
-94.79
-108.98
-131.21
-163.63
-207.10
-260.60
-320.52
-380.58
-432.61
-468.64
-483.26
-475.59
-449.49
-411.93
-370.36
-330.30
-294.37
-262.72
-234.56
-209.28
-186.90
-167.51
-150.57
-134.80
-118.66
-101.19
-82.52
-63.79
-46.68
-32.59
-22.01
-14.40
-8.56
-3.13
2.69
8.94
14.94
19.74
22.58
23.30
22.42
20.87
19.67
19.43
20.28
21.86
23.58
24.99
25.95
26.74
27.81
29.65
32.47
36.15
40.27
44.35
48.05
51.32
54.46
57.88
61.95
66.82
72.30
78.03
83.59
88.84
93.97
99.46
105.92
113.80
123.19
133.81
145.15
156.75
168.37
180.10
192.30
205.46
220.11
236.85
256.18
278.15
301.89
325.26
345.01
357.65
360.49
352.71
335.59
312.09
285.70
259.41
235.21
214.17
196.89
183.93
175.77
172.43
173.08
175.78
178.00
177.39
172.57
163.68
152.09
139.67
127.86
117.06
106.67
95.77
83.84
71.35
59.61
50.21
44.22
41.74
41.95
43.60
45.57
47.22
48.26
48.63
48.18
46.66
43.86
39.95
35.44
31.10
27.58
25.06
23.13
21.03
18.08
14.17
9.99
6.89
6.40
9.72
17.18
27.98
40.34
51.81
59.94
62.89
59.89
51.54
39.57
26.34
14.10
4.34
-2.57
-7.22
-10.80
-14.57
-19.51
-26.24
-35.07
-46.02
-58.66
-72.01
-84.61
-94.88
-101.72
-105.05
-105.89
-106.01
-107.15
-110.28
-115.30
-121.21
-126.70
-130.89
-133.67
-135.56
-137.32
-139.20
-140.48
-139.57
-134.35
-123.06
-105.00
-81.03
-53.32
-24.78
1.89
24.89
43.71
58.92
71.52
82.23
90.94
96.72
98.26
94.66
86.07
73.95
60.59
48.34
38.76
32.19
27.93
24.81
21.90
18.80
15.57
12.40
9.31
6.09
2.53
-1.39
-5.36
-8.91
-11.67
-13.74
-15.64
-18.20
-22.05
-27.19
-32.72
-37.02
-38.19
-34.85
-26.71
-14.72
-0.88
12.51
23.49
30.97
34.86
35.85
35.08
33.73
32.76
32.75
33.89
35.97
38.51
40.96
42.76
43.49
42.85
40.76
37.44
33.52
30.01
28.01
28.18
30.26
32.85
33.78
30.94
23.14
10.69
-4.68
-20.51
-34.45
-45.00
-51.80
-55.36
-56.65
-56.60
-55.63
-53.52
-49.46
-42.33
-31.25
-16.05
2.43
22.41
41.64
58.12
70.67
79.14
84.15
86.58
87.18
86.42
84.57
82.00
79.33
77.26
76.40
76.99
78.91
81.82
85.41
89.59
94.53
100.38
107.06
114.00
120.24
124.53
125.67
122.80
115.55
104.18
89.46
72.44
54.21
35.64
17.24
-0.77
-18.20
-34.61
-49.12
-60.53
-67.60
-69.42
-65.62
-56.52
-42.99
-26.37
-8.43
8.78
23.23
33.34
38.48
39.08
36.33
31.50
25.35
17.99
9.33
-0.34
-9.92
-17.79
-22.50
-23.36
-20.63
-15.14
-7.73
1.09
10.99
21.53
32.00
41.69
50.27
57.99
65.50
73.20
80.73
86.95
90.44
90.22
86.18
79.03
69.61
58.25
44.51
27.51
6.65
-17.76
-44.27
-70.79
-95.22
-116.16
-133.29
-147.24
-159.12
-169.97
-180.45
-190.80
-201.06
-211.27
-221.56
-232.08
-242.83
-253.66
-264.40
-275.00
-285.39
-295.19
-303.35
-308.10
-307.20
-298.57
-280.92
-254.30
-220.35
-182.07
-143.55
-109.32
-83.56
-69.13
-66.77
-74.64
-88.60
-103.18
-113.13
-114.80
-107.02
-91.03
-69.53
-45.44
-20.58
4.89
32.16
62.69
97.01
133.88
170.46
203.16
228.98
246.42
255.75
258.30
255.55
248.09
235.42
216.40
190.26
157.54
120.38
82.19
46.74
17.20
-4.56
-18.11
-24.49
-25.80
-24.77
-24.05
-25.63
-30.40
-38.18
-48.18
-59.64
-72.35
-86.67
-103.13
-121.84
-141.91
-161.32
-177.12
-186.17
-186.30
-177.55
-162.97
-148.50
-141.32
-147.26
-168.43
-202.08
-241.54
-278.68
-306.74
-322.09
-324.37
-315.40
-297.56
-272.88
-242.83
-208.87
-172.88
-137.27
-104.51
-76.40
-53.47
-34.62
-17.39
1.45
24.99
55.44
93.93
140.70
195.30
256.43
321.41
385.63
442.86
486.70
512.86
521.04
515.51
503.60
492.89
488.14
489.83
494.55
497.33
494.26
484.20
468.67
450.10
429.84
407.15
380.01
346.82
308.06
266.57
225.92
188.15
152.22
114.69
72.16
23.98
-26.57
-73.79
-112.77
-142.38
-165.96
-189.49
-218.28
-254.18
-295.00
-336.32
-374.25
-407.66
-438.82
-472.08
-511.40
-557.88
-608.21
-654.97
-688.52
-700.19
-685.22
-644.55
-583.97
-511.44
-433.64
-353.58
-270.26
-180.56
-82.18
23.76
131.83
233.26
318.15
378.08
408.16
408.18
382.79
340.74
293.01
250.54
221.66
210.16
214.79
230.20
249.16
265.14
274.04
274.65
267.80
255.04
237.60
216.21
191.82
166.17
141.71
120.87
104.85
92.92
82.56
70.57
54.67
34.60
12.46
-8.18
-23.93
-33.22
-37.00
-38.30
-40.52
-45.78
-53.97
-63.14
-70.78
-75.18
-75.97
-73.80
-69.44
-63.21
-54.96
-44.68
-32.96
-21.18
-11.07
-4.12
-1.03
-1.69
-5.19
-10.18
-15.11
-18.57
-19.59
-17.89
-13.98
-8.91
-3.82
0.42
3.35
4.84
4.81
3.01
-0.89
-7.20
-15.98
-26.90
-39.17
-51.64
-62.99
-72.01
-77.94
-80.72
-80.87
-79.36
-77.14
-74.88
-72.87
-71.18
-69.86
-69.05
-68.93
-69.54
-70.70
-72.07
-73.36
-74.53
-75.80
-77.52
-79.73
-82.04
-83.59
-83.53
-81.37
-77.21
-71.60
-65.17
-58.22
-50.60
-41.90
-31.83
-20.52
-8.64
2.93
13.36
22.20
29.40
35.17
39.70
43.16
45.63
47.27
48.34
49.11
49.77
50.32
50.66
50.70
50.53
50.53
51.23
53.05
56.10
60.02
64.08
67.35
69.01
68.57
66.04
61.92
57.04
52.31
48.42
45.60
43.69
42.19
40.56
38.38
35.37
31.39
26.42
20.60
14.46
8.91
5.15
4.27
6.82
12.40
19.84
27.48
33.81
37.97
39.82
39.78
38.40
35.99
32.56
28.04
22.54
16.60
11.04
6.67
3.96
2.89
2.95
3.49
3.97
4.09
3.75
2.95
1.62
-0.32
-2.91
-6.04
-9.48
-12.93
-16.17
-19.12
-21.87
-24.61
-27.64
-31.29
-35.86
-41.42
-47.56
-53.30
-57.17
-57.68
-53.86
-45.74
-34.39
-21.60
-9.27
1.14
8.99
14.27
17.37
18.72
18.61
17.25
14.86
11.70
8.16
4.60
1.30
-1.50
-3.70
-5.18
-5.87
-5.72
-4.79
-3.28
-1.51
0.06
1.04
1.20
0.56
-0.62
-2.00
-3.27
-4.34
-5.37
-6.77
-9.00
-12.45
-17.25
-23.05
-29.09
-34.24
-37.23
-37.07
-33.33
-26.34
-17.08
-6.87
3.00
11.56
18.33
23.25
26.47
28.23
28.73
28.08
26.43
23.93
20.90
17.68
14.68
12.29
10.71
10.00
10.07
10.71
11.63
12.54
13.17
13.29
12.74
11.50
9.64
7.36
4.88
2.40
-0.06
-2.67
-5.72
-9.51
-14.07
-19.02
-23.48
-26.32
-26.44
-23.21
-16.73
-7.86
2.08
11.65
19.72
25.69
29.51
31.52
32.18
31.88
30.81
29.02
26.56
23.51
20.15
16.88
14.11
12.21
11.38
11.61
12.65
14.12
15.50
16.34
16.26
15.13
13.02
10.23
7.09
3.88
0.68
-2.61
-6.20
-10.35
-15.16
-20.51
-25.93
-30.66
-33.75
-34.29
-31.74
-26.05
-17.79
-8.00
2.09
11.32
18.89
24.39
27.79
29.30
29.29
28.13
26.20
23.88
21.46
19.21
17.31
15.85
14.86
14.27
14.05
14.12
14.46
15.00
15.59
15.96
15.79
14.78
12.81
10.00
6.67
3.21
-0.09
-3.13
-5.99
-8.93
-12.17
-15.90
-20.11
-24.55
-28.63
-31.54
-32.31
-30.22
-25.09
-17.35
-8.04
1.51
10.08
16.87
21.57
24.31
25.43
25.29
24.21
22.44
20.27
18.04
16.10
14.75
14.04
13.88
14.03
14.30
14.60
14.92
15.34
15.84
16.33
16.61
16.46
15.68
14.19
11.98
9.15
5.92
2.56
-0.67
-3.55
-6.07
-8.41
-10.95
-14.12
-18.19
-23.02
-28.01
-32.10
-34.11
-33.15
-28.95
-21.97
-13.29
-4.18
4.26
11.33
16.81
20.74
23.33
24.74
25.14
24.63
23.38
21.57
19.51
17.44
15.61
14.15
13.09
12.41
12.05
11.97
12.18
12.61
13.09
13.31
12.86
11.45
9.01
5.77
2.22
-1.20
-4.13
-6.49
-8.43
-10.20
-12.08
-14.33
-17.10
-20.38
-23.85
-26.87
-28.55
-28.04
-24.83
-19.00
-11.28
-2.78
5.33
12.16
17.30
20.78
22.92
24.09
24.59
24.55
23.96
22.80
21.09
19.05
17.03
15.42
14.52
14.34
14.70
15.28
15.80
16.09
16.11
15.88
15.39
14.61
13.48
11.95
10.00
7.70
5.14
2.46
-0.20
-2.76
-5.17
-7.51
-9.90
-12.51
-15.42
-18.69
-22.26
-26.03
-29.79
-33.16
-35.61
-36.45
-35.07
-31.12
-24.75
-16.63
-7.76
0.75
7.98
13.40
16.87
18.56
18.85
18.21
17.07
15.85
14.80
14.03
13.52
13.15
12.82
12.48
12.16
11.90
11.79
11.85
12.04
12.33
12.59
12.67
12.39
11.60
10.23
8.36
6.12
3.67
1.17
-1.33
-3.78
-6.11
-8.22
-10.04
-11.58
-12.97
-14.48
-16.41
-18.99
-22.27
-26.07
-29.94
-33.23
-35.13
-34.93
-32.19
-26.95
-19.78
-11.61
-3.52
3.66
9.44
13.74
16.71
18.55
19.40
19.37
18.61
17.34
15.86
14.47
13.33
12.51
11.98
11.73
11.74
12.04
12.59
13.28
13.92
14.26
14.08
13.29
11.96
10.27
8.47
6.71
5.01
3.31
1.44
-0.66
-2.94
-5.22
-7.26
-8.89
-10.09
-11.00
-11.92
-13.18
-15.06
-17.78
-21.35
-25.55
-29.84
-33.43
-35.39
-34.97
-31.84
-26.20
-18.77
-10.58
-2.66
4.16
9.47
13.19
15.44
16.47
16.51
15.76
14.47
12.87
11.23
9.81
8.75
8.14
7.91
7.95
8.16
8.48
8.92
9.49
10.18
10.83
11.19
11.02
10.18
8.74
6.96
5.16
3.62
2.42
1.48
0.56
-0.56
-2.03
-3.84
-5.91
-8.12
-10.36
-12.60
-14.94
-17.51
-20.52
-24.04
-27.91
-31.68
-34.64
-35.99
-35.12
-31.82
-26.33
-19.30
-11.61
-4.13
2.42
7.61
11.23
13.31
14.01
13.59
12.38
10.72
8.96
7.44
6.37
5.84
5.80
6.09
6.55
7.12
7.76
8.52
9.37
10.23
10.91
11.21
10.98
10.14
8.74
6.92
4.92
2.99
1.32
-0.02
-1.14
-2.27
-3.73
-5.67
-8.08
-10.72
-13.28
-15.50
-17.32
-18.88
-20.52
-22.59
-25.34
-28.73
-32.43
-35.81
-38.11
-38.61
-36.81
-32.59
-26.29
-18.63
-10.56
-3.07
3.07
7.46
10.10
11.33
11.65
11.56
11.39
11.32
11.39
11.60
11.94
12.43
13.05
13.73
14.35
14.82
15.14
15.36
15.61
15.96
16.37
16.68
16.67
16.14
15.01
13.34
11.30
9.09
6.91
4.90
3.12
1.56
0.14
-1.27
-2.77
-4.38
-6.10
-7.87
-9.66
-11.48
-13.41
-15.53
-17.96
-20.78
-24.01
-27.53
-30.99
-33.85
-35.47
-35.27
-32.89
-28.43
-22.36
-15.44
-8.48
-2.17
2.99
6.80
9.32
10.78
11.55
12.01
12.35
12.61
12.67
12.43
11.94
11.46
11.29
11.62
12.43
13.43
14.30
14.80
14.92
14.70
14.23
13.54
12.60
11.40
10.02
8.59
7.27
6.10
4.98
3.75
2.24
0.36
-1.82
-4.14
-6.42
-8.54
-10.47
-12.35
-14.42
-16.98
-20.24
-24.17
-28.48
-32.55
-35.65
-37.10
-36.43
-33.50
-28.49
-21.92
-14.46
-6.86
0.20
6.17
10.79
14.01
15.97
16.95
17.20
16.95
16.42
15.81
15.33
15.16
15.44
16.23
17.52
19.14
20.85
22.35
23.37
23.74
23.45
22.62
21.44
20.13
18.90
17.90
17.22
16.86
16.72
16.55
16.04
14.82
12.69
9.55
5.50
0.72
-4.61
-10.33
-16.32
-22.45
-28.61
-34.61
-40.22
-45.09
-48.72
-50.57
-50.18
-47.26
-41.84
-34.31
-25.32
-15.73
-6.40
1.81
8.22
12.31
13.89
13.07
10.23
5.99
1.05
-3.93
-8.35
-11.68
-13.56
-13.80
-12.44
-9.81
-6.38
-2.68
0.88
4.05
6.71
8.76
10.12
10.71
10.54
9.80
8.77
7.70
6.69
5.67
4.45
2.90
1.03
-0.99
-2.95
-4.67
-6.11
-7.35
-8.55
-9.91
-11.66
-14.02
-17.15
-21.12
-25.68
-30.27
-34.09
-36.26
-36.11
-33.37
-28.25
-21.43
-13.82
-6.40
0.07
5.17
8.82
11.24
12.80
13.92
14.94
16.01
17.15
18.24
19.15
19.82
20.23
20.44
20.53
20.54
20.51
20.50
20.60
20.91
21.50
22.28
23.03
23.45
23.24
22.32
20.78
18.84
16.76
14.71
12.74
10.78
8.68
6.36
3.76
0.94
-1.98
-4.88
-7.61
-10.13
-12.50
-14.81
-17.26
-20.06
-23.38
-27.31
-31.65
-35.90
-39.29
-40.87
-39.88
-36.05
-29.72
-21.76
-13.33
-5.47
1.16
6.30
10.00
12.45
13.85
14.39
14.29
13.83
13.31
12.99
12.98
13.25
13.68
14.12
14.51
14.81
15.11
15.52
16.18
17.13
18.32
19.53
20.46
20.80
20.34
19.08
17.17
14.91
12.56
10.34
8.32
6.50
4.79
3.05
1.11
-1.18
-3.89
-6.93
-10.08
-13.02
-15.49
-17.40
-18.90
-20.33
-22.09
-24.54
-27.82
-31.78
-35.93
-39.53
-41.68
-41.57
-38.71
-33.17
-25.56
-16.94
-8.46
-1.04
4.78
8.91
11.57
13.09
13.80
13.93
13.66
13.18
12.63
12.15
11.78
11.51
11.29
11.10
10.93
10.84
10.90
11.10
11.39
11.62
11.67
11.44
10.92
10.14
9.15
8.03
6.85
5.69
4.64
3.76
3.05
2.41
1.68
0.62
-0.94
-3.05
-5.59
-8.32
-10.96
-13.31
-15.36
-17.26
-19.29
-21.76
-24.92
-28.85
-33.45
-38.40
-43.07
-46.67
-48.29
-47.24
-43.25
-36.64
-28.29
-19.35
-10.90
-3.69
1.94
6.10
9.10
11.33
13.10
14.64
16.05
17.37
18.58
19.66
20.60
21.39
22.01
22.49
22.85
23.15
23.45
23.79
24.21
24.63
24.95
24.98
24.60
23.68
22.21
20.30
18.16
16.08
14.32
12.99
11.99
11.04
9.78
7.92
5.38
2.27
-1.16
-4.67
-8.05
-11.18
-13.93
-16.22
-18.04
-19.52
-20.99
-22.88
-25.54
-28.96
-32.73
-35.98
-37.64
-36.77
-32.91
-26.22
-17.46
-7.80
1.55
9.62
15.83
20.04
22.47
23.42
23.28
22.35
21.01
19.64
18.65
18.38
18.92
20.12
21.59
22.88
23.70
24.03
24.15
24.41
25.13
26.38
27.93
29.34
30.15
30.02
28.84
26.81
24.29
21.71
19.38
17.42
15.71
14.04
12.15
9.89
7.31
4.57
1.88
-0.59
-2.81
-4.90
-7.06
-9.58
-12.65
-16.35
-20.61
-25.14
-29.48
-32.99
-34.94
-34.73
-32.06
-27.09
-20.48
-13.19
-6.21
-0.33
4.08
7.02
8.71
9.37
9.22
8.39
7.11
5.68
4.48
3.81
3.80
4.35
5.25
6.31
7.37
8.38
9.35
10.24
10.99
11.45
11.48
10.98
9.98
8.60
7.03
5.42
3.84
2.23
0.47
-1.52
-3.73
-6.00
-8.13
-9.96
-11.52
-13.01
-14.71
-16.92
-19.76
-23.14
-26.64
-29.63
-31.39
-31.23
-28.81
-24.17
-17.85
-10.68
-3.58
2.66
7.57
10.98
12.96
13.74
13.54
12.62
11.19
9.49
7.72
6.09
4.80
3.96
3.54
3.48
3.63
3.85
4.08
4.28
4.43
4.49
4.38
3.95
3.14
1.91
0.28
-1.65
-3.84
-6.16
-8.51
-10.81
-13.02
-15.13
-17.25
-19.49
-21.99
-24.73
-27.55
-30.12
-31.97
-32.60
-31.57
-28.64
-23.84
-17.57
-10.46
-3.26
3.30
8.65
12.50
14.81
15.69
15.40
14.27
12.67
11.02
9.68
8.91
8.81
9.29
10.11
11.01
11.78
12.30
12.58
12.65
12.50
12.08
11.29
10.02
8.23
5.98
3.41
0.72
-1.88
-4.23
-6.26
-8.02
-9.64
-11.31
-13.22
-15.52
-18.24
-21.20
-23.95
-25.80
-26.03
-24.12
-20.07
-14.38
-7.99
-1.85
3.30
7.14
9.72
11.26
11.95
11.86
11.04
9.69
8.12
6.76
5.90
5.63
5.76
5.98
5.99
5.62
4.93
4.12
3.40
2.95
2.82
2.95
3.16
3.19
2.71
1.48
-0.62
-3.44
-6.63
-9.73
-12.42
-14.57
-16.34
-18.07
-20.15
-22.89
-26.36
-30.33
-34.32
-37.60
-39.38
-38.97
-36.05
-30.77
-23.85
-16.30
-9.19
-3.30
1.03
3.94
5.86
7.21
8.33
9.35
10.25
11.00
11.55
11.92
12.16
12.35
12.57
12.90
13.37
13.94
14.54
15.09
15.57
15.92
16.11
16.01
15.41
14.14
12.16
9.64
6.93
4.36
2.10
0.13
-1.83
-4.11
-6.96
-10.51
-14.59
-18.82
-22.55
-25.03
-25.55
-23.68
-19.47
-13.43
-6.44
0.51
6.63
11.48
15.00
17.37
18.88
19.73
19.99
19.66
18.76
17.45
16.06
14.96
14.42
14.53
15.16
16.06
17.01
17.86
18.58
19.14
19.43
19.35
18.76
17.61
15.93
13.80
11.31
8.44
5.22
1.67
-2.04
-5.67
-8.92
-11.64
-13.81
-15.62
-17.32
-19.11
-20.98
-22.64
-23.58
-23.28
-21.35
-17.78
-12.92
-7.39
-1.83
3.24
7.52
10.92
13.42
15.09
15.93
16.03
15.53
14.64
13.60
12.60
11.84
11.38
11.28
11.51
12.02
12.70
13.41
14.05
14.51
14.72
14.64
14.27
13.63
12.73
11.57
10.15
8.40
6.31
3.92
1.37
-1.20
-3.66
-5.98
-8.21
-10.45
-12.76
-15.15
-17.57
-19.95
-22.15
-23.99
-25.13
-25.18
-23.79
-20.82
-16.45
-11.11
-5.43
0.04
4.92
9.03
12.30
14.72
16.31
17.16
17.47
17.47
17.40
17.35
17.31
17.13
16.75
16.15
15.39
14.54
13.59
12.50
11.25
9.92
8.67
7.66
6.91
6.31
5.57
4.44
2.77
0.63
-1.74
-4.09
-6.24
-8.21
-10.18
-12.39
-15.03
-18.14
-21.55
-24.86
-27.55
-29.05
-28.96
-27.10
-23.68
-19.14
-14.15
-9.36
-5.30
-2.26
-0.26
0.78
1.03
0.65
-0.17
-1.24
-2.32
-3.20
-3.70
-3.72
-3.32
-2.57
-1.61
-0.43
1.01
2.78
4.87
7.03
8.87
9.88
9.74
8.42
6.18
3.51
0.87
-1.45
-3.39
-5.09
-6.72
-8.39
-10.22
-12.27
-14.58
-17.11
-19.68
-21.88
-23.10
-22.76
-20.49
-16.39
-11.01
-5.18
0.22
4.59
7.73
9.78
11.01
11.72
12.02
11.93
11.43
10.57
9.53
8.54
7.88
7.72
8.09
8.84
9.70
10.38
10.64
10.45
9.90
9.14
8.27
7.27
5.99
4.31
2.21
-0.17
-2.56
-4.72
-6.47
-7.88
-9.10
-10.35
-11.87
-13.81
-16.31
-19.30
-22.56
-25.63
-27.86
-28.54
-27.12
-23.42
-17.81
-11.08
-4.27
1.65
6.04
8.79
10.22
10.90
11.45
12.26
13.39
14.66
15.77
16.47
16.68
16.45
15.96
15.34
14.70
14.09
13.56
13.17
12.99
13.07
13.33
13.58
13.61
13.18
12.20
10.65
8.70
6.53
4.33
2.21
0.17
-1.78
-3.67
-5.50
-7.29
-9.03
-10.75
-12.56
-14.61
-17.04
-19.91
-23.13
-26.33
-28.95
-30.33
-29.94
-27.59
-23.55
-18.42
-12.97
-7.88
-3.56
-0.12
2.47
4.34
5.60
6.37
6.79
7.08
7.47
8.09
8.97
9.98
10.93
11.63
11.98
11.99
11.81
11.64
11.64
11.83
12.06
12.11
11.73
10.82
9.43
7.79
6.12
4.58
3.22
1.91
0.49
-1.16
-3.06
-5.10
-7.08
-8.75
-9.93
-10.55
-10.73
-10.71
-10.81
-11.34
-12.48
-14.21
-16.31
-18.40
-20.01
-20.67
-20.05
-18.04
-14.81
-10.80
-6.59
-2.74
0.30
2.38
3.57
4.14
4.41
4.64
4.98
5.43
5.88
6.27
6.56
6.78
7.04
7.37
7.76
8.12
8.35
8.45
8.49
8.61
8.86
9.22
9.53
9.63
9.40
8.84
8.10
7.37
6.83
6.52
6.38
6.22
5.84
5.12
4.02
2.65
1.22
-0.13
-1.32
-2.41
-3.55
-4.90
-6.57
-8.62
-11.00
-13.59
-16.16
-18.33
-19.72
-19.93
-18.71
-16.11
-12.42
-8.17
-3.98
-0.33
2.51
4.49
5.75
6.50
6.87
6.89
6.54
5.80
4.76
3.64
2.77
2.38
2.54
3.11
3.80
4.32
4.49
4.37
4.11
3.89
3.73
3.54
3.19
2.60
1.88
1.24
0.89
0.85
0.99
1.02
0.72
-0.06
-1.23
-2.64
-4.11
-5.53
-6.91
-8.26
-9.68
-11.26
-13.06
-15.11
-17.35
-19.54
-21.30
-22.15
-21.69
-19.73
-16.40
-12.13
-7.47
-3.04
0.74
3.62
5.57
6.75
7.38
7.71
7.91
8.05
8.11
8.02
7.72
7.23
6.68
6.22
5.97
5.93
6.01
6.08
6.07
6.03
6.04
6.20
6.47
6.70
6.65
6.16
5.25
4.11
2.98
2.03
1.28
0.61
-0.13
-1.02
-2.02
-3.01
-3.89
-4.60
-5.20
-5.79
-6.50
-7.41
-8.58
-10.05
-11.79
-13.69
-15.53
-17.00
-17.74
-17.50
-16.25
-14.19
-11.75
-9.39
-7.48
-6.19
-5.43
-5.00
-4.64
-4.14
-3.46
-2.64
-1.83
-1.17
-0.73
-0.45
-0.22
0.06
0.44
0.83
1.14
1.32
1.44
1.62
1.96
2.42
2.86
3.08
2.93
2.40
1.54
0.44
-0.93
-2.56
-4.49
-6.61
-8.76
-10.76
-12.47
-13.86
-14.90
-15.66
-16.25
-16.89
-17.84
-19.34
-21.40
-23.65
-25.52
-26.34
-25.65
-23.36
-19.81
-15.57
-11.30
-7.49
-4.48
-2.45
-1.33
-0.87
-0.66
-0.21
0.85
2.68
5.11
7.76
10.22
12.15
13.44
14.18
14.54
14.68
14.74
14.75
14.60
14.07
12.84
10.51
6.77
1.57
-4.77
-11.57
-17.95
-23.13
-26.68
-28.59
-29.21
-29.00
-28.31
-27.34
-26.17
-24.87
-23.59
-22.56
-21.86
-21.42
-20.97
-20.10
-18.47
-15.92
-12.50
-8.41
-3.89
0.76
5.21
9.13
12.21
14.20
15.05
14.91
14.08
12.90
11.65
10.53
9.59
8.85
8.31
7.96
7.81
7.87
8.13
8.52
9.00
9.43
9.71
9.78
9.58
9.15
8.50
7.61
6.44
4.93
3.06
0.89
-1.42
-3.71
-5.85
-7.80
-9.65
-11.50
-13.45
-15.58
-17.96
-20.61
-23.50
-26.42
-28.91
-30.41
-30.32
-28.32
-24.50
-19.37
-13.67
-8.18
-3.41
0.42
3.34
5.52
7.13
8.30
9.15
9.79
10.28
10.66
10.91
10.98
10.90
10.79
10.83
11.18
11.86
12.68
13.31
13.47
12.99
11.96
10.59
9.13
7.74
6.42
5.06
3.53
1.81
-0.05
-1.93
-3.75
-5.49
-7.18
-8.87
-10.60
-12.38
-14.29
-16.45
-19.03
-22.12
-25.58
-28.99
-31.63
-32.77
-31.90
-28.94
-24.27
-18.67
-13.02
-8.06
-4.18
-1.41
0.48
1.84
2.94
3.92
4.83
5.66
6.41
7.16
8.04
9.12
10.40
11.75
13.00
14.02
14.83
15.59
16.46
17.52
18.65
19.60
20.05
19.84
19.02
17.83
16.55
15.39
14.38
13.45
12.50
11.44
10.16
8.56
6.56
4.15
1.42
-1.37
-3.97
-6.15
-7.89
-9.39
-10.98
-13.05
-15.85
-19.47
-23.66
-27.87
-31.29
-33.04
-32.47
-29.33
-23.98
-17.26
-10.26
-3.99
0.92
4.28
6.37
7.62
8.51
9.39
10.36
11.45
12.60
13.75
14.91
16.08
17.22
18.25
19.12
19.79
20.33
20.82
21.31
21.78
22.09
22.06
21.56
20.59
19.27
17.83
16.50
15.40
14.52
13.73
12.84
11.71
10.28
8.62
6.88
5.20
3.64
2.22
0.90
-0.40
-1.73
-3.23
-5.03
-7.28
-10.11
-13.53
-17.36
-21.24
-24.57
-26.71
-27.08
-25.37
-21.66
-16.46
-10.54
-4.72
0.41
4.54
7.67
9.96
11.57
12.60
13.10
13.16
12.95
12.69
12.58
12.74
13.15
13.73
14.35
15.00
15.69
16.47
17.35
18.26
19.05
19.56
19.66
19.30
18.55
17.55
16.47
15.41
14.43
13.46
12.40
11.14
9.64
7.94
6.16
4.44
2.89
1.58
0.47
-0.53
-1.61
-2.97
-4.87
-7.47
-10.78
-14.55
-18.22
-21.04
-22.25
-21.34
-18.25
-13.37
-7.46
-1.43
3.91
8.05
10.83
12.38
12.98
12.98
12.66
12.23
11.78
11.39
11.13
11.06
11.27
11.81
12.69
13.90
15.39
17.09
18.81
20.31
21.23
21.28
20.28
18.25
15.46
12.31
9.23
6.56
4.51
3.06
2.05
1.16
0.07
-1.48
-3.56
-6.04
-8.69
-11.23
-13.48
-15.44
-17.17
-18.82
-20.50
-22.30
-24.27
-26.35
-28.36
-29.92
-30.51
-29.60
-26.88
-22.42
-16.71
-10.49
-4.57
0.42
4.12
6.52
7.78
8.15
7.90
7.29
6.55
5.88
5.46
5.40
5.74
6.46
7.49
8.71
10.00
11.25
12.37
13.31
14.08
14.66
15.03
15.10
14.77
14.00
12.81
11.32
9.73
8.19
6.72
5.29
3.80
2.16
0.40
-1.41
-3.13
-4.65
-5.97
-7.19
-8.48
-10.01
-11.91
-14.27
-17.05
-20.14
-23.29
-26.08
-27.99
-28.50
-27.28
-24.33
-20.00
-14.88
-9.64
-4.87
-0.96
1.92
3.78
4.79
5.26
5.54
5.90
6.53
7.37
8.23
8.93
9.39
9.67
9.94
10.39
11.12
12.15
13.37
14.64
15.77
16.60
16.99
16.83
16.10
14.82
13.10
11.08
8.94
6.86
5.01
3.44
2.12
0.88
-0.45
-1.98
-3.67
-5.33
-6.75
-7.81
-8.61
-9.43
-10.68
-12.71
-15.64
-19.24
-22.98
-26.10
-27.84
-27.67
-25.45
-21.49
-16.44
-11.06
-6.01
-1.72
1.60
3.95
5.37
5.98
5.98
5.64
5.31
5.26
5.59
6.18
6.81
7.31
7.67
8.06
8.68
9.65
10.91
12.23
13.34
14.05
14.29
14.05
13.40
12.37
11.07
9.57
7.99
6.42
4.87
3.27
1.48
-0.59
-2.94
-5.45
-7.92
-10.18
-12.12
-13.78
-15.28
-16.82
-18.57
-20.72
-23.31
-26.26
-29.24
-31.69
-32.96
-32.50
-30.05
-25.78
-20.32
-14.49
-9.04
-4.46
-0.91
1.73
3.73
5.34
6.71
7.89
8.83
9.50
9.83
9.88
9.75
9.62
9.67
10.05
10.77
11.72
12.71
13.53
14.00
14.06
13.76
13.18
12.46
11.68
10.88
10.03
9.11
8.07
6.89
5.59
4.26
3.01
1.94
1.07
0.27
-0.64
-1.99
-4.01
-6.89
-10.70
-15.36
-20.70
-26.35
-31.84
-36.61
-40.10
-41.92
-41.99
-40.50
-37.87
-34.59
-31.14
-27.88
-25.13
-23.14
-22.02
-21.73
-22.06
-22.64
-23.12
-23.27
-23.15
-23.00
-23.18
-24.00
-25.59
-27.87
-30.55
-33.29
-35.79
-37.90
-39.76
-41.63
-43.87
-46.64
-49.92
-53.43
-56.70
-59.15
-60.24
-59.48
-56.59
-51.59
-44.83
-36.98
-28.84
-21.12
-14.20
-8.14
-2.86
1.66
5.19
7.31
7.55
5.55
1.21
-5.25
-13.32
-22.21
-30.95
-38.46
-43.78
-46.25
-45.63
-42.09
-36.02
-27.91
-18.29
-7.80
2.71
12.23
19.82
24.95
27.80
29.24
30.66
33.42
38.50
46.15
55.90
66.75
77.48
87.09
95.09
101.62
107.31
112.89
118.71
124.51
129.45
132.55
133.27
131.85
129.22
126.51
124.49
123.29
122.47
121.41
119.57
116.48
111.52
103.92
93.09
79.21
63.61
48.48
35.97
27.06
21.07
16.10
10.36
3.35
-3.67
-8.52
-9.54
-6.88
-2.73
-0.34
-2.52
-10.25
-22.39
-36.19
-48.59
-57.26
-61.27
-61.07
-58.01
-53.70
-49.46
-46.00
-43.33
-41.00
-38.44
-35.38
-31.96
-28.67
-25.84
-23.37
-20.65
-16.88
-11.70
-5.63
-0.12
3.10
2.85
-0.73
-6.11
-11.10
-13.72
-13.17
-9.92
-5.33
-0.84
2.60
4.70
5.57
5.31
3.84
0.91
-3.51
-8.98
-14.66
-19.55
-22.80
-24.00
-23.18
-20.69
-17.07
-12.90
-8.65
-4.57
-0.67
3.18
7.11
11.05
14.68
17.50
18.97
18.82
17.05
13.98
10.03
5.61
1.04
-3.34
-7.18
-10.07
-11.71
-12.11
-11.69
-11.11
-11.06
-11.93
-13.62
-15.55
-16.85
-16.71
-14.59
-10.45
-4.63
2.24
9.48
16.43
22.57
27.49
30.94
32.79
33.12
32.30
30.95
29.93
30.13
32.33
36.89
43.67
51.99
60.90
69.37
76.58
82.11
85.91
88.46
90.73
94.10
99.80
108.06
117.40
124.47
125.07
115.79
95.73
67.06
34.18
1.80
-26.99
-51.66
-73.77
-95.55
-118.52
-142.76
-167.00
-189.23
-207.37
-219.68
-225.04
-223.16
-214.55
-200.53
-182.98
-163.98
-145.49
-129.18
-116.21
-107.13
-101.81
-99.25
-97.85
-95.69
-91.04
-82.74
-70.54
-55.11
-37.80
-20.43
-4.75
7.96
17.27
23.53
27.67
30.73
33.41
35.96
38.28
40.34
42.51
45.56
50.35
57.32
65.93
74.63
81.31
84.03
81.97
75.69
66.81
57.25
48.39
40.59
33.42
26.17
18.31
9.76
0.74
-8.58
-18.14
-27.96
-37.79
-46.97
-54.44
-59.10
-60.14
-57.41
-51.48
-43.47
-34.87
-27.17
-21.62
-18.95
-19.12
-21.28
-23.68
-24.14
-20.60
-11.98
1.22
16.76
31.14
40.56
42.18
35.06
20.54
1.77
-17.38
-33.48
-44.37
-49.45
-49.29
-45.16
-38.52
-30.83
-23.56
-18.09
-15.56
-16.52
-20.55
-26.23
-31.53
-34.46
-33.77
-29.29
-21.90
-13.08
-4.37
3.12
8.89
12.95
15.82
18.47
22.37
29.28
40.69
57.06
77.21
98.38
117.05
130.17
136.25
135.64
130.00
121.28
110.89
99.40
86.93
73.79
60.75
48.96
39.34
32.16
26.80
22.07
16.67
9.77
1.35
-7.85
-16.51
-23.21
-26.80
-26.71
-23.07
-16.63
-8.48
0.25
8.63
16.07
22.25
27.10
30.61
32.97
34.64
36.34
39.00
43.37
49.72
57.55
65.75
72.92
77.90
80.18
79.96
77.97
75.07
71.84
68.31
63.90
57.69
48.87
37.23
23.35
8.66
-5.02
-16.09
-23.81
-28.60
-31.84
-35.19
-39.85
-45.93
-52.44
-57.76
-60.51
-60.14
-57.17
-52.92
-48.83
-45.84
-44.15
-43.32
-42.30
-39.56
-33.19
-21.56
-4.44
15.99
35.00
46.54
45.60
30.43
3.52
-29.40
-61.74
-88.61
-108.08
-120.77
-128.32
-131.95
-131.93
-128.04
-120.38
-109.84
-97.77
-85.39
-73.28
-61.45
-49.55
-37.52
-25.84
-15.41
-7.25
-2.04
0.18
-0.15
-2.26
-5.56
-9.68
