1678191593.00
64.000000
-0.00
-0.00
-0.00
-0.00
-0.00
-0.00
-0.00
-0.00
-0.00
-0.00
0.00
0.01
0.01
-0.00
-0.03
-0.05
-0.05
0.00
0.13
0.36
0.66
1.01
1.37
1.72
2.06
2.40
2.79
3.24
3.80
4.42
5.06
5.66
6.20
6.68
7.15
7.68
8.31
9.14
10.09
11.04
11.88
12.56
13.14
13.76
14.65
15.96
17.91
20.32
22.90
25.38
27.58
29.57
31.68
34.32
37.81
42.54
48.15
54.10
59.83
64.97
69.58
74.14
79.34
85.71
93.76
103.00
112.62
121.73
129.77
136.75
143.30
150.75
157.77
166.64
177.95
191.79
206.97
220.57
228.25
225.36
208.53
176.87
132.76
80.05
23.07
-34.94
-92.44
-149.16
-205.23
-260.37
-313.74
-363.87
-409.83
-450.91
-486.50
-515.74
-537.23
-549.22
-549.96
-538.37
-514.21
-478.67
-433.88
-382.45
-327.02
-269.84
-212.63
-156.66
-102.95
-52.37
-5.90
35.58
71.43
101.35
125.50
144.38
158.69
169.15
176.37
180.75
182.57
182.07
179.51
175.23
169.65
163.18
156.15
148.81
141.30
133.69
126.02
118.33
110.69
103.16
95.80
88.68
81.83
75.25
68.95
62.95
57.25
51.86
46.78
42.03
37.59
33.45
29.61
26.07
22.81
19.83
17.11
14.67
12.48
10.54
8.83
7.35
6.07
4.97
4.05
3.27
2.62
2.09
1.65
1.30
1.01
0.79
0.61
0.47
0.37
0.29
0.23
0.19
0.16
0.14
0.14
0.15
0.16
0.18
0.21
0.24
0.27
0.31
0.36
0.40
0.45
0.49
0.54
0.59
0.65
0.70
0.76
0.83
0.90
0.97
1.06
1.15
1.26
1.38
1.51
1.66
1.82
2.01
2.21
2.44
2.69
2.97
3.28
3.62
3.99
4.39
4.83
5.31
5.82
6.37
6.96
7.60
8.27
9.00
9.76
10.58
11.44
12.34
13.28
14.29
15.36
16.49
17.68
18.92
20.20
21.48
22.68
23.73
24.52
24.93
24.83
24.13
22.74
20.62
17.78
14.31
10.28
5.90
1.35
-3.16
-7.41
-11.22
-14.44
-16.94
-18.69
-19.70
-19.99
-19.66
-18.81
-17.55
-16.00
-14.26
-12.41
-10.57
-8.73
-6.92
-5.17
-3.45
-1.74
-0.01
1.77
3.59
5.45
7.35
9.40
11.50
13.68
15.98
18.43
21.03
23.75
26.53
29.40
32.46
35.55
38.73
42.08
45.66
49.48
53.40
57.31
61.14
65.05
68.82
72.58
76.56
80.85
85.40
89.92
94.00
97.36
100.12
101.99
103.16
103.94
104.36
103.94
101.55
95.48
83.46
68.07
50.27
31.14
11.78
-7.09
-25.26
-43.06
-61.20
-80.57
-101.94
-126.44
-154.14
-183.66
-212.12
-235.63
-250.46
-254.42
-247.63
-232.47
-213.07
-193.19
-175.15
-159.65
-146.27
-134.49
-124.21
-115.86
-109.99
-107.08
-106.81
-108.06
-109.14
-108.12
-103.19
-93.21
-77.96
-58.35
-36.24
-13.87
6.82
24.54
38.85
49.94
58.25
64.26
68.27
70.40
70.85
70.02
68.51
66.99
65.97
65.61
65.72
65.77
65.23
63.71
61.14
57.71
53.77
49.54
45.02
39.90
33.61
25.65
15.79
4.31
-7.98
-20.05
-31.01
-40.43
-48.41
-55.53
-62.47
-69.81
-77.93
-86.92
-96.45
-105.47
-112.08
-113.71
-107.75
-92.69
-68.90
-38.93
-6.82
23.06
47.43
64.77
75.44
81.00
83.40
84.36
85.05
86.09
87.66
89.66
91.74
93.43
94.29
93.98
92.42
89.75
86.34
82.67
79.21
76.19
73.56
70.91
67.56
62.86
56.39
48.13
38.45
27.90
17.01
6.17
-4.51
-15.02
-25.37
-35.50
-45.28
-54.61
-63.57
-72.48
-81.74
-91.54
-101.50
-110.43
-116.42
-117.37
-111.77
-99.30
-81.17
-59.75
-37.85
-17.87
-1.28
11.55
21.07
28.09
33.39
37.48
40.61
42.91
44.45
45.38
45.86
46.07
46.19
46.27
46.34
46.33
46.08
45.44
44.23
42.36
39.74
36.37
32.23
27.24
21.29
14.30
6.32
-2.35
-11.21
-19.66
-27.20
-33.59
-38.85
-43.30
-47.35
-51.53
-56.46
-62.80
-71.17
-81.67
-93.55
-104.96
-113.26
-115.64
-110.18
-96.53
-76.18
-51.95
-27.14
-4.52
14.19
28.52
38.85
45.97
50.65
53.52
54.97
55.32
54.88
53.97
52.95
52.13
51.76
51.92
52.50
53.28
53.98
54.35
54.26
53.66
52.45
50.47
47.47
43.24
37.63
30.68
22.61
13.79
4.64
-4.40
-12.91
-20.63
-27.52
-33.92
-40.51
-48.16
-57.61
-69.08
-81.97
-94.72
-105.06
-110.49
-109.01
-99.72
-83.25
-61.68
-37.94
-15.01
4.88
20.66
32.29
40.39
45.67
48.67
49.76
49.37
48.14
46.87
46.24
46.57
47.60
48.67
49.10
48.51
47.04
45.24
43.73
42.80
42.21
41.22
38.85
34.35
27.48
18.65
8.80
-0.99
-9.88
-17.52
-24.21
-30.66
-37.79
-46.37
-56.71
-68.43
-80.34
-90.49
-96.50
-96.24
-88.51
-73.57
-53.18
-30.21
-7.75
11.70
26.77
37.26
43.82
47.45
48.97
48.97
47.78
45.67
42.97
40.09
37.48
35.44
34.07
33.25
32.77
32.45
32.13
31.62
30.60
28.54
24.85
19.09
11.29
1.96
-7.98
-17.57
-26.18
-33.77
-40.97
-48.78
-58.19
-69.67
-82.69
-95.52
-105.52
-109.76
-106.01
-93.61
-73.82
-49.49
-24.18
-1.02
18.04
32.52
43.04
50.64
56.16
59.95
61.98
62.24
61.01
59.00
57.09
55.98
55.91
56.56
57.33
57.68
57.47
56.90
56.30
55.79
55.09
53.49
50.21
44.75
37.17
28.11
18.63
9.77
2.22
-3.96
-9.27
-14.53
-20.61
-28.10
-37.18
-47.42
-57.64
-65.89
-69.65
-66.27
-53.77
-31.54
-0.74
35.85
74.64
112.25
146.35
176.13
202.04
225.27
247.06
268.23
289.17
309.94
330.42
350.37
369.14
385.43
397.19
402.05
398.13
384.86
363.48
336.70
307.88
279.86
254.19
230.95
209.23
187.83
165.89
143.18
119.95
96.68
73.72
51.21
28.97
6.68
-16.12
-39.76
-64.43
-90.07
-116.43
-143.24
-170.27
-197.48
-224.95
-252.85
-281.50
-311.49
-343.79
-379.53
-419.16
-461.56
-503.41
-539.49
-564.10
-572.85
-564.10
-539.29
-501.84
-455.77
-404.44
-350.39
-295.71
-242.71
-193.88
-151.37
-116.29
-88.41
-66.62
-49.74
-37.18
-28.97
-25.37
-26.31
-31.06
-38.43
-47.04
-55.73
-63.55
-69.70
-73.50
-74.39
-72.15
-66.95
-59.38
-50.30
-40.73
-31.88
-24.99
-21.26
-21.34
-24.86
-30.08
-34.12
-33.84
-26.96
-12.99
6.63
29.10
51.38
71.22
87.55
100.28
109.71
115.97
118.87
118.22
114.18
107.53
99.53
91.56
84.66
79.28
75.28
72.19
69.54
67.10
64.95
63.36
62.60
62.65
63.20
63.69
63.51
62.28
59.93
56.67
52.82
48.54
43.73
37.99
30.87
22.08
11.68
0.15
-11.61
-22.37
-30.76
-35.53
-35.83
-31.56
-23.32
-12.24
0.49
13.97
27.67
41.21
54.11
65.54
74.52
80.17
82.12
80.62
76.45
70.53
63.66
56.39
49.09
42.08
35.69
30.20
25.74
22.13
18.98
15.73
11.88
7.16
1.61
-4.43
-10.44
-15.89
-20.44
-23.97
-26.66
-28.86
-31.01
-33.54
-36.64
-40.15
-43.51
-45.79
-45.91
-42.90
-36.29
-26.26
-13.81
-0.50
11.87
21.73
28.09
30.84
30.58
28.38
25.30
22.01
18.72
15.18
11.09
6.27
0.85
-4.78
-10.05
-14.17
-16.22
-15.13
-9.86
0.13
14.50
31.79
49.63
65.34
76.73
82.64
83.05
78.64
70.20
58.12
42.28
22.35
-1.57
-28.30
-55.35
-79.19
-96.01
-102.85
-98.29
-82.95
-59.10
-30.08
0.58
29.77
55.13
75.06
88.71
95.91
97.12
93.47
86.58
78.34
70.53
64.44
60.67
58.92
58.26
57.45
55.46
51.87
47.16
42.51
39.31
38.60
40.52
44.27
48.43
51.48
52.50
51.53
49.59
48.28
49.34
54.13
63.43
77.40
95.71
117.34
140.44
162.25
179.35
188.44
187.28
175.40
154.13
125.86
92.96
56.83
17.92
-23.50
-66.17
-107.28
-142.95
-169.63
-185.60
-191.77
-191.21
-187.74
-184.28
-182.00
-180.39
-178.26
-174.85
-170.38
-165.93
-162.71
-161.36
-161.67
-162.56
-162.51
-159.97
-153.77
-143.32
-128.73
-110.82
-90.82
-70.19
-50.18
-31.69
-15.23
-0.97
11.08
20.99
28.89
35.00
39.61
43.05
45.57
47.28
48.16
48.13
47.10
45.13
42.42
39.31
36.11
33.06
30.14
27.15
23.80
19.79
15.03
9.56
3.56
-2.83
-9.64
-16.98
-24.90
-33.17
-41.18
-47.89
-52.06
-52.52
-48.61
-40.37
-28.61
-14.67
-0.04
13.96
26.49
37.06
45.51
51.83
56.05
58.26
58.68
57.59
55.26
51.98
48.00
43.61
39.22
35.24
31.99
29.62
27.89
26.35
24.42
21.61
17.71
12.85
7.41
1.86
-3.42
-8.29
-12.96
-17.82
-23.39
-30.05
-37.85
-46.29
-54.40
-60.90
-64.51
-64.30
-60.00
-52.18
-41.94
-30.72
-19.85
-10.20
-2.18
4.24
9.28
13.28
16.44
18.81
20.38
21.07
20.82
19.66
17.75
15.33
12.75
10.37
8.47
7.13
6.20
5.29
3.92
1.71
-1.52
-5.62
-10.26
-14.97
-19.41
-23.38
-26.91
-30.19
-33.43
-36.85
-40.59
-44.61
-48.61
-51.97
-53.75
-52.97
-48.87
-41.32
-30.88
-18.79
-6.55
4.54
13.64
20.55
25.47
28.78
30.77
31.65
31.50
30.43
28.64
26.39
23.99
21.75
19.90
18.62
17.90
17.56
17.29
16.65
15.26
12.90
9.53
5.29
0.39
-4.79
-9.93
-14.71
-18.97
-22.80
-26.59
-30.96
-36.46
-43.27
-50.87
-58.03
-63.09
-64.47
-61.30
-53.66
-42.71
-30.13
-17.72
-6.79
2.08
8.96
14.34
18.75
22.59
25.95
28.73
30.74
31.90
32.22
31.83
30.92
29.61
28.03
26.29
24.55
22.99
21.68
20.48
19.03
16.88
13.66
9.40
4.52
-0.34
-4.59
-8.05
-10.98
-14.02
-17.88
-23.01
-29.33
-36.21
-42.58
-47.19
-48.98
-47.32
-42.29
-34.52
-25.11
-15.27
-5.98
2.12
8.80
14.09
18.17
21.19
23.35
24.73
25.43
25.48
24.85
23.49
21.44
18.90
16.25
13.96
12.38
11.59
11.30
10.93
9.88
7.77
4.54
0.54
-3.75
-7.87
-11.52
-14.68
-17.57
-20.60
-24.13
-28.42
-33.46
-38.85
-43.82
-47.36
-48.50
-46.56
-41.41
-33.51
-23.82
-13.52
-3.79
4.49
10.85
15.22
17.88
19.33
20.14
20.72
21.25
21.66
21.70
21.13
19.93
18.33
16.74
15.57
14.98
14.85
14.77
14.30
13.13
11.24
8.80
6.07
3.30
0.60
-1.97
-4.37
-6.61
-8.86
-11.41
-14.70
-19.08
-24.51
-30.48
-35.85
-39.26
-39.49
-35.98
-29.02
-19.71
-9.67
-0.42
6.97
12.22
15.62
17.86
19.46
20.61
21.09
20.53
18.73
15.78
12.14
8.40
5.10
2.48
0.52
-0.98
-2.34
-3.82
-5.64
-7.96
-10.85
-14.31
-18.20
-22.25
-26.16
-29.67
-32.73
-35.53
-38.50
-42.05
-46.40
-51.24
-55.73
-58.67
-58.90
-55.63
-48.79
-39.03
-27.48
-15.48
-4.19
5.59
13.55
19.72
24.36
27.77
30.14
31.59
32.16
31.92
31.04
29.73
28.28
26.96
25.97
25.31
24.90
24.47
23.69
22.27
19.99
16.79
12.82
8.35
3.78
-0.59
-4.57
-8.21
-11.80
-15.78
-20.61
-26.58
-33.53
-40.70
-46.83
-50.39
-50.08
-45.39
-36.84
-25.95
-14.74
-5.04
2.12
6.80
9.89
12.54
15.62
19.31
23.15
26.40
28.43
29.01
28.41
27.20
26.03
25.42
25.69
26.94
29.03
31.60
34.06
35.66
35.68
33.61
29.39
23.40
16.43
9.40
3.16
-1.83
-5.65
-8.92
-12.56
-17.42
-23.80
-31.22
-38.43
-43.83
-45.91
-43.86
-37.72
-28.36
-17.11
-5.40
5.61
15.21
23.10
29.39
34.33
38.24
41.32
43.66
45.19
45.83
45.55
44.38
42.45
39.93
37.06
34.12
31.30
28.68
26.18
23.58
20.62
17.22
13.46
9.59
5.88
2.40
-0.94
-4.42
-8.59
-13.86
-20.22
-27.13
-33.69
-38.77
-41.27
-40.33
-35.52
-27.36
-17.02
-5.83
5.12
15.06
23.54
30.38
35.57
39.31
41.24
41.17
39.51
37.21
35.37
34.77
35.79
38.33
42.26
45.32
45.59
42.70
38.10
33.95
31.91
32.69
36.10
41.97
45.86
44.11
36.08
24.63
13.88
7.10
6.45
12.85
27.81
44.97
57.52
61.49
56.92
45.46
28.38
6.68
-19.05
-45.99
-81.05
-131.10
-198.65
-280.64
-371.96
-468.90
-569.48
-673.54
-732.08
-713.13
-617.89
-481.30
-343.16
-226.19
-136.12
-70.21
-36.94
-24.84
-32.73
-59.36
-98.20
-137.74
-167.80
-185.30
-184.40
-170.31
-148.79
-132.54
-129.94
-141.52
-160.93
-180.22
-193.95
-199.76
-198.41
-188.76
-174.91
-160.47
-146.90
-133.20
-117.79
-99.83
-79.01
-56.16
-30.28
-3.00
23.97
49.71
74.15
97.40
119.27
139.54
157.53
173.70
187.58
198.58
206.33
210.68
211.75
209.90
205.89
200.56
195.20
190.73
187.52
185.26
183.24
180.72
177.43
173.82
170.79
169.45
170.73
174.86
181.55
190.13
200.06
211.22
224.08
239.50
258.60
282.64
312.68
349.04
390.38
433.09
471.41
498.73
509.75
502.52
479.28
445.68
408.66
374.26
346.24
326.04
313.56
307.93
307.84
311.21
314.88
314.75
306.78
288.22
258.67
220.37
177.65
135.62
98.69
69.31
47.52
31.26
17.50
3.55
-11.94
-28.65
-45.32
-60.57
-73.88
-86.03
-98.81
-114.58
-135.91
-165.40
-205.19
-256.10
-316.35
-380.73
-441.18
-488.90
-517.52
-525.48
-516.66
-498.44
-478.60
-462.36
-451.34
-444.32
-439.18
-434.48
-429.77
-424.92
-419.15
-410.76
-397.73
-378.78
-354.18
-325.70
-296.15
-268.17
-243.27
-221.47
-201.47
-181.44
-159.93
-136.54
-112.02
-87.92
-65.73
-46.13
-28.69
-11.96
5.83
26.07
49.09
74.14
99.70
124.23
146.75
167.24
186.53
205.86
226.57
249.82
276.35
306.09
337.73
368.35
393.77
409.54
412.49
401.96
380.11
351.04
319.25
288.03
258.83
231.69
206.29
182.92
162.70
146.99
136.48
130.70
128.02
126.48
124.58
121.74
118.43
115.47
113.44
112.22
111.01
108.82
105.07
99.95
94.42
89.82
87.25
87.16
89.15
92.20
95.06
96.77
96.82
95.16
92.07
87.91
82.90
77.10
70.31
62.03
51.42
37.35
18.75
-4.81
-32.52
-62.08
-89.97
-112.48
-127.00
-133.05
-132.46
-128.59
-124.93
-123.62
-124.81
-126.85
-127.30
-123.97
-115.66
-102.13
-83.72
-60.86
-34.08
-4.23
27.06
57.24
83.31
102.58
113.61
116.65
113.52
106.85
99.01
91.47
84.37
76.84
67.51
55.14
39.08
19.58
-2.28
-24.83
-46.27
-65.16
-80.70
-92.79
-101.78
-108.23
-112.79
-116.09
-118.82
-121.55
-124.59
-127.71
-130.24
-131.49
-131.32
-130.51
-130.58
-133.10
-138.86
-147.42
-157.27
-166.49
-173.61
-178.03
-179.98
-180.05
-178.76
-176.31
-172.43
-166.50
-157.58
-144.67
-127.35
-106.49
-84.75
-66.09
-54.36
-51.54
-56.52
-65.30
-72.61
-73.90
-67.00
-52.35
-32.21
-9.43
13.46
34.49
52.16
65.34
73.41
76.44
75.13
70.56
63.83
55.91
47.71
40.21
34.37
30.68
28.92
28.11
27.04
24.94
22.01
19.46
18.83
21.15
26.42
33.66
41.37
48.32
53.80
57.55
59.40
58.95
55.72
49.65
41.64
33.75
28.82
29.55
37.57
52.75
73.29
96.37
119.16
139.54
156.48
169.90
180.31
188.81
197.01
206.93
220.35
237.69
257.04
273.89
282.15
276.04
252.24
211.24
157.28
97.09
37.96
-14.04
-55.11
-84.04
-101.87
-111.17
-115.19
-117.10
-119.37
-123.61
-130.47
-139.69
-150.07
-159.44
-164.97
-163.79
-154.07
-135.77
-110.84
-82.57
-54.57
-29.56
-8.88
7.46
20.17
29.95
37.13
41.64
43.38
42.55
39.84
36.33
33.14
31.02
30.14
30.05
30.02
29.39
27.83
25.42
22.46
19.25
15.86
12.02
7.28
1.07
-7.07
-17.27
-29.14
-41.60
-52.95
-61.15
-64.39
-61.69
-53.24
-40.42
-25.27
-9.94
4.00
15.72
25.02
32.03
36.79
39.29
39.51
37.71
34.55
30.99
27.97
26.09
25.42
25.47
25.54
25.00
23.66
21.76
19.83
18.37
17.53
17.05
16.30
14.58
11.40
6.73
1.15
-4.17
-7.57
-7.33
-1.96
9.27
26.20
47.80
72.55
98.84
125.27
150.75
174.36
195.15
212.03
223.96
230.25
230.92
226.91
219.95
212.26
205.98
202.67
203.00
206.57
212.03
217.48
220.88
220.55
215.53
205.68
191.67
174.64
155.93
136.77
118.20
101.01
85.79
72.89
62.31
53.60
45.91
38.26
29.79
20.18
9.69
-0.97
-10.99
-20.00
-28.28
-36.69
-46.43
-58.44
-73.03
-89.74
-107.62
-125.68
-143.33
-160.63
-178.20
-196.92
-217.73
-241.50
-268.88
-299.91
-333.45
-366.80
-395.88
-416.30
-424.80
-420.60
-405.77
-384.30
-360.56
-337.70
-317.07
-298.72
-282.34
-268.10
-256.58
-248.04
-241.60
-235.03
-225.41
-210.43
-189.36
-163.45
-135.50
-108.59
-85.04
-65.72
-50.17
-37.15
-25.46
-14.53
-4.57
3.66
9.35
12.14
12.39
11.30
10.43
11.24
14.46
19.76
25.93
31.27
34.39
34.70
32.62
29.37
26.52
25.38
26.68
30.39
35.85
42.01
47.68
51.72
53.12
51.08
45.05
34.84
20.68
3.24
-16.41
-37.24
-58.60
-80.22
-101.64
-121.47
-137.03
-145.09
-143.68
-133.83
-120.10
-109.09
-106.38
-113.81
-128.47
-144.28
-155.16
-157.94
-153.36
-144.82
-136.03
-128.93
-123.13
-116.75
-108.29
-97.78
-87.10
-78.98
-75.59
-77.17
-81.84
-86.62
-89.11
-88.83
-87.59
-88.52
-94.09
-104.67
-118.12
-130.82
-139.53
-142.70
-140.78
-135.30
-127.55
-117.80
-105.38
-89.34
-69.27
-45.90
-20.77
4.17
27.33
47.87
65.70
81.22
94.86
106.80
116.91
124.85
130.19
132.57
131.72
127.52
120.05
109.68
97.05
83.06
68.70
54.87
42.21
31.01
21.34
13.33
7.28
3.85
3.82
7.80
15.87
27.32
40.86
54.91
68.32
80.80
93.07
106.48
122.31
141.13
162.28
184.27
205.17
223.58
239.07
252.37
265.05
279.24
297.24
320.91
350.57
383.79
414.80
435.42
437.62
416.69
373.41
314.02
247.80
183.57
127.00
79.93
41.56
10.46
-14.18
-32.50
-44.91
-52.94
-59.35
-67.36
-79.74
-98.12
-122.81
-152.46
-184.09
-212.94
-233.13
-238.90
-226.30
-194.64
-146.57
-87.09
-21.92
43.82
106.04
161.17
205.64
235.92
249.22
244.67
223.92
190.91
150.81
108.76
69.00
34.55
7.18
-12.59
-25.55
-33.66
-39.50
-45.34
-52.34
-60.20
-67.61
-73.05
-75.60
-75.18
-72.47
-68.28
-63.11
-56.87
-48.90
-38.34
-24.62
-7.99
10.32
28.07
42.64
51.81
54.49
51.13
43.45
33.72
23.80
14.57
5.92
-2.72
-11.71
-20.71
-28.80
-34.89
-38.41
-39.69
-39.89
-40.55
-42.81
-46.97
-52.29
-57.44
-61.15
-62.84
-62.86
-62.35
-62.75
-65.30
-70.76
-79.22
-90.06
-101.81
-112.10
-117.92
-116.28
-105.25
-84.89
-57.47
-26.97
2.27
26.90
45.40
58.07
66.25
71.35
74.21
75.02
73.66
70.16
64.97
58.93
53.00
48.02
44.40
42.12
40.72
39.57
38.05
35.80
32.75
29.09
25.03
20.62
15.72
10.01
3.14
-5.08
-14.78
-25.99
-38.52
-51.68
-63.95
-73.02
-76.13
-71.04
-56.94
-35.00
-8.18
19.60
44.65
64.45
77.94
85.39
87.79
86.35
82.21
76.31
69.40
62.08
54.70
47.43
40.38
33.74
27.87
23.26
20.33
19.22
19.56
20.49
20.89
19.67
16.19
10.27
2.29
-7.14
-17.32
-27.75
-38.18
-48.68
-59.65
-71.53
-84.40
-97.47
-108.86
-115.81
-115.49
-106.08
-87.60
-62.13
-33.21
-4.83
19.74
38.57
51.23
58.31
60.92
60.21
57.17
52.64
47.39
42.04
37.13
32.99
29.71
27.14
24.97
22.90
20.67
18.16
15.27
11.99
8.27
4.13
-0.42
-5.33
-10.64
-16.38
-22.67
-29.57
-37.24
-45.91
-55.82
-66.98
-78.62
-88.97
-95.35
-94.90
-85.78
-67.98
-43.70
-16.68
9.02
30.28
45.62
55.16
59.95
61.22
59.89
56.47
51.34
44.98
38.08
31.52
26.11
22.40
20.49
20.01
20.16
20.03
18.82
16.14
12.07
7.06
1.65
-3.76
-9.11
-14.63
-20.69
-27.70
-36.00
-45.81
-57.08
-69.18
-80.63
-89.10
-91.90
-86.90
-73.44
-52.83
-28.08
-2.98
19.14
36.21
47.64
53.96
56.10
54.89
50.89
44.57
36.56
27.79
19.41
12.55
8.01
6.00
6.03
7.08
7.90
7.43
5.15
1.21
-3.79
-9.13
-14.37
-19.48
-24.77
-30.62
-37.41
-45.39
-54.75
-65.49
-77.09
-88.18
-96.49
-99.34
-94.45
-80.99
-59.97
-34.06
-6.76
18.65
39.85
55.73
66.25
71.98
73.74
72.40
68.78
63.59
57.47
50.98
44.56
38.63
33.40
28.89
24.83
20.77
16.23
10.96
5.05
-1.10
-6.96
-12.15
-16.63
-20.76
-25.17
-30.61
-37.75
-47.09
-58.73
-72.16
-86.00
-97.96
-105.21
-105.15
-96.24
-78.70
-54.52
-26.94
0.48
24.80
44.18
58.03
66.65
70.83
71.48
69.45
65.41
59.92
53.47
46.51
39.58
33.25
28.04
24.26
21.83
20.33
19.06
17.31
14.56
10.63
5.66
-0.07
-6.23
-12.67
-19.33
-26.36
-34.02
-42.68
-52.67
-64.03
-76.16
-87.56
-95.95
-98.74
-93.87
-80.55
-59.66
-33.59
-5.58
21.10
43.86
61.17
72.58
78.44
79.64
77.30
72.60
66.63
60.25
54.08
48.45
43.49
39.18
35.43
32.14
29.20
26.46
23.70
20.54
16.55
11.32
4.71
-3.09
-11.54
-19.94
-27.66
-34.38
-40.17
-45.51
-51.19
-58.10
-66.82
-77.26
-88.25
-97.52
-102.21
-99.78
-88.94
-70.29
-46.17
-19.97
4.93
25.96
41.74
51.99
57.19
58.22
56.14
52.03
46.83
41.21
35.54
29.92
24.49
19.52
15.42
12.58
11.10
10.55
10.02
8.31
4.41
-2.15
-11.08
-21.34
-31.67
-41.00
-48.97
-56.07
-63.33
-71.80
-82.02
-93.97
-106.99
-120.09
-131.99
-141.01
-144.99
-141.75
-129.95
-110.02
-84.51
-57.26
-31.73
-9.40
10.75
31.29
54.41
80.18
106.27
128.97
145.32
154.65
158.87
160.98
162.76
163.03
157.66
141.71
112.55
72.35
28.39
-8.99
-30.03
-29.11
-6.16
34.08
84.50
138.10
189.26
233.80
268.28
289.82
296.68
289.04
269.40
241.97
211.32
181.11
153.37
128.61
106.36
85.88
66.33
46.80
26.11
2.62
-25.80
-61.56
-106.58
-160.94
-221.63
-282.04
-333.25
-366.64
-376.94
-364.30
-333.94
-293.78
-251.13
-210.28
-171.86
-133.99
-94.24
-51.13
-4.85
42.86
89.17
130.72
164.25
187.27
198.82
199.71
192.15
179.07
163.30
147.04
131.79
118.42
107.22
97.72
88.70
78.35
65.07
48.26
28.89
9.36
-7.31
-18.62
-23.61
-23.19
-19.72
-16.01
-14.29
-15.51
-19.30
-24.54
-30.07
-35.25
-40.14
-45.20
-50.89
-57.29
-64.04
-70.49
-76.02
-80.23
-83.06
-84.75
-85.70
-86.37
-87.18
-88.51
-90.72
-94.13
-98.95
-105.14
-112.27
-119.33
-124.83
-127.19
-125.24
-118.69
-108.42
-96.09
-83.56
-72.27
-62.75
-54.76
-47.71
-41.12
-34.78
-28.66
-22.55
-15.87
-7.90
1.79
12.83
23.98
33.46
39.69
41.92
40.56
36.94
32.66
29.01
26.40
24.41
21.96
17.84
11.07
1.26
-11.13
-24.71
-37.29
-46.32
-49.49
-45.54
-34.77
-19.09
-1.59
14.41
26.19
32.34
32.81
28.62
21.18
11.88
1.84
-8.11
-17.27
-25.06
-31.02
-35.01
-37.23
-38.21
-38.55
-38.64
-38.37
-37.06
-33.80
-27.97
-19.88
-11.06
-4.05
-1.67
-6.09
-17.87
-35.52
-55.72
-73.97
-85.75
-87.61
-78.10
-58.17
-30.88
-0.55
28.43
52.67
70.46
81.70
87.32
88.58
86.60
82.15
75.94
68.73
61.36
54.59
48.78
43.76
38.98
33.83
28.05
21.87
15.93
10.85
6.88
3.61
0.05
-5.09
-12.92
-23.91
-37.48
-51.87
-64.29
-71.51
-70.77
-60.75
-42.21
-17.90
8.21
32.21
51.37
64.65
72.51
76.06
76.36
74.04
69.36
62.76
55.09
47.57
41.36
36.94
33.95
31.27
27.70
22.56
16.06
9.17
3.09
-1.44
-4.54
-7.31
-11.38
-18.37
-29.21
-43.66
-60.05
-75.50
-86.52
-89.93
-83.91
-68.78
-47.03
-22.62
0.24
18.41
30.53
37.02
39.31
38.90
36.72
33.05
27.84
21.24
13.88
6.77
0.81
-3.58
-6.75
-9.62
-13.26
-18.41
-25.17
-33.09
-41.32
-49.13
-56.14
-62.60
-69.33
-77.68
-89.17
-104.92
-124.75
-146.59
-166.29
-178.56
-178.42
-162.84
-131.53
-86.92
-33.24
24.41
80.87
131.48
172.58
201.90
218.99
225.10
222.55
213.78
200.54
183.80
164.17
142.49
120.02
97.95
76.81
56.22
35.19
12.92
-10.53
-34.07
-55.93
-74.27
-87.75
-95.89
-99.14
-98.85
-96.96
-95.67
-96.93
-101.93
-110.50
-120.91
-130.08
-134.21
-129.79
-114.59
-88.44
-53.36
-13.12
27.76
65.09
95.88
118.81
134.00
142.62
146.18
146.03
143.21
138.41
132.12
124.76
116.70
108.22
99.45
90.35
80.92
71.37
62.16
53.86
46.80
40.85
35.24
28.91
20.96
11.15
0.13
-10.78
-20.10
-26.84
-30.96
-33.50
-36.18
-40.80
-48.37
-58.50
-69.12
-76.83
-77.84
-69.23
-50.08
-22.04
11.05
44.33
73.43
95.62
110.21
118.06
120.70
119.48
115.24
108.38
99.19
87.99
75.22
61.29
46.68
32.02
18.29
6.71
-1.58
-6.09
-7.25
-6.30
-4.86
-4.32
-5.52
-8.79
-14.18
-21.59
-30.79
-41.20
-51.79
-61.32
-68.69
-73.43
-76.00
-77.70
-80.17
-84.83
-92.25
-101.75
-111.40
-118.49
-120.29
-115.12
-103.06
-86.18
-67.91
-51.91
-40.81
-35.55
-35.35
-38.53
-43.47
-49.29
-55.94
-63.64
-72.29
-81.00
-88.33
-92.82
-93.73
-91.32
-86.69
-81.20
-75.74
-70.42
-64.63
-57.67
-49.10
-39.07
-27.97
-16.12
-3.64
9.04
20.44
27.69
27.06
15.70
-6.68
-36.83
-68.55
-94.97
-110.93
-114.44
-106.36
-88.97
-64.33
-33.96
0.37
35.44
66.18
86.98
93.88
86.49
68.43
45.83
24.83
9.19
-0.50
-6.15
-10.43
-15.09
-20.33
-25.07
-27.98
-28.46
-26.99
-24.82
-23.29
-23.10
-24.17
-25.91
-27.73
-29.54
-31.76
-35.11
-40.06
-46.71
-54.66
-63.47
-72.92
-83.09
-94.20
-106.14
-118.06
-128.29
-134.77
-135.68
-130.14
-118.40
-101.59
-81.11
-58.05
-33.05
-6.61
20.30
46.01
68.27
84.92
94.66
97.53
94.91
88.93
81.86
75.45
70.59
67.35
65.15
63.09
60.38
56.54
51.51
45.49
38.67
31.10
22.71
13.49
3.59
-6.76
-17.39
-28.30
-39.51
-50.51
-60.08
-66.15
-66.45
-59.30
-44.26
-22.20
5.26
36.28
69.20
102.26
133.32
159.66
178.60
188.38
189.01
182.30
171.07
157.96
144.43
130.61
115.98
100.28
84.10
68.76
55.64
45.43
37.80
31.68
25.83
19.46
12.48
5.44
-0.97
-6.32
-10.70
-14.73
-19.21
-24.70
-31.05
-37.22
-41.41
-41.52
-35.80
-23.50
-5.12
17.67
42.46
66.62
87.75
103.96
113.87
116.59
111.82
99.94
81.98
59.64
34.92
9.71
-14.50
-36.71
-56.32
-73.09
-87.13
-98.97
-109.41
-119.27
-128.92
-138.03
-145.67
-150.75
-152.63
-151.43
-147.71
-141.96
-133.97
-122.82
-107.35
-86.93
-61.95
-33.76
-4.14
25.30
53.48
79.79
103.83
125.05
142.55
155.32
162.49
163.72
159.41
150.66
139.16
126.85
115.60
106.95
101.94
101.01
104.01
110.33
119.06
129.14
139.47
148.86
156.12
160.03
159.47
153.54
141.75
124.11
101.32
74.96
47.60
22.51
3.02
-8.30
-10.50
-4.50
7.30
21.98
37.06
50.97
62.92
72.31
78.29
79.78
75.94
66.83
53.74
39.01
25.28
14.63
7.99
4.98
4.37
4.72
4.99
4.82
4.37
4.02
3.93
3.89
3.36
1.66
-1.66
-6.48
-11.91
-16.14
-16.79
-11.33
2.10
23.95
52.80
85.51
118.01
146.29
167.41
180.01
184.09
180.49
170.35
154.68
134.49
110.96
85.65
60.34
36.68
15.76
-1.94
-16.28
-26.90
-32.87
-32.91
-26.05
-12.67
5.11
23.81
39.94
51.27
57.45
59.60
59.47
58.77
59.01
61.87
69.27
82.85
102.98
127.77
153.12
173.87
185.64
186.36
176.63
158.94
136.30
111.03
84.48
57.21
29.47
1.50
-26.61
-55.08
-84.62
-116.31
-150.76
-187.34
-223.61
-255.65
-279.36
-292.03
-293.66
-287.11
-277.00
-267.74
-261.87
-259.14
-257.06
-252.28
-242.03
-225.22
-202.50
-175.84
-147.75
-120.58
-96.20
-75.77
-59.81
-48.32
-40.88
-36.74
-34.95
-34.43
-34.05
-32.83
-30.00
-25.18
-18.37
-9.90
-0.37
9.53
19.17
28.19
36.48
44.27
51.93
59.85
68.43
77.90
88.15
98.61
108.09
114.91
117.35
114.25
105.57
92.56
77.37
62.29
48.74
36.78
25.03
11.40
-6.05
-28.17
-54.30
-82.40
-109.74
-133.76
-152.95
-167.23
-177.70
-186.08
-193.82
-201.68
-209.63
-217.17
-223.88
-229.64
-234.70
-239.32
-243.41
-246.14
-246.02
-241.16
-229.91
-211.45
-186.24
-156.03
-123.39
-91.07
-61.31
-35.42
-13.82
3.56
16.94
26.41
32.02
34.11
33.50
31.52
29.65
29.04
30.03
32.14
34.36
35.76
35.82
34.68
32.87
30.94
29.04
26.86
23.72
18.90
11.97
3.04
-7.14
-17.19
-25.31
-29.70
-29.03
-22.94
-12.21
1.46
15.95
29.31
40.28
48.33
53.53
56.20
56.69
55.29
52.32
48.23
43.62
39.14
35.27
32.21
29.79
27.64
25.38
22.80
19.95
17.09
14.46
12.09
9.71
6.74
2.48
-3.63
-11.72
-21.17
-30.54
-37.89
-41.14
-38.86
-30.78
-17.86
-2.11
14.12
28.78
40.61
49.13
54.47
56.98
56.98
54.75
50.64
45.21
39.23
33.62
29.14
26.13
24.39
23.22
21.73
19.34
15.95
12.00
8.16
4.86
2.03
-0.94
-4.94
-10.73
-18.64
-28.31
-38.74
-48.37
-55.32
-57.75
-54.32
-44.70
-29.79
-11.56
7.45
24.85
39.03
49.36
56.08
59.82
61.21
60.64
58.33
54.52
49.67
44.42
39.49
35.38
32.22
29.75
27.44
24.75
21.37
17.31
12.84
8.32
4.01
-0.11
-4.29
-8.98
-14.64
-21.59
-29.89
-39.28
-49.10
-58.23
-65.18
-68.32
-66.25
-58.26
-44.70
-27.02
-7.40
11.76
28.51
41.76
51.25
57.32
60.51
61.24
59.75
56.28
51.22
45.22
39.12
33.76
29.68
27.03
25.48
24.43
23.17
21.04
17.67
12.97
7.19
0.74
-5.94
-12.57
-19.09
-25.60
-32.35
-39.58
-47.58
-56.46
-66.14
-76.09
-85.18
-91.65
-93.53
-89.17
-77.91
-60.46
-38.79
-15.59
6.53
25.66
40.91
52.26
60.18
65.20
67.71
67.98
66.31
63.21
59.37
55.46
51.92
48.82
45.92
42.88
39.54
35.96
32.36
28.92
25.54
21.82
17.24
11.36
4.10
-4.18
-12.81
-21.06
-28.43
-34.85
-40.80
-47.10
-54.64
-63.95
-74.74
-85.80
-95.12
-100.45
-99.86
-92.36
-78.19
-58.66
-35.87
-12.09
10.69
31.04
48.18
61.86
72.12
79.13
83.11
84.30
83.17
80.36
76.75
73.19
70.31
68.34
67.06
65.96
64.42
61.98
58.40
53.81
48.44
42.59
36.50
30.23
23.74
16.97
9.93
2.74
-4.39
-11.20
-17.49
-23.20
-28.40
-33.36
-38.49
-44.31
-51.26
-59.53
-68.77
-77.96
-85.47
-89.40
-88.09
-80.67
-67.35
-49.39
-28.79
-7.71
11.93
28.79
42.18
51.92
58.26
61.66
62.78
62.30
60.83
58.87
56.76
54.73
52.88
51.27
49.87
48.55
47.14
45.48
43.47
41.09
38.41
35.41
32.06
28.27
23.96
19.16
14.01
8.78
3.75
-0.85
-4.88
-8.35
-11.43
-14.40
-17.66
-21.56
-26.43
-32.38
-39.31
-46.72
-53.65
-58.74
-60.45
-57.40
-48.85
-35.00
-17.02
3.18
23.52
42.14
57.89
70.31
79.65
86.44
91.22
94.30
95.67
95.16
92.71
88.66
83.79
79.08
75.33
72.84
71.36
70.31
69.13
67.51
65.32
62.42
58.48
53.02
45.71
36.68
26.64
16.72
7.98
1.01
-4.22
-8.30
-12.00
-16.06
-21.02
-27.29
-35.21
-44.99
-56.49
-68.99
-81.04
-90.67
-95.93
-95.43
-88.97
-77.65
-63.62
-49.37
-37.00
-27.69
-21.66
-18.45
-17.34
-17.77
-19.37
-21.86
-24.85
-27.80
-30.07
-31.12
-30.78
-29.22
-27.00
-24.76
-23.09
-22.28
-22.28
-22.82
-23.53
-24.25
-25.06
-26.28
-28.24
-31.06
-34.51
-38.16
-41.53
-44.35
-46.66
-48.86
-51.49
-55.14
-60.18
-66.61
-73.80
-80.47
-84.89
-85.29
-80.51
-70.52
-56.45
-40.32
-24.34
-10.26
0.94
9.08
14.54
17.88
19.66
20.33
20.33
20.05
19.86
20.03
20.60
21.45
22.29
22.86
23.03
22.92
22.79
23.01
23.74
24.85
25.84
25.94
24.48
21.05
15.81
9.43
2.92
-2.67
-6.69
-8.98
-10.05
-10.81
-12.39
-15.76
-21.42
-29.17
-37.94
-45.91
-50.87
-50.94
-45.17
-33.95
-19.03
-2.97
11.64
22.83
29.71
32.50
32.28
30.53
28.68
27.65
27.57
27.77
27.08
24.48
19.72
13.63
7.82
4.01
3.12
4.73
7.24
8.47
6.48
0.20
-10.23
-23.39
-36.46
-45.35
-45.12
-31.20
-1.25
43.11
95.72
147.14
187.72
211.13
216.50
208.22
193.25
177.81
165.18
155.56
147.76
141.09
136.27
134.51
136.00
138.69
138.40
130.55
112.33
84.19
49.88
14.95
-15.50
-38.62
-54.56
-65.74
-75.20
-85.02
-95.29
-104.44
-110.32
-111.72
-109.03
-104.10
-99.21
-95.91
-94.42
-93.74
-92.40
-89.20
-83.72
-76.46
-68.49
-61.07
-55.11
-50.98
-48.33
-46.35
-44.12
-41.11
-37.36
-33.24
-28.95
-23.91
-16.74
-5.91
9.06
26.78
43.87
56.15
60.10
54.13
38.71
15.54
-13.33
-45.91
-79.83
-111.74
-137.37
-152.62
-155.33
-146.45
-129.97
-111.35
-95.34
-84.24
-77.69
-73.67
-70.04
-65.79
-61.15
-57.09
-54.40
-53.18
-52.84
-52.67
-52.31
-52.04
-52.78
-55.52
-61.03
-69.49
-80.52
-93.19
-105.96
-116.67
-122.79
-121.95
-112.75
-95.51
-72.43
-47.07
-23.19
-3.63
10.36
18.98
23.19
23.99
21.99
17.48
10.85
2.92
-4.99
-11.44
-15.22
-15.83
-13.57
-9.40
-4.55
-0.16
2.99
4.64
4.86
4.03
2.60
0.93
-0.73
-2.37
-4.20
-6.64
-10.22
-15.55
-23.07
-32.71
-43.49
-53.13
-58.32
-55.47
-42.10
-18.05
14.02
49.19
81.84
107.45
123.75
130.96
130.91
125.89
117.73
107.59
96.23
84.39
73.00
63.06
55.30
49.98
46.83
45.19
44.21
43.08
41.08
37.70
32.64
25.79
17.31
7.60
-2.75
-13.08
-22.74
-31.36
-39.00
-46.24
-54.14
-64.04
-76.97
-92.89
-110.19
-125.53
-134.62
-133.64
-120.77
-97.20
-67.04
-35.96
-9.30
9.58
20.07
23.71
23.07
20.52
17.58
14.98
13.10
12.40
13.45
16.76
22.39
29.88
38.28
46.53
53.79
59.70
64.37
68.20
71.55
74.53
76.94
78.47
78.89
78.25
76.81
74.81
72.21
68.62
63.48
56.64
48.77
41.56
37.36
38.40
45.93
59.64
77.68
97.22
115.39
130.01
140.12
145.85
147.88
146.80
142.78
135.49
124.54
110.03
92.82
74.54
57.10
42.11
30.39
21.83
15.56
10.48
5.59
0.32
-5.52
-11.81
-18.36
-24.98
-31.54
-37.98
-44.33
-50.68
-57.27
-64.45
-72.50
-81.45
-90.61
-98.46
-102.78
-101.24
-92.28
-75.91
-53.97
-29.75
-7.01
11.21
23.42
29.78
31.66
30.78
28.48
25.53
22.12
18.36
14.41
10.65
7.45
4.96
3.04
1.34
-0.47
-2.42
-4.27
-5.66
-6.47
-6.99
-7.91
-10.05
-13.93
-19.40
-25.63
-31.44
-35.86
-38.47
-39.67
-40.55
-42.46
-46.59
-53.47
-62.62
-72.38
-80.09
-82.65
-77.50
-63.65
-42.23
-16.41
9.60
31.88
48.01
57.49
61.39
61.47
59.29
55.75
51.16
45.61
39.29
32.65
26.15
20.00
13.97
7.40
-0.42
-9.85
-20.56
-31.53
-41.36
-48.88
-53.63
-56.14
-57.62
-59.48
-62.68
-67.40
-73.00
-78.48
-82.90
-85.80
-87.32
-88.13
-89.11
-91.14
-94.81
-100.17
-106.50
-112.15
-114.74
-111.68
-101.01
-82.19
-56.53
-26.92
3.01
29.91
51.61
67.37
77.58
83.25
85.41
84.91
82.46
78.77
74.68
71.02
68.42
67.10
66.80
66.90
66.67
65.62
63.64
60.99
58.12
55.39
52.94
50.51
47.67
43.91
38.96
32.92
26.24
19.67
13.91
9.41
6.14
3.66
1.23
-1.83
-6.06
-11.73
-18.76
-26.58
-34.06
-39.51
-41.01
-36.99
-26.92
-11.68
6.56
24.97
40.94
52.83
60.18
63.52
63.80
61.95
58.64
54.27
49.22
44.00
39.25
35.55
33.13
31.71
30.48
28.52
25.25
20.71
15.64
11.10
7.87
6.07
5.04
3.59
0.59
-4.56
-11.63
-19.69
-27.47
-33.91
-38.49
-41.42
-43.50
-45.80
-49.34
-54.83
-62.48
-71.75
-81.20
-88.53
-90.91
-85.90
-72.35
-51.18
-25.30
1.20
24.40
41.76
52.57
57.71
58.80
57.39
54.56
50.90
46.80
42.63
38.82
35.64
33.07
30.85
28.59
25.96
22.89
19.61
16.50
13.94
11.99
10.29
8.11
4.60
-0.73
-7.74
-15.58
-23.04
-29.01
-33.03
-35.46
-37.45
-40.45
-45.73
-53.84
-64.22
-75.04
-83.43
-86.19
-80.83
-66.60
-45.03
-19.67
5.05
25.30
38.94
45.92
47.64
45.97
42.32
37.33
31.11
23.84
16.12
8.94
3.32
-0.23
-1.90
-2.55
-3.19
-4.57
-6.83
-9.56
-12.07
-13.88
-15.07
-16.25
-18.31
-22.01
-27.55
-34.44
-41.73
-48.35
-53.53
-57.07
-59.33
-61.16
-63.69
-68.01
-74.86
-84.09
-94.29
-102.73
-105.95
-100.95
-86.48
-63.85
-36.71
-9.85
12.51
28.07
36.93
40.93
42.47
43.33
44.02
44.03
42.36
38.31
32.02
24.56
17.64
13.09
12.24
15.63
22.93
33.09
44.63
55.86
65.12
71.10
73.32
72.69
71.59
73.16
79.83
91.86
106.75
119.94
126.63
123.76
110.98
90.19
64.11
34.71
2.58
-32.41
-69.74
-107.19
-140.68
-165.36
-177.20
-174.37
-157.80
-130.70
-97.51
-62.70
-29.77
-0.89
23.12
42.36
57.53
69.41
78.67
85.66
90.40
92.80
92.92
91.14
88.24
84.96
81.71
78.20
73.59
66.91
57.66
46.07
33.02
19.46
5.86
-7.97
-22.61
-38.51
-55.40
-72.23
-87.56
-100.14
-109.51
-116.16
-121.36
-126.76
-133.88
-143.81
-157.00
-173.27
-191.63
-210.26
-226.44
-236.88
-238.17
-227.62
-204.07
-168.41
-123.58
-73.95
-24.35
20.89
58.60
86.85
104.94
113.17
112.86
106.29
96.52
86.82
80.02
77.91
81.16
89.50
101.97
117.00
132.26
144.73
151.14
149.09
138.12
120.18
99.11
79.23
63.97
54.94
52.00
53.78
58.36
63.61
67.40
67.84
63.63
54.29
40.16
22.17
1.41
-20.85
-43.11
-63.50
-79.97
-91.04
-96.35
-97.02
-95.15
-92.89
-91.48
-90.87
-90.09
-87.98
-83.89
-77.90
-70.55
-62.38
-53.45
-43.40
-31.54
-17.38
-0.82
17.67
37.36
57.47
77.27
96.17
113.43
128.09
139.13
145.88
148.49
148.14
146.83
146.63
148.73
152.73
156.49
156.74
150.32
135.65
113.69
87.95
63.67
46.38
40.41
47.81
67.78
96.92
129.95
161.02
185.04
198.78
201.27
193.52
177.58
155.70
129.84
101.66
72.86
45.31
20.73
-0.00
-17.50
-33.97
-52.66
-76.78
-108.19
-146.39
-188.06
-227.59
-258.39
-274.66
-273.07
-253.70
-219.95
-177.48
-132.69
-91.22
-56.92
-31.50
-14.84
-5.57
-1.87
-2.04
-4.81
-9.27
-14.58
-19.78
-23.79
-25.81
-25.70
-24.15
-22.36
-21.33
-21.29
-21.40
-20.18
-16.22
-8.95
1.10
12.43
23.29
32.25
38.60
42.39
44.03
43.95
42.37
39.31
34.84
29.37
23.71
18.99
16.22
15.98
18.08
21.64
25.46
28.49
30.29
31.11
31.81
33.44
36.98
42.99
51.59
62.33
74.34
86.37
97.04
105.19
110.16
112.00
111.33
109.11
106.19
102.98
99.45
95.19
89.86
83.40
76.25
69.19
62.98
58.11
54.50
51.56
48.44
44.35
38.83
31.96
24.27
16.54
9.49
3.53
-1.37
-5.74
-10.36
-16.09
-23.59
-33.18
-44.78
-57.98
-72.04
-85.96
-98.61
-108.79
-115.60
-118.60
-117.90
-114.16
-108.30
-101.26
-93.80
-86.47
-79.64
-73.63
-68.72
-65.17
-63.13
-62.65
-63.64
-66.01
-69.62
-74.27
-79.58
-84.98
-89.63
-92.67
-93.47
-91.91
-88.52
-84.31
-80.47
-77.86
-76.72
-76.47
-75.94
-73.87
-69.38
-62.42
-53.75
-44.79
-37.09
-31.92
-29.94
-31.27
-35.63
-42.44
-50.96
-60.01
-67.97
-72.81
-72.64
-66.27
-53.77
-36.62
-17.13
2.27
19.96
35.50
49.51
63.11
77.23
91.95
106.23
118.01
124.55
123.23
112.34
91.69
62.94
29.26
-5.33
-37.06
-63.22
-82.57
-95.30
-102.64
-106.25
-107.77
-108.53
-109.34
-110.53
-112.01
-113.31
-113.79
-112.63
-109.01
-102.08
-91.12
-75.53
-55.05
-29.97
-1.31
29.01
58.37
83.84
102.82
113.73
116.43
112.13
103.07
91.73
80.34
70.58
63.45
59.45
58.66
60.73
64.98
70.46
76.16
81.17
84.88
86.85
86.86
84.63
79.99
72.88
63.57
52.68
41.15
29.94
19.80
11.13
3.93
-2.02
-7.03
-11.36
-15.22
-18.78
-22.24
-25.75
-29.28
-32.62
-35.44
-37.40
-38.39
-38.58
-38.35
-38.11
-38.20
-38.72
-39.59
-40.57
-41.41
-41.90
-41.90
-41.37
-40.34
-38.92
-37.24
-35.39
-33.48
-31.51
-29.49
-27.43
-25.34
-23.25
-21.22
-19.33
-17.65
-16.28
-15.29
-14.76
-14.68
-14.96
-15.44
-15.92
-16.32
-16.66
-17.14
-17.94
-19.09
-20.40
-21.45
-21.84
-21.35
-20.03
-18.17
-16.14
-14.11
-12.08
-9.92
-7.47
-4.78
-1.99
0.61
2.85
4.64
5.99
6.97
7.57
7.83
7.79
7.63
7.48
7.50
7.72
8.04
8.33
8.46
8.41
8.21
7.90
7.45
6.82
5.97
4.85
3.44
1.67
-0.49
-3.05
-5.77
-8.21
-9.74
-9.84
-8.37
-5.62
-2.35
0.61
2.62
3.46
3.32
2.62
1.80
1.09
0.51
-0.02
-0.58
-1.20
-1.85
-2.46
-3.04
-3.63
-4.29
-5.10
-6.09
-7.20
-8.34
-9.35
-10.05
-10.28
-9.90
-8.92
-7.46
-5.70
-3.83
-1.81
0.62
3.92
8.44
14.29
21.15
28.36
35.17
40.90
45.10
47.58
48.42
48.01
47.08
46.55
47.04
48.29
48.51
44.53
32.91
11.66
-18.14
-51.68
-81.51
-99.84
-100.94
-82.91
-48.00
-1.89
47.77
93.07
127.51
147.32
152.21
145.20
131.23
115.42
101.23
89.79
80.45
72.05
64.05
56.77
50.65
45.34
39.37
30.61
17.44
-0.35
-21.46
-43.61
-64.63
-83.21
-99.28
-113.48
-126.47
-138.28
-148.18
-155.19
-158.80
-159.58
-159.13
-159.55
-162.63
-169.38
-180.02
-194.37
-212.19
-233.17
-256.39
-279.94
-300.99
-316.62
-324.87
-325.45
-319.55
-308.88
-294.72
-277.39
-256.63
-232.46
-205.87
-178.74
-153.11
-130.23
-110.08
-91.70
-74.09
-57.17
-42.27
-31.76
-28.17
-33.05
-46.04
-64.46
-83.91
-99.54
-107.68
-107.04
-98.84
-85.90
-71.06
-55.81
-39.97
-22.34
-1.76
21.84
47.33
72.94
97.07
118.92
138.51
156.29
172.50
186.87
198.69
207.26
212.19
213.68
212.42
209.32
205.05
199.91
193.83
186.57
178.01
168.21
157.33
145.51
132.81
119.35
105.44
91.71
78.81
67.15
56.57
46.25
34.96
21.52
5.32
-13.32
-33.03
-51.53
-66.12
-74.18
-73.83
-64.46
-46.96
-23.57
2.68
28.88
52.88
73.68
91.27
106.10
118.51
128.44
135.57
139.67
140.97
140.22
138.44
136.55
134.87
133.24
131.08
127.98
123.85
119.07
114.25
109.85
105.89
101.91
97.17
90.96
82.81
72.63
60.62
47.20
33.04
19.17
6.96
-2.19
-7.47
-9.21
-9.19
-10.08
-14.41
-23.35
-35.96
-49.32
-59.46
-62.61
-56.29
-39.88
-14.82
15.77
47.57
76.01
97.09
108.38
109.68
103.11
92.76
83.88
81.81
91.04
114.18
151.28
199.46
253.27
305.69
349.95
381.21
397.66
400.60
393.47
380.34
364.59
348.19
331.64
314.52
296.17
276.16
254.41
231.06
206.24
179.91
151.97
122.26
90.74
57.39
22.13
-15.03
-53.78
-93.03
-130.83
-164.56
-191.61
-210.19
-219.76
-221.20
-216.28
-207.10
-195.48
-182.77
-169.88
-157.47
-145.99
-135.79
-127.01
-119.56
-113.11
-107.23
-101.49
-95.55
-89.36
-83.11
-77.14
-71.82
-67.24
-63.25
-59.54
-55.87
-52.21
-48.81
-46.02
-44.08
-43.00
-42.55
-42.36
-42.13
-41.65
-40.93
-40.01
-38.92
-37.69
-36.35
-35.04
-34.09
-33.95
-35.03
-37.56
-41.33
-45.78
-50.05
-53.25
-54.74
-54.27
-52.04
-48.53
-44.40
-40.17
-36.22
-32.69
-29.61
-26.95
-24.74
-23.04
-21.93
-21.43
-21.39
-21.56
-21.62
-21.30
-20.48
-19.22
-17.69
-16.09
-14.58
-13.24
-12.11
-11.16
-10.40
-9.82
-9.47
-9.38
-9.58
-10.02
-10.61
-11.24
-11.85
-12.50
-13.39
-14.70
-16.52
-18.67
-20.77
-22.38
-23.12
-22.86
-21.68
-19.84
-17.61
-15.21
-12.79
-10.44
-8.24
-6.24
-4.52
-3.13
-2.16
-1.67
-1.70
-2.21
-3.05
-4.02
-4.88
-5.48
-5.77
-5.81
-5.71
-5.58
-5.49
-5.53
-5.76
-6.26
-7.01
-7.90
-8.75
-9.37
-9.63
-9.65
-9.67
-10.06
-11.09
-12.82
-15.03
-17.30
-19.17
-20.20
-20.17
-19.02
-16.90
-14.00
-10.63
-7.07
-3.56
-0.30
2.63
5.20
7.43
9.31
10.83
11.96
12.74
13.29
13.75
14.28
14.90
15.52
16.02
16.32
16.45
16.48
16.52
16.55
16.58
16.65
16.94
17.59
18.44
18.86
17.82
14.27
7.68
-1.57
-12.24
-22.70
-31.49
-37.87
-41.76
-43.57
-43.76
-42.65
-40.45
-37.42
-34.06
-30.90
-28.41
-26.68
-25.49
-24.39
-23.00
-21.13
-18.84
-16.38
-13.98
-11.80
-9.90
-8.19
-6.57
-4.86
-2.95
-0.80
1.47
3.55
4.99
5.41
4.58
2.59
-0.25
-3.58
-7.07
-10.60
-14.17
-17.76
-21.20
-24.19
-26.40
-27.56
-27.68
-27.02
-25.99
-25.01
-24.37
-24.19
-24.36
-24.68
-24.91
-24.78
-24.05
-22.52
-20.06
-16.65
-12.51
-8.06
-3.88
-0.46
1.89
3.23
3.90
4.28
4.61
4.93
5.09
4.95
4.55
4.01
3.60
3.45
3.56
3.82
4.05
4.17
4.13
4.00
3.84
3.71
3.68
3.78
4.01
4.26
4.37
4.17
3.54
2.53
1.26
-0.13
-1.60
-3.26
-5.33
-7.96
-11.11
-14.45
-17.45
-19.54
-20.30
-19.61
-17.59
-14.54
-10.78
-6.57
-2.16
2.24
6.35
9.84
12.47
14.14
14.95
15.13
14.93
14.47
13.81
12.91
11.81
10.63
9.59
8.83
8.34
7.95
7.39
6.44
5.08
3.49
1.95
0.64
-0.45
-1.51
-2.77
-4.37
-6.25
-8.16
-9.86
-11.17
-12.11
-12.83
-13.52
-14.37
-15.45
-16.81
-18.35
-19.86
-21.02
-21.47
-20.88
-19.09
-16.20
-12.47
-8.31
-4.11
-0.18
3.26
6.03
8.08
9.34
9.91
9.94
9.65
9.28
8.94
8.64
8.25
7.66
6.81
5.79
4.84
4.14
3.79
3.71
3.67
3.36
2.63
1.45
-0.07
-1.70
-3.30
-4.73
-6.06
-7.33
-8.64
-10.03
-11.51
-13.11
-14.92
-17.08
-19.68
-22.67
-25.76
-28.40
-29.92
-29.72
-27.50
-23.32
-17.67
-11.22
-4.69
1.33
6.46
10.56
13.61
15.61
16.63
16.69
15.96
14.69
13.25
12.05
11.34
11.15
11.27
11.38
11.18
10.61
9.81
9.02
8.47
8.17
8.00
7.72
7.18
6.36
5.36
4.33
3.36
2.42
1.34
-0.02
-1.77
-3.84
-6.06
-8.14
-9.80
-10.77
-10.82
-9.91
-8.07
-5.49
-2.47
0.68
3.71
6.45
8.78
10.61
11.82
12.31
12.08
11.32
10.37
9.60
9.23
9.24
9.46
9.64
9.63
9.44
9.15
8.88
8.60
8.17
7.44
6.29
4.71
2.75
0.54
-1.81
-4.20
-6.50
-8.61
-10.42
-11.88
-13.03
-13.98
-14.84
-15.71
-16.58
-17.26
-17.40
-16.61
-14.61
-11.37
-7.16
-2.52
1.91
5.60
8.22
9.74
10.35
10.34
10.04
9.68
9.44
9.38
9.50
9.69
9.79
9.60
8.96
7.87
6.45
5.03
3.93
3.40
3.41
3.71
3.85
3.41
2.20
0.27
-1.99
-4.14
-5.80
-6.85
-7.48
-8.03
-8.93
-10.40
-12.40
-14.54
-16.20
-16.80
-15.96
-13.68
-10.33
-6.50
-2.75
0.54
3.23
5.39
7.13
8.53
9.58
10.26
10.56
10.58
10.45
10.31
10.20
10.05
9.71
9.04
7.98
6.65
5.31
4.22
3.49
3.07
2.71
2.12
1.08
-0.41
-2.13
-3.77
-5.03
-5.79
-6.05
-6.04
-6.02
-6.26
-6.95
-8.21
-10.01
-12.23
-14.60
-16.77
-18.27
-18.67
-17.68
-15.28
-11.79
-7.78
-3.86
-0.52
2.15
4.27
6.15
7.99
9.73
11.14
11.90
11.86
11.13
10.11
9.27
8.95
9.24
9.90
10.55
10.84
10.64
10.06
9.34
8.73
8.25
7.77
7.03
5.87
4.28
2.46
0.65
-0.96
-2.35
-3.63
-4.90
-6.21
-7.46
-8.49
-9.27
-9.87
-10.52
-11.45
-12.69
-14.01
-14.92
-14.83
-13.34
-10.42
-6.46
-2.24
1.52
4.29
5.93
6.68
6.88
6.84
6.65
6.37
5.97
5.54
5.21
5.12
5.26
5.53
5.78
5.88
5.84
5.70
5.54
5.40
5.24
5.00
4.60
3.98
3.11
2.05
0.88
-0.28
-1.23
-1.92
-2.36
-2.77
-3.43
-4.65
-6.52
-8.88
-11.27
-13.13
-13.89
-13.22
-11.16
-8.01
-4.33
-0.66
2.58
5.15
7.04
8.33
9.17
9.65
9.84
9.80
9.63
9.41
9.21
9.04
8.82
8.43
7.74
6.80
5.72
4.73
4.02
3.69
3.66
3.70
3.56
3.03
2.05
0.74
-0.67
-1.97
-3.02
-3.85
-4.55
-5.28
-6.13
-7.10
-8.19
-9.38
-10.70
-12.20
-13.80
-15.26
-16.17
-16.15
-14.95
-12.65
-9.62
-6.36
-3.36
-0.87
1.14
2.82
4.31
5.66
6.76
7.45
7.69
7.59
7.43
7.51
8.01
8.87
9.85
10.58
10.82
10.53
9.87
9.16
8.69
8.58
8.72
8.85
8.66
7.89
6.54
4.75
2.77
0.85
-0.92
-2.52
-4.01
-5.44
-6.84
-8.22
-9.65
-11.28
-13.23
-15.53
-17.99
-20.14
-21.41
-21.30
-19.57
-16.40
-12.31
-7.99
-4.05
-0.84
1.61
3.50
5.08
6.55
7.93
9.16
10.18
10.96
11.55
11.99
12.34
12.56
12.59
12.37
11.86
11.12
10.25
9.39
8.70
8.23
7.92
7.57
6.95
5.87
4.35
2.60
0.93
-0.40
-1.32
-1.98
-2.76
-3.92
-5.67
-7.92
-10.45
-12.99
-15.35
-17.45
-19.17
-20.36
-20.73
-20.01
-18.06
-14.93
-10.99
-6.71
-2.61
0.97
3.82
5.98
7.58
8.76
9.67
10.33
10.73
10.85
10.73
10.43
10.08
9.80
9.63
9.53
9.39
9.15
8.77
8.30
7.84
7.37
6.86
6.17
5.17
3.79
2.10
0.27
-1.46
-2.82
-3.75
-4.34
-4.95
-5.92
-7.53
-9.79
-12.45
-15.05
-17.15
-18.41
-18.64
-17.84
-16.07
-13.46
-10.23
-6.65
-3.15
-0.12
2.13
3.53
4.25
4.60
4.85
5.19
5.68
6.28
6.94
7.59
8.19
8.73
9.23
9.70
10.13
10.48
10.60
10.33
9.56
8.35
6.89
5.43
4.12
2.92
1.67
0.22
-1.38
-2.93
-4.15
-4.88
-5.31
-5.83
-6.86
-8.62
-10.95
-13.38
-15.31
-16.26
-16.00
-14.66
-12.53
-9.95
-7.17
-4.31
-1.44
1.36
3.90
5.94
7.29
7.93
8.05
7.99
8.06
8.45
9.11
9.83
10.35
10.48
10.23
9.71
9.20
8.88
8.85
9.08
9.39
9.59
9.49
9.01
8.08
6.75
5.04
3.03
0.85
-1.37
-3.45
-5.33
-7.03
-8.68
-10.40
-12.18
-13.84
-15.01
-15.34
-14.56
-12.69
-9.99
-6.87
-3.82
-1.19
0.74
1.93
2.48
2.67
2.80
3.13
3.84
4.88
6.09
7.21
8.04
8.52
8.73
8.80
8.88
9.00
9.12
9.14
9.01
8.71
8.27
7.68
6.87
5.77
4.36
2.68
0.92
-0.74
-2.15
-3.34
-4.47
-5.78
-7.51
-9.69
-12.21
-14.77
-16.98
-18.45
-18.85
-18.04
-16.06
-13.22
-9.91
-6.53
-3.41
-0.69
1.62
3.53
5.06
6.19
6.92
7.37
7.72
8.18
8.82
9.56
10.17
10.48
10.50
10.39
10.43
10.78
11.40
12.03
12.41
12.37
11.90
11.11
10.07
8.79
7.23
5.38
3.32
1.23
-0.72
-2.47
-4.09
-5.74
-7.62
-9.78
-12.18
-14.61
-16.77
-18.31
-18.92
-18.39
-16.70
-14.06
-10.79
-7.31
-3.97
-0.99
1.58
3.74
5.46
6.71
7.36
7.46
7.13
6.72
6.61
7.00
7.91
9.05
10.02
10.47
10.28
9.62
8.85
8.34
8.29
8.71
9.29
9.70
9.62
8.84
7.34
5.21
2.65
-0.15
-2.95
-5.52
-7.62
-9.13
-10.09
-10.77
-11.50
-12.57
-14.00
-15.46
-16.40
-16.20
-14.50
-11.31
-7.06
-2.45
1.84
5.26
7.60
8.93
9.50
9.63
9.57
9.48
9.37
9.16
8.81
8.34
7.86
7.50
7.32
7.25
7.19
7.02
6.73
6.38
6.02
5.66
5.13
4.28
2.97
1.28
-0.62
-2.45
-4.01
-5.27
-6.38
-7.65
-9.31
-11.50
-14.05
-16.52
-18.36
-19.02
-18.23
-16.05
-12.91
-9.33
-5.82
-2.67
0.05
2.37
4.35
5.97
7.21
8.07
8.65
9.04
9.39
9.73
10.02
10.16
10.00
9.47
8.59
7.49
6.38
5.44
4.79
4.35
3.99
3.46
2.58
1.32
-0.20
-1.76
-3.11
-4.13
-4.89
-5.59
-6.52
-7.92
-9.91
-12.37
-15.00
-17.34
-18.92
-19.42
-18.66
-16.75
-13.94
-10.58
-7.03
-3.57
-0.40
2.35
4.65
6.50
8.00
9.31
10.54
11.66
12.54
12.92
12.61
11.65
10.32
9.01
8.08
7.62
7.55
7.65
7.83
8.14
8.70
9.47
10.19
10.44
9.85
8.28
5.93
3.26
0.74
-1.34
-2.94
-4.25
-5.54
-7.08
-9.01
-11.34
-13.96
-16.62
-18.98
-20.67
-21.34
-20.73
-18.82
-15.78
-12.00
-7.98
-4.16
-0.87
1.82
4.01
5.90
7.67
9.39
11.02
12.46
13.56
14.28
14.69
14.89
15.05
15.25
15.50
15.72
15.82
15.66
15.19
14.40
13.38
12.26
11.19
10.26
9.46
8.71
7.88
6.86
5.63
4.22
2.73
1.24
-0.26
-1.91
-3.85
-6.21
-9.00
-11.98
-14.72
-16.68
-17.40
-16.64
-14.53
-11.38
-7.72
-4.01
-0.55
2.43
4.83
6.58
7.68
8.18
8.28
8.16
8.05
8.02
8.06
8.05
7.90
7.56
7.14
6.77
6.60
6.68
6.93
7.22
7.39
7.36
7.07
6.52
5.73
4.70
3.44
2.01
0.48
-1.03
-2.42
-3.61
-4.58
-5.41
-6.24
-7.27
-8.68
-10.53
-12.76
-15.05
-16.94
-17.91
-17.62
-16.00
-13.34
-10.12
-6.90
-4.06
-1.83
-0.16
1.11
2.14
3.08
3.99
4.87
5.71
6.48
7.11
7.50
7.58
7.31
6.75
5.99
5.19
4.45
3.85
3.37
2.94
2.44
1.75
0.78
-0.47
-1.92
-3.38
-4.70
-5.78
-6.66
-7.49
-8.45
-9.61
-10.95
-12.33
-13.67
-14.98
-16.24
-17.42
-18.27
-18.37
-17.26
-14.75
-10.98
-6.45
-1.85
2.23
5.46
7.76
9.20
9.88
9.83
9.16
8.06
6.82
5.80
5.19
4.98
5.00
5.00
4.84
4.49
4.07
3.66
3.31
2.98
2.60
2.13
1.52
0.70
-0.41
-1.84
-3.58
-5.46
-7.22
-8.65
-9.70
-10.52
-11.37
-12.44
-13.73
-14.99
-15.82
-15.83
-14.86
-12.91
-10.25
-7.23
-4.19
-1.36
1.09
3.08
4.51
5.33
5.54
5.29
4.84
4.51
4.55
5.01
5.76
6.53
7.07
7.31
7.30
7.23
7.28
7.54
7.90
8.20
8.21
7.77
6.84
5.44
3.74
1.82
-0.27
-2.56
-5.16
-8.15
-11.43
-14.68
-17.40
-19.06
-19.27
-17.96
-15.40
-12.03
-8.36
-4.74
-1.34
1.77
4.53
6.83
8.52
9.49
9.76
9.47
8.87
8.22
7.67
7.26
6.94
6.59
6.14
5.58
4.92
4.20
3.45
2.68
1.84
0.91
-0.12
-1.22
-2.31
-3.29
-4.12
-4.76
-5.31
-5.86
-6.61
-7.67
-9.14
-10.94
-12.97
-14.97
-16.59
-17.48
-17.35
-15.99
-13.46
-10.02
-6.09
-2.17
1.32
4.14
6.18
7.51
8.31
8.75
9.05
9.39
9.87
10.50
11.12
11.55
11.63
11.35
10.85
10.37
10.09
10.08
10.19
10.20
9.88
9.16
8.02
6.58
4.92
3.17
1.39
-0.32
-1.86
-3.19
-4.33
-5.46
-6.81
-8.65
-11.06
-13.86
-16.57
-18.54
-19.12
-17.94
-15.08
-11.00
-6.47
-2.23
1.23
3.76
5.60
7.07
8.57
10.22
12.00
13.67
14.97
15.71
15.88
15.64
15.20
14.76
14.32
13.79
13.03
11.97
10.72
9.44
8.33
7.37
6.43
5.26
3.71
1.80
-0.24
-2.06
-3.40
-4.18
-4.55
-4.84
-5.37
-6.35
-7.83
-9.71
-11.84
-14.10
-16.26
-18.14
-19.39
-19.72
-18.91
-16.92
-13.96
-10.37
-6.61
-2.99
0.23
2.96
5.18
6.87
8.02
8.61
8.72
8.47
8.11
7.86
7.93
8.31
8.81
9.14
8.98
8.29
7.21
6.15
5.43
5.22
5.33
5.47
5.30
4.68
3.72
2.61
1.56
0.64
-0.17
-0.96
-1.79
-2.64
-3.60
-4.73
-6.20
-8.06
-10.21
-12.34
-14.02
-14.83
-14.56
-13.16
-10.82
-7.87
-4.69
-1.65
0.93
2.93
4.31
5.26
5.96
6.60
7.20
7.69
7.97
7.97
7.74
7.41
7.11
6.94
6.88
6.90
6.96
6.98
6.91
6.70
6.28
5.65
4.83
3.89
2.89
1.85
0.77
-0.40
-1.72
-3.26
-5.08
-7.24
-9.69
-12.32
-14.85
-16.99
-18.38
-18.76
-17.98
-16.08
-13.25
-9.84
-6.31
-3.07
-0.43
1.51
2.83
3.70
4.26
4.50
4.35
3.73
2.67
1.44
0.44
0.02
0.37
1.37
2.67
3.79
4.38
4.31
3.69
2.79
1.89
1.11
0.43
-0.25
-1.04
-1.98
-3.03
-4.24
-5.67
-7.44
-9.57
-11.85
-13.77
-14.76
-14.30
-12.25
-8.96
-5.10
-1.44
1.48
3.44
4.61
5.26
5.63
5.77
5.57
4.96
4.01
2.98
2.25
2.16
2.76
3.88
5.13
6.07
6.43
6.15
5.38
4.35
3.24
2.09
0.82
-0.69
-2.55
-4.66
-6.95
-9.27
-11.59
-13.95
-16.34
-18.65
-20.55
-21.58
-21.33
-19.65
-16.76
-13.17
-9.51
-6.26
-3.63
-1.51
0.35
2.23
4.28
6.51
8.77
10.86
12.55
13.68
14.16
14.03
13.46
12.68
11.95
11.43
11.16
11.02
10.81
10.36
9.55
8.38
6.89
5.11
3.11
0.86
-1.62
-4.35
-7.20
-9.98
-12.44
-14.27
-15.26
-15.24
-14.22
-12.30
-9.68
-6.57
-3.20
0.15
3.24
5.80
7.66
8.78
9.28
9.43
9.56
9.98
10.81
11.99
13.25
14.24
14.77
14.78
14.41
13.89
13.38
12.90
12.34
11.53
10.39
8.89
7.12
5.16
3.07
0.84
-1.55
-4.10
-6.76
-9.43
-11.87
-13.85
-15.06
-15.31
-14.53
-12.82
-10.37
-7.43
-4.18
-0.74
2.78
6.24
9.45
12.16
14.23
15.61
16.36
16.63
16.59
16.39
16.13
15.87
15.62
15.38
15.05
14.57
13.82
12.80
11.47
9.90
8.17
6.29
4.33
2.34
0.39
-1.39
-2.94
-4.34
-5.76
-7.45
-9.65
-12.41
-15.60
-18.84
-21.57
-23.22
-23.32
-21.71
-18.61
-14.55
-10.25
-6.35
-3.24
-0.97
0.73
2.23
3.84
5.60
7.33
8.68
9.40
9.38
8.78
7.91
7.09
6.49
6.06
5.62
5.02
4.26
3.47
2.87
2.46
2.12
1.58
0.65
-0.65
-2.14
-3.50
-4.59
-5.45
-6.36
-7.69
-9.64
-12.19
-14.99
-17.56
-19.30
-19.80
-18.87
-16.63
-13.43
-9.78
-6.14
-2.90
-0.29
1.63
2.89
3.51
3.58
3.20
2.57
1.90
1.46
1.36
1.57
1.89
2.08
1.97
1.57
1.05
0.59
0.23
-0.25
-1.21
-3.00
-5.71
-9.11
-12.78
-16.27
-19.37
-22.11
-24.74
-27.55
-30.79
-34.55
-38.77
-43.24
-47.62
-51.37
-53.92
-54.76
-53.70
-50.98
-47.33
-43.71
-41.07
-39.79
-39.70
-39.97
-39.45
-37.13
-32.55
-26.07
-18.75
-11.98
-6.78
-3.24
-0.36
3.58
10.27
20.68
34.57
50.54
66.30
79.17
86.63
86.88
79.56
66.08
49.67
34.61
24.96
23.18
29.24
40.73
53.94
65.37
72.82
75.88
75.39
72.85
69.58
66.64
64.76
64.43
65.89
68.95
72.87
76.32
77.79
76.09
70.85
62.64
52.67
42.33
32.72
24.39
17.34
11.35
6.10
1.30
-3.24
-7.65
-11.99
-16.17
-19.94
-23.01
-25.12
-26.16
-26.20
-25.41
-24.07
-22.38
-20.59
-18.97
-17.90
-17.78
-18.94
-21.55
-25.40
-30.03
-34.62
-38.36
-40.48
-40.56
-38.62
-35.04
-30.44
-25.52
-20.87
-16.83
-13.57
-11.07
-9.27
-8.16
-7.70
-7.84
-8.48
-9.48
-10.69
-12.05
-13.54
-15.14
-16.79
-18.31
-19.60
-20.67
-21.77
-23.36
-25.88
-29.52
-34.12
-39.21
-44.21
-48.67
-52.49
-55.94
-59.56
-63.99
-69.75
-77.10
-85.95
-95.91
-106.32
-116.30
-125.00
-131.81
-136.77
-140.78
-145.39
-152.09
-161.28
-171.50
-179.58
-181.60
-174.50
-157.46
-132.27
-102.49
-71.92
-43.20
-17.14
6.96
30.57
55.33
82.83
114.47
151.08
192.19
235.41
276.51
310.36
332.60
341.08
336.56
322.14
301.93
279.67
257.69
236.81
216.67
196.43
175.18
152.43
128.24
103.36
79.33
58.23
42.24
33.03
31.21
35.77
44.28
53.35
59.49
60.17
54.31
42.53
26.58
8.72
-9.07
-25.41
-39.54
-51.19
-60.38
-67.26
-72.11
-75.33
-77.36
-78.68
-79.62
-80.45
-81.34
-82.32
-83.42
-84.60
-85.74
-86.59
-86.67
-85.30
-81.81
-75.96
-68.22
-59.86
-52.69
-48.30
-47.39
-49.36
-52.48
-54.60
-54.00
-50.05
-43.26
-34.84
-26.10
-17.96
-10.83
-4.85
-0.07
3.34
5.25
5.70
5.08
4.08
3.42
3.62
4.77
6.58
8.54
10.11
10.86
10.62
9.44
7.50
5.06
2.35
-0.39
-3.00
-5.41
-7.68
-9.97
-12.44
-15.18
-18.14
-21.10
-23.80
-25.99
-27.47
-28.13
-27.90
-26.70
-24.51
-21.39
-17.56
-13.40
-9.31
-5.67
-2.70
-0.43
1.31
2.78
4.26
5.93
7.77
9.49
10.74
11.18
10.64
9.27
7.40
5.43
3.65
2.12
0.76
-0.64
-2.26
-4.28
-6.73
-9.64
-12.89
-16.27
-19.47
-22.20
-24.24
-25.46
-25.85
-25.40
-24.08
-21.97
-19.22
-16.13
-13.02
-10.15
-7.55
-5.04
-2.40
0.53
3.70
6.86
9.71
11.97
13.56
14.56
15.16
15.53
15.84
16.09
16.23
16.15
15.80
15.16
14.23
12.98
11.38
9.46
7.24
4.87
2.48
0.12
-2.26
-4.84
-7.85
-11.37
-15.35
-19.49
-23.24
-26.00
-27.23
-26.65
-24.36
-20.82
-16.68
-12.54
-8.71
-5.25
-1.98
1.24
4.42
7.42
10.02
12.09
13.64
14.80
15.72
16.51
17.19
17.71
18.06
18.23
18.21
18.02
17.64
17.06
16.31
15.39
14.39
13.34
12.34
11.42
10.54
9.63
8.51
7.01
5.02
2.60
0.08
-2.07
-3.33
-3.29
-1.75
1.16
5.21
10.11
15.59
21.32
26.87
31.57
34.68
35.54
33.86
29.85
24.15
17.63
11.08
5.08
-0.08
-4.26
-7.34
-9.25
-9.92
-9.46
-8.19
-6.61
-5.23
-4.46
-4.48
-5.20
-6.37
-7.68
-8.84
-9.76
-10.51
-11.35
-12.57
-14.40
-16.81
-19.46
-21.71
-22.85
-22.34
-20.01
-16.17
-11.48
-6.71
-2.44
1.03
3.78
6.04
8.02
9.83
11.39
12.59
13.32
13.57
13.41
12.89
12.09
11.06
9.89
8.78
7.97
7.63
7.75
8.09
8.28
7.93
6.81
4.94
2.55
0.06
-2.10
-3.67
-4.58
-5.03
-5.42
-6.23
-7.81
-10.26
-13.40
-16.82
-20.07
-22.73
-24.42
-24.84
-23.77
-21.09
-16.99
-11.86
-6.29
-0.93
3.79
7.62
10.55
12.66
13.97
14.48
14.10
12.86
10.87
8.38
5.74
3.32
1.48
0.40
0.13
0.46
1.13
1.84
2.42
2.86
3.26
3.76
4.32
4.73
4.65
3.78
2.09
-0.20
-2.62
-4.69
-6.09
-6.88
-7.38
-8.06
-9.30
-11.25
-13.79
-16.53
-18.95
-20.46
-20.51
-18.76
-15.18
-10.09
-4.16
1.77
6.91
10.72
13.02
14.01
14.13
13.86
13.64
13.69
13.97
14.26
14.19
13.51
12.10
10.07
7.68
5.22
2.93
0.91
-0.79
-2.13
-3.06
-3.56
-3.71
-3.76
-4.02
-4.74
-5.96
-7.49
-9.06
-10.48
-11.78
-13.19
-15.00
-17.40
-20.41
-23.79
-27.15
-30.00
-31.84
-32.26
-31.05
-28.23
-24.15
-19.36
-14.48
-10.08
-6.55
-4.12
-2.93
-2.92
-3.93
-5.55
-7.23
-8.36
-8.50
-7.53
-5.84
-4.15
-3.37
-4.23
-7.07
-11.71
-17.56
-23.84
-29.80
-34.88
-38.76
-41.30
-42.45
-42.28
-41.01
-38.92
-36.40
-33.68
-30.88
-27.88
-24.51
-20.75
-16.83
-13.04
-9.51
-5.76
-0.54
7.82
21.01
40.04
64.81
93.84
124.46
153.26
176.78
192.20
197.71
192.74
177.95
155.10
126.78
96.09
66.19
39.74
18.44
2.74
-8.16
-15.83
-22.00
-27.91
-33.98
-39.83
-44.70
-47.95
-49.48
-49.73
-49.70
-50.53
-53.17
-58.11
-65.24
-73.93
-83.21
-91.97
-99.28
-104.42
-107.06
-107.24
-105.40
-102.33
-98.97
-96.20
-94.59
-94.28
-95.00
-96.19
-97.33
-98.13
-98.67
-99.29
-100.37
-102.01
-103.85
-105.11
-104.86
-102.41
-97.72
-91.57
-85.28
-80.19
-77.07
-75.75
-75.24
-74.34
-72.36
-69.53
-66.94
-66.07
-68.04
-72.97
-79.65
-85.50
-87.16
-81.31
-65.75
-40.38
-7.51
28.81
64.02
94.57
118.80
136.86
149.84
158.67
163.51
164.00
160.03
152.38
142.84
133.58
126.27
121.38
118.19
115.24
111.20
105.50
98.59
91.52
85.19
79.78
74.41
67.59
57.94
44.86
28.88
11.37
-5.82
-20.79
-31.67
-36.67
-34.22
-23.51
-5.09
18.76
44.33
67.50
85.03
95.51
99.41
98.48
94.69
89.59
84.03
78.42
73.12
68.72
65.81
64.75
65.27
66.46
66.98
65.52
61.32
54.36
45.33
35.31
25.32
16.00
7.48
-0.52
-8.41
-16.44
-24.63
-32.83
-40.90
-48.67
-55.84
-61.70
-65.09
-64.73
-59.76
-50.36
-37.89
-24.57
-12.63
-3.60
2.14
5.20
6.62
7.28
7.63
7.73
7.42
6.68
5.62
4.52
3.70
3.42
3.80
4.68
5.77
6.64
6.90
6.37
5.17
3.64
2.24
1.27
0.74
0.37
-0.31
-1.77
-4.37
-8.29
-13.55
-19.96
-26.94
-33.32
-37.43
-37.46
-32.15
-21.43
-6.67
9.62
24.70
36.47
44.10
48.10
49.65
49.96
49.71
48.96
47.42
44.89
41.50
37.73
34.17
31.29
29.24
27.90
26.99
26.38
26.09
26.28
27.01
28.06
28.91
28.85
27.32
24.12
19.58
14.41
9.40
5.05
1.38
-2.21
-6.65
-12.86
-21.44
-32.30
-44.58
-56.63
-66.45
-72.09
-72.21
-66.60
-56.15
-42.75
-28.59
-15.63
-5.03
2.97
8.76
13.07
16.51
19.55
22.52
25.75
29.60
34.29
39.72
45.49
51.06
55.93
60.02
63.55
67.00
70.84
75.35
80.56
86.09
91.24
95.00
96.33
94.50
89.44
81.91
73.19
64.66
57.20
50.86
44.97
38.58
30.99
21.97
11.79
0.97
-10.05
-21.02
-31.73
-41.79
-50.50
-56.90
-60.04
-59.34
-54.88
-47.33
-37.80
-27.57
-17.83
-9.59
-3.56
-0.17
0.54
-1.21
-4.92
-10.01
-15.83
-21.77
-27.29
-31.99
-35.77
-38.83
-41.64
-44.72
-48.40
-52.57
-56.81
-60.60
-63.55
-65.64
-67.06
-68.16
-69.14
-70.01
-70.59
-70.53
-69.44
-66.99
-62.94
-57.32
-50.34
-42.52
-34.45
-26.80
-20.12
-14.83
-11.11
-8.90
-7.94
-7.84
-8.14
-8.47
-8.62
-8.55
-8.38
-8.31
-8.55
-9.17
-10.12
-11.21
-12.23
-13.04
-13.71
-14.57
-16.10
-18.72
-22.55
-27.35
-32.52
-37.36
-41.35
-44.37
-46.75
-49.13
-52.14
-56.12
-60.80
-65.39
-68.69
-69.68
-67.90
-63.79
-58.62
-54.00
-51.38
-51.41
-53.83
-57.54
-61.06
-62.88
-61.90
-57.71
-50.98
-43.61
-38.49
-38.69
-46.01
-59.77
-76.44
-90.74
-97.78
-95.29
-84.82
-70.85
-58.72
-52.25
-52.61
-58.62
-68.09
-78.93
-89.56
-98.46
-103.84
-103.84
-97.31
-84.66
-67.98
-50.31
-34.54
-22.48
-14.57
-9.93
-6.91
-3.24
3.65
16.22
36.32
64.95
102.27
147.78
200.09
256.21
310.97
357.29
387.85
397.72
386.66
359.78
325.81
293.76
269.85
255.91
250.20
249.39
250.98
254.09
258.86
264.85
269.96
270.70
263.74
247.91
225.26
200.49
178.47
161.38
146.96
128.96
99.82
54.27
-8.04
-82.17
-159.82
-232.48
-294.08
-341.97
-376.40
-399.06
-411.95
-416.77
-415.23
-409.45
-402.00
-395.55
-392.22
-393.25
-399.00
-409.32
-423.81
-441.74
-461.70
-481.27
-497.17
-505.98
-505.12
-493.71
-472.76
-444.73
-412.55
-378.78
-345.08
-312.34
-280.93
-251.06
-222.81
-196.08
-170.46
-145.27
-119.96
-94.35
-68.93
-44.67
-22.65
-3.67
12.17
25.42
37.10
48.22
59.48
71.05
82.63
93.64
103.64
112.42
120.21
127.58
135.15
143.27
151.58
158.88
163.45
163.68
158.92
149.95
138.99
129.01
122.70
121.60
125.60
132.97
140.92
146.17
145.63
136.98
119.09
92.39
58.82
21.52
-15.83
-49.85
-78.01
-98.94
-112.38
-118.98
-119.98
-116.94
-111.51
-105.16
-98.95
-93.35
-88.21
-82.84
-76.33
-67.80
-56.67
-42.75
-26.22
-7.49
12.94
34.65
57.33
80.66
104.49
128.72
153.44
178.78
204.64
230.30
254.12
273.70
286.43
290.38
285.04
271.59
252.50
230.67
208.55
187.68
168.54
150.85
133.91
116.79
98.44
77.97
55.04
30.43
6.24
-14.31
-27.76
-31.49
-24.64
-8.46
14.09
39.37
64.06
85.93
104.13
118.89
131.04
141.52
150.96
159.54
167.02
172.94
176.88
178.78
179.02
178.37
177.75
177.91
179.14
181.26
183.72
185.81
186.90
186.63
184.87
181.87
178.10
174.16
170.45
166.92
162.83
156.90
147.84
135.04
118.97
101.26
83.97
68.82
56.49
46.38
37.09
27.18
15.90
3.52
-8.82
-19.62
-27.65
-32.44
-34.61
-35.80
-38.32
-44.47
-55.76
-71.98
-90.85
-108.24
-119.13
-118.97
-104.91
-76.46
-35.43
14.73
69.71
125.19
177.45
223.93
263.57
296.70
324.56
348.23
367.75
381.60
387.25
382.07
364.66
335.34
296.16
250.17
200.65
150.56
102.31
57.63
17.35
-18.67
-51.54
-82.88
-114.10
-145.62
-176.43
-204.20
-225.98
-239.19
-242.50
-236.42
-223.22
-206.32
-189.38
-175.35
-165.94
-161.49
-161.42
-164.66
-170.18
-177.37
-186.05
-196.39
-208.52
-222.22
-236.45
-249.23
-257.83
-259.41
-251.93
-234.87
-209.48
-178.41
-144.80
-111.37
-79.84
-50.91
-24.50
-0.25
22.16
42.84
61.62
78.09
91.60
101.40
106.81
107.54
103.93
97.08
88.62
80.36
73.74
69.35
66.80
65.06
63.11
60.73
58.88
59.46
64.46
74.89
90.20
108.41
126.91
143.37
156.29
164.90
168.71
167.18
159.88
147.03
129.87
110.50
91.15
73.32
57.47
43.29
30.54
19.63
11.78
8.31
9.93
16.18
25.56
35.97
45.39
52.19
55.19
53.70
47.48
36.76
22.23
4.81
-14.76
-36.24
-59.94
-86.38
-115.68
-146.90
-177.39
-202.63
-216.66
-213.48
-189.29
-144.71
-85.91
-23.74
29.36
63.50
74.79
66.48
47.25
27.46
15.39
14.78
24.77
41.61
60.86
78.94
93.64
103.79
108.94
109.31
106.17
101.93
99.75
102.40
110.95
123.90
137.50
147.02
148.71
141.17
125.79
105.91
85.24
66.36
49.95
34.96
19.42
1.61
-19.23
-42.61
-67.30
-91.91
-115.92
-140.04
-166.13
-196.41
-232.35
-273.67
-317.92
-360.42
-395.03
-415.29
-416.19
-395.88
-356.82
-305.57
-251.16
-202.34
-164.87
-139.87
-123.96
-110.95
-94.33
-69.32
-33.94
11.02
62.86
117.86
172.19
222.43
265.94
301.05
326.71
342.42
348.02
343.81
330.68
310.16
284.12
254.25
221.68
186.71
149.10
108.60
65.60
21.48
-21.50
-60.79
-94.39
-121.56
-142.98
-160.19
-174.68
-187.11
-197.09
-203.76
-206.67
-206.61
-205.59
-206.34
-211.18
-221.21
-235.83
-252.84
-268.89
-280.10
-282.96
-275.20
-256.61
-229.11
-196.08
-161.22
-127.20
-95.20
-65.18
-36.77
-10.22
13.34
32.32
45.53
52.64
54.35
51.75
45.79
36.84
24.84
9.69
-8.27
-28.11
-48.39
-67.61
-84.76
-99.55
-112.48
-124.43
-136.18
-147.93
-159.16
-168.86
-175.97
-179.82
-180.45
-178.69
-175.96
-173.93
-174.04
-176.93
-181.94
-187.00
-188.97
-184.51
-171.13
-148.14
-116.96
-80.62
-42.83
-6.96
24.76
51.29
72.62
89.26
101.82
110.89
116.97
120.59
122.35
122.98
123.22
123.60
124.38
125.46
126.45
126.92
126.57
125.34
123.36
120.73
117.33
112.77
106.51
98.10
87.49
75.08
61.67
48.22
35.52
23.97
13.46
3.34
-7.40
-19.84
-34.77
-52.11
-70.59
-87.68
-100.05
-104.50
-98.89
-82.99
-58.47
-28.53
3.11
33.17
59.49
81.14
98.17
111.09
120.45
126.62
129.86
130.55
129.23
126.70
123.82
121.19
118.98
116.90
114.36
110.79
105.97
100.08
93.61
87.13
80.96
75.00
68.77
61.58
52.82
42.24
30.09
17.04
4.00
-8.22
-19.13
-28.71
-37.37
-45.85
-55.01
-65.59
-77.95
-91.71
-105.61
-117.35
-124.06
-122.96
-112.34
-92.24
-64.68
-33.08
-1.34
27.28
50.89
69.06
82.43
92.08
98.92
103.50
106.09
106.95
106.48
105.30
104.05
103.12
102.49
101.72
100.15
97.27
92.91
87.33
81.04
74.58
68.19
61.80
55.00
47.29
38.29
27.96
16.59
4.68
-7.22
-18.70
-29.55
-39.81
-49.62
-59.27
-69.18
-79.91
-92.10
-106.10
-121.51
-136.77
-149.14
-155.27
-152.25
-138.69
-115.33
-84.99
-51.68
-19.42
8.72
31.09
47.34
57.97
63.75
65.54
64.14
60.45
55.42
50.07
45.28
41.72
39.71
39.29
40.20
41.93
43.90
45.47
46.20
45.92
44.66
42.61
39.87
36.38
31.86
26.06
18.87
10.46
1.29
-8.09
-17.17
-25.69
-33.65
-41.25
-48.97
-57.37
-67.11
-78.59
-91.63
-105.09
-116.77
-123.69
-122.91
-112.42
-91.95
-63.23
-29.65
4.69
35.97
61.53
80.22
92.24
98.60
100.55
99.19
95.34
89.63
82.70
75.23
67.90
61.20
55.27
49.88
44.56
38.80
32.32
25.16
17.62
10.13
3.04
-3.51
-9.68
-15.86
-22.52
-29.97
-38.16
-46.69
-54.90
-62.13
-67.98
-72.48
-76.06
-79.47
-83.58
-89.24
-97.00
-106.89
-118.09
-128.82
-136.43
-138.00
-131.11
-114.65
-89.34
-57.56
-22.74
11.64
42.81
69.26
90.69
107.66
120.99
131.51
139.78
146.23
151.35
155.76
160.22
165.47
171.94
179.65
188.13
196.72
204.77
211.93
218.30
224.28
230.33
236.64
242.73
247.34
248.49
243.99
231.98
211.57
183.15
148.21
108.94
67.68
26.57
-12.72
-49.01
-81.71
-110.75
-136.42
-158.92
-177.79
-191.53
-197.76
-194.05
-179.01
-153.24
-119.52
-82.15
-45.72
-13.84
11.52
30.08
42.66
50.42
54.37
55.16
53.27
49.19
43.64
37.56
31.84
27.18
23.82
21.57
19.92
18.25
15.94
12.61
8.04
2.24
-4.72
-12.75
-21.85
-32.07
-43.44
-55.82
-68.82
-81.84
-94.20
-105.41
-115.23
-123.81
-131.53
-138.85
-146.25
-154.19
-163.13
-173.23
-184.08
-194.27
-201.46
-202.91
-196.40
-181.27
-158.81
-132.03
-104.65
-79.89
-59.68
-44.42
-33.39
-25.47
-19.69
-15.47
-12.46
-10.34
-8.62
-6.70
-3.99
-0.25
4.37
9.24
13.64
16.93
18.90
19.82
20.22
20.59
20.95
20.80
19.20
15.32
8.83
0.19
-9.45
-18.69
-26.36
-32.06
-36.14
-39.57
-43.56
-49.15
-56.98
-67.08
-78.75
-90.47
-100.04
-104.91
-102.88
-92.72
-74.76
-50.91
-24.18
2.11
25.19
43.33
56.03
63.63
66.96
66.96
64.48
60.37
55.45
50.55
46.35
43.27
41.33
40.18
39.24
37.98
36.13
33.71
30.99
28.14
25.07
21.34
16.30
9.43
0.69
-9.33
-19.56
-28.81
-36.29
-41.89
-46.26
-50.57
-56.12
-63.89
-74.08
-85.85
-97.24
-105.40
-107.29
-100.53
-84.25
-59.46
-28.93
3.60
34.45
60.85
81.43
96.14
105.93
112.21
116.46
119.91
123.46
127.54
132.28
137.52
143.04
148.74
154.70
161.28
169.08
178.85
191.26
206.29
222.74
237.98
248.33
250.10
240.94
220.89
192.42
159.58
126.57
96.40
70.33
48.19
29.11
12.28
-2.83
-16.66
-29.78
-42.93
-56.67
-71.05
-85.41
-98.53
-109.09
-116.24
-119.93
-120.90
-120.38
-119.54
-119.12
-119.25
-119.48
-119.14
-117.69
-114.97
-111.27
-107.06
-102.82
-98.83
-95.20
-91.87
-88.77
-85.84
-83.09
-80.53
-78.19
-76.15
-74.39
-72.79
-71.04
-68.73
-65.55
-61.50
-56.95
-52.53
-48.84
-46.16
-44.48
-43.61
-43.46
-44.10
-45.71
-48.37
-51.87
-55.82
-59.74
-63.19
-65.71
-66.74
-65.57
-61.61
-54.69
-45.36
-34.89
-24.82
-16.48
-10.44
-6.47
-3.79
-1.62
0.50
2.56
4.30
5.49
6.11
6.34
6.45
6.59
6.67
6.45
5.62
4.04
1.82
-0.66
-2.91
-4.54
-5.40
-5.69
-5.83
-6.30
-7.38
-9.08
-11.12
-13.14
-14.84
-16.17
-17.33
-18.71
-20.71
-23.63
-27.55
-32.23
-37.11
-41.30
-43.71
-43.34
-39.60
-32.59
-23.13
-12.56
-2.32
6.47
13.29
18.19
21.61
23.99
25.62
26.57
26.81
26.34
25.31
24.00
22.74
21.72
20.95
20.23
19.28
17.85
15.92
13.70
11.55
9.76
8.37
7.10
5.44
2.94
-0.56
-4.80
-9.17
-13.00
-15.81
-17.58
-18.68
-19.77
-21.47
-24.25
-28.28
-33.43
-39.16
-44.49
-48.02
-48.26
-44.11
-35.37
-23.04
-9.04
4.35
15.35
23.14
27.94
30.56
31.77
32.03
31.37
29.75
27.36
24.74
22.57
21.29
20.86
20.70
20.07
18.40
15.66
12.45
9.61
7.87
7.32
7.33
6.78
4.58
0.23
-5.90
-12.68
-18.72
-22.96
-25.12
-25.73
-25.91
-26.89
-29.65
-34.68
-41.83
-50.19
-57.97
-62.74
-61.99
-53.99
-38.66
-17.91
4.81
25.70
41.82
52.05
56.99
58.29
57.62
55.87
53.15
49.19
43.96
38.03
32.43
28.18
25.82
25.21
25.60
26.10
26.06
25.37
24.31
23.30
22.60
22.13
21.51
20.30
18.24
15.39
12.13
8.84
5.70
2.43
-1.61
-7.15
-14.66
-24.10
-34.90
-46.11
-56.65
-65.49
-71.65
-74.33
-73.00
-67.61
-58.88
-48.18
-37.32
-28.02
-21.39
-17.69
-16.32
-16.15
-16.06
-15.23
-13.44
-10.95
-8.31
-6.02
-4.37
-3.30
-2.52
-1.70
-0.67
0.41
1.08
0.77
-0.90
-3.89
-7.80
-11.92
-15.57
-18.41
-20.55
-22.44
-24.67
-27.82
-32.34
-38.57
-46.59
-55.91
-65.01
-71.22
-71.23
-62.29
-43.49
-16.62
14.17
43.64
67.28
82.73
90.08
91.14
88.15
82.72
75.54
66.84
56.98
46.87
37.80
30.98
27.03
25.82
26.62
28.48
30.56
32.27
33.29
33.43
32.59
30.67
27.62
23.37
17.88
11.16
3.24
-5.80
-15.84
-26.73
-38.03
-48.87
-57.78
-62.84
-62.23
-54.94
-41.37
-23.46
-4.21
13.24
26.60
34.92
38.56
38.66
36.45
32.82
28.21
22.87
17.10
11.37
6.31
2.45
-0.01
-1.28
-2.01
-2.93
-4.67
-7.46
-11.03
-14.78
-18.00
-20.27
-21.64
-22.70
-24.32
-27.38
-32.45
-39.73
-48.78
-58.48
-66.91
-71.53
-69.80
-60.12
-42.74
-20.05
4.04
25.42
41.23
50.66
54.72
55.34
54.19
52.13
49.27
45.56
41.27
37.07
33.65
31.31
29.72
28.12
25.70
22.01
17.16
11.70
6.43
2.02
-1.11
-2.99
-4.02
-4.79
-5.97
-8.09
-11.46
-16.21
-22.28
-29.29
-36.50
-42.62
-46.06
-45.29
-39.53
-29.11
-15.52
-0.96
12.48
23.41
31.37
36.67
39.94
41.66
42.12
41.47
40.00
38.15
36.43
35.18
34.42
33.89
33.21
32.04
30.25
27.86
24.96
21.60
17.76
13.44
8.78
4.20
0.26
-2.53
-3.93
-4.21
-4.07
-4.49
-6.35
-10.26
-16.29
-23.86
-31.77
-38.42
-42.14
-41.73
-36.93
-28.59
-18.39
-8.26
0.32
6.69
11.02
13.83
15.63
16.56
16.55
15.51
13.53
10.84
7.66
4.06
-0.07
-4.78
-9.95
-15.15
-19.84
-23.68
-26.80
-29.91
-34.05
-40.14
-48.49
-58.59
-69.16
-78.56
-85.34
-88.71
-88.87
-87.02
-85.10
-85.32
-89.64
-99.36
-114.71
-134.69
-157.04
-178.63
-196.12
-206.80
-209.19
-203.24
-190.00
-170.92
-147.32
-120.26
-90.98
-61.48
-34.77
-14.31
-2.87
-1.14
-7.11
-16.54
-24.37
-26.46
-20.82
-7.77
10.74
32.46
55.70
79.74
104.46
129.59
154.08
175.65
191.05
196.98
191.33
174.45
149.84
123.53
102.13
90.41
89.46
96.37
105.61
111.54
110.40
101.06
84.52
62.85
38.44
13.91
-7.86
-23.96
-32.19
-31.94
-24.52
-12.88
-0.75
8.00
9.64
0.79
-20.97
-55.98
-101.42
-151.28
-197.85
-234.30
-257.09
-267.00
-268.02
-265.12
-261.99
-260.05
-258.85
-257.36
-255.18
-252.82
-251.19
-250.84
-251.42
-251.76
-250.46
-246.52
-239.79
-230.95
-221.18
-211.49
-202.41
-193.80
-185.08
-175.58
-164.92
-153.23
-141.00
-128.88
-117.32
-106.43
-95.95
-85.45
-74.57
-63.23
-51.59
-39.99
-28.73
-17.91
-7.41
3.01
13.55
24.18
34.65
44.58
53.72
62.07
69.99
77.99
86.55
95.82
105.59
115.36
124.66
133.35
141.78
150.75
161.13
173.54
188.01
203.96
220.46
236.64
252.10
266.96
281.79
297.38
314.51
333.97
356.42
382.01
409.84
437.55
461.47
477.70
483.66
479.59
468.90
457.01
449.18
448.49
454.93
466.10
478.80
490.48
499.70
505.48
506.49
500.82
486.84
464.37
435.36
403.41
372.20
343.82
318.05
292.92
266.28
237.25
206.64
176.37
148.16
122.45
98.16
73.40
46.51
16.95
-14.63
-46.87
-78.42
-108.33
-136.20
-161.98
-185.96
-208.67
-230.98
-253.75
-277.39
-301.33
-324.10
-343.90
-359.72
-372.38
-384.63
-400.28
-422.35
-451.29
-484.04
-514.78
-537.03
-546.10
-540.83
-523.66
-499.32
-472.58
-446.54
-422.09
-398.63
-375.41
-352.62
-331.31
-312.64
-296.83
-282.61
-267.74
-249.99
-228.30
-203.32
-177.07
-152.06
-130.13
-111.64
-95.42
-79.27
-60.85
-38.41
-11.28
19.92
53.35
86.05
114.30
134.45
143.93
142.42
132.27
118.12
105.49
98.94
100.76
110.57
125.90
143.52
160.53
174.94
185.60
191.89
193.39
189.99
182.03
170.55
157.31
144.47
134.10
127.70
125.89
128.34
134.09
141.91
150.78
160.09
169.68
179.57
189.63
199.38
208.07
214.98
219.68
222.25
223.10
222.70
221.30
218.88
215.25
210.31
204.14
196.93
188.67
179.02
167.44
153.55
137.61
120.68
104.36
90.12
78.65
69.55
61.64
53.59
44.69
35.13
25.67
17.04
9.32
1.74
-6.85
-17.30
-29.50
-42.16
-53.31
-61.01
-64.13
-62.72
-57.85
-50.93
-43.19
-35.28
-27.39
-19.64
-12.41
-6.33
-2.05
0.15
0.48
-0.52
-2.40
-5.20
-9.39
-15.51
-23.77
-33.62
-43.94
-53.48
-61.70
-69.18
-77.45
-87.77
-99.91
-111.33
-117.83
-115.09
-100.67
-75.20
-41.98
-5.58
29.79
61.22
86.91
105.71
116.77
120.09
117.29
111.87
108.36
110.46
119.23
132.35
144.91
151.33
147.62
132.64
108.25
78.28
46.78
16.71
-10.69
-35.63
-58.86
-80.56
-99.89
-115.12
-124.43
-126.66
-121.80
-110.90
-95.66
-77.94
-59.51
-41.98
-26.62
-13.97
-3.50
6.60
19.03
36.44
60.36
90.47
124.53
159.12
190.79
217.10
237.20
251.57
261.37
267.67
270.91
270.87
267.04
259.14
247.40
232.69
216.16
198.83
181.29
163.69
145.98
128.21
110.69
93.89
78.24
63.83
50.31
36.97
23.01
7.77
-9.08
-27.53
-47.27
-67.84
-88.77
-109.72
-130.55
-151.46
-173.07
-196.30
-222.13
-251.06
-282.58
-314.74
-344.10
-366.26
-376.89
-373.05
-354.26
-322.90
-283.52
-241.39
-200.93
-164.65
-133.01
-105.06
-79.42
-55.13
-32.02
-10.67
7.77
21.92
30.32
31.66
25.08
10.36
-12.05
-41.35
-76.96
-119.06
-168.43
-225.65
-289.67
-356.72
-420.22
-472.21
-505.86
-517.84
-509.57
-486.41
-455.32
-422.22
-390.27
-359.98
-330.51
-301.26
-272.68
-245.82
-221.42
-198.88
-176.37
-151.54
-122.55
-88.69
-50.55
-9.50
32.68
74.06
112.63
146.31
173.26
192.36
203.62
208.22
208.10
205.23
201.13
196.57
191.89
187.33
183.29
180.18
178.13
176.67
174.79
171.24
164.98
155.52
143.04
128.25
112.06
95.31
78.52
61.88
45.32
28.76
12.42
-2.97
-16.22
-25.89
-30.78
-30.26
-24.55
-14.58
-1.67
12.87
27.96
42.71
56.40
68.31
77.80
84.44
88.15
89.28
88.43
86.32
83.54
80.53
77.55
74.84
72.62
71.06
70.23
69.96
69.81
69.25
67.74
64.94
60.69
54.99
47.92
39.47
29.54
17.88
4.20
-11.66
-29.59
-49.09
-69.14
-88.22
-104.41
-115.55
-119.53
-114.71
-100.25
-76.48
-45.17
-9.33
27.25
60.88
88.75
109.60
123.63
131.97
135.90
136.28
133.49
127.77
119.80
110.84
102.44
95.94
91.86
89.86
89.04
88.45
87.49
85.97
83.89
81.05
77.03
71.24
63.39
53.75
43.12
32.64
23.24
15.37
8.76
2.62
-4.07
-12.16
-22.07
-33.58
-45.85
-57.41
-66.52
-71.60
-71.81
-67.52
-60.30
-52.36
-45.68
-41.26
-38.96
-37.95
-37.50
-37.55
-38.68
-41.58
-46.42
-52.59
-58.96
-64.31
-67.54
-67.63
-63.38
-53.42
-36.73
-13.39
14.92
45.05
73.38
96.92
114.05
124.54
128.90
127.71
121.33
109.94
93.78
73.09
48.04
18.81
-13.82
-47.77
-79.41
-104.21
-118.26
-119.82
-110.12
-92.89
-72.83
-54.02
-38.97
-28.67
-23.26
-22.78
-27.43
-37.27
-51.99
-70.64
-91.94
-114.74
-138.48
-163.24
-189.59
-218.01
-248.08
-278.04
-304.91
-325.38
-337.06
-339.49
-334.35
-324.84
-314.29
-304.88
-297.09
-290.05
-282.34
-272.99
-261.72
-248.88
-234.90
-219.94
-203.68
-185.53
-164.93
-141.67
-115.95
-88.40
-59.90
-31.24
-2.81
25.56
54.69
85.73
119.57
156.21
194.28
230.95
262.44
284.98
295.86
294.39
282.36
263.72
243.53
226.52
215.59
211.13
211.12
212.18
211.01
205.50
195.29
181.54
166.13
150.79
136.28
122.15
107.01
89.13
67.22
40.95
11.21
-20.14
-50.60
-77.44
-98.08
-110.50
-113.56
-107.53
-94.19
-76.45
-57.36
-38.73
-20.19
0.76
27.52
62.46
105.40
153.22
200.80
242.81
275.39
296.86
307.35
307.73
298.68
280.50
253.64
219.47
180.63
140.74
103.25
70.40
42.49
18.05
-5.27
-29.35
-54.53
-79.24
-100.44
-114.98
-120.91
-118.42
-109.75
-98.11
-86.22
-75.11
-63.81
-50.12
-31.93
-8.48
19.18
48.64
77.12
102.53
123.98
141.43
155.04
164.35
168.00
164.10
151.08
128.60
98.07
62.50
25.80
-8.33
-37.27
-59.94
-76.73
-88.96
-98.09
-105.13
-110.38
-113.54
-114.15
-112.12
-107.92
-102.61
-97.49
-93.77
-92.28
-93.43
-97.30
-103.50
-111.16
-118.84
-124.68
-126.89
-124.32
-117.03
-106.37
-94.60
-84.10
-76.66
-72.95
-72.53
-74.21
-76.57
-78.49
-79.31
-78.79
-76.97
-73.91
-69.59
-63.87
-56.65
-47.83
-37.30
-24.84
-10.25
6.40
24.45
42.45
58.40
70.29
76.77
77.57
73.40
65.44
54.57
41.04
24.51
4.85
-17.08
-38.76
-56.25
-65.16
-62.24
-46.55
-20.08
12.97
47.52
79.11
104.75
123.07
133.77
137.11
133.61
124.16
110.26
94.06
78.02
64.40
54.85
50.11
50.10
54.09
60.95
69.33
77.91
85.52
91.36
95.08
96.71
96.54
94.90
91.87
87.21
80.42
71.07
59.18
45.59
31.98
20.39
12.50
8.95
9.08
11.21
13.41
14.30
13.46
11.22
8.08
4.06
-1.52
-9.73
-21.26
-35.85
-51.98
-67.32
-79.36
-86.29
-87.50
-83.58
-76.04
-66.68
-57.20
-48.91
-42.77
-39.46
-39.32
-42.34
-48.05
-55.57
-64.00
-72.61
-80.92
-88.40
-93.95
-95.67
-91.17
-78.47
-57.06
-28.51
3.90
36.11
64.63
87.30
103.40
113.08
116.74
114.79
107.77
96.83
83.87
71.27
61.26
55.25
53.39
54.73
57.71
60.84
63.32
65.22
67.25
70.27
74.75
80.30
85.70
89.06
88.37
82.11
69.99
53.43
35.69
21.30
15.04
20.39
38.35
66.85
101.24
135.61
164.51
184.31
193.87
194.18
187.52
176.43
163.04
148.87
134.75
120.86
106.68
90.95
72.06
48.85
21.42
-8.39
-37.49
-62.61
-81.78
-95.05
-104.43
-112.81
-122.74
-135.59
-151.38
-169.10
-187.14
-203.52
-215.99
-222.30
-220.69
-210.55
-192.85
-170.08
-145.58
-122.56
-103.40
-89.23
-80.14
-75.60
-74.86
-77.11
-81.43
-86.73
-91.81
-95.55
-97.23
-96.64
-94.17
-90.54
-86.46
-82.46
-78.73
-75.26
-72.01
-69.14
-67.02
-66.20
-67.27
-70.50
-75.64
-81.64
-86.67
-88.47
-84.99
-75.01
-58.68
-37.59
-14.36
8.01
26.95
40.85
49.21
52.53
51.88
48.52
43.57
37.87
31.97
26.16
20.51
15.01
9.57
4.14
-1.23
-6.32
-10.78
-14.12
-15.92
-16.01
-14.71
-12.95
-12.16
-13.98
-19.72
-29.70
-42.99
-57.29
-69.44
-76.26
-75.44
-66.20
-49.43
-27.39
-3.01
20.76
41.55
57.71
68.32
73.02
71.91
65.53
54.93
41.62
27.27
13.50
1.47
-8.20
-15.47
-20.66
-24.25
-26.73
-28.51
-30.00
-31.70
-34.23
-38.38
-44.97
-54.61
-67.40
-82.63
-98.59
-112.77
-122.29
-124.54
-117.85
-101.82
-77.52
-47.23
-14.04
18.74
48.26
72.53
90.70
102.95
110.10
113.20
113.29
111.25
108.07
104.85
102.80
102.80
105.03
108.68
112.18
113.74
112.02
106.64
98.17
87.78
76.72
65.81
55.29
44.79
33.57
20.80
5.92
-10.94
-28.66
-45.09
-57.58
-63.78
-62.60
-54.69
-42.21
-28.00
-14.42
-2.78
6.67
14.13
19.53
22.35
21.89
17.96
11.25
3.17
-4.76
-11.63
-17.46
-23.06
-29.37
-36.81
-45.05
-53.15
-60.00
-64.87
-67.61
-68.63
-68.70
-68.78
-69.74
-72.34
-76.89
-83.11
-89.88
-95.36
-97.26
-93.50
-82.87
-65.53
-43.03
-17.97
6.71
28.48
45.64
57.48
64.02
65.77
63.40
57.68
49.64
40.50
31.69
24.51
19.80
17.67
17.53
18.35
19.14
19.22
18.42
17.00
15.26
13.41
11.30
8.45
4.13
-2.41
-11.66
-23.47
-36.68
-49.10
-57.79
-59.83
-53.23
-37.70
-14.84
12.19
39.40
62.87
79.37
86.78
84.28
72.46
53.20
29.40
4.39
-18.75
-37.92
-52.20
-61.91
-68.21
-72.58
-76.44
-80.71
-85.70
-91.18
-96.54
-101.11
-104.46
-106.47
-107.47
-108.12
-109.33
-111.95
-116.44
-122.49
-128.78
-133.15
-133.22
-127.14
-114.45
-96.25
-74.88
-53.16
-33.53
-17.61
-6.03
1.19
4.42
4.13
0.95
-4.31
-10.54
-16.45
-20.80
-22.75
-21.99
-18.92
-14.40
-9.34
-4.49
-0.17
3.60
6.82
9.36
10.87
10.85
8.79
4.23
-3.26
-13.93
-27.46
-42.62
-57.09
-67.75
-71.46
-66.00
-50.81
-27.08
2.71
35.50
68.37
98.82
124.83
144.79
157.55
162.55
160.10
151.50
138.95
125.08
112.35
102.46
95.80
91.52
87.88
83.06
75.84
65.98
54.15
41.48
28.98
17.12
5.73
-5.88
-18.67
-33.45
-50.44
-68.77
-86.19
-99.23
-103.92
-97.03
-77.26
-45.97
-6.90
34.81
74.02
106.68
130.35
144.10
148.13
143.49
131.93
115.90
98.28
81.96
69.19
61.05
57.33
56.73
57.53
58.16
57.75
56.32
54.54
53.33
53.30
54.38
55.67
55.71
52.90
46.09
35.12
21.02
6.02
-7.00
-15.13
-16.24
-9.59
3.95
22.22
42.39
61.62
77.68
89.15
95.30
95.89
91.16
81.72
68.77
53.97
39.23
26.27
16.26
9.48
5.37
2.83
0.60
-2.36
-6.58
-12.09
-18.57
-25.60
-32.88
-40.40
-48.40
-57.26
-67.34
-78.69
-90.85
-102.62
-111.99
-116.38
-113.20
-100.57
-78.13
-47.35
-11.27
26.22
61.43
91.67
115.63
133.14
144.81
151.68
154.99
156.25
157.03
158.84
162.62
168.50
175.75
182.99
188.83
192.26
193.08
191.76
189.03
185.44
180.99
175.10
166.92
155.95
142.42
127.54
113.23
101.58
94.14
91.49
93.22
98.26
105.25
112.73
119.16
122.73
121.44
113.44
97.64
74.22
44.79
11.94
-21.49
-53.23
-82.05
-107.69
-130.52
-151.12
-169.87
-187.06
-202.82
-217.32
-230.64
-242.81
-253.81
-263.76
-273.25
-283.50
-296.07
-312.24
-332.05
-353.70
-373.72
-387.88
-392.66
-386.58
-370.62
-347.77
-321.86
-296.36
-273.66
-255.10
-241.27
-232.44
-228.56
-229.08
-232.68
-237.33
-240.70
-240.82
-236.58
-227.87
-215.32
-199.85
-182.25
-163.02
-142.55
-121.39
-100.51
-81.28
-65.21
-53.69
-47.71
-47.71
-53.39
-63.53
-75.77
-86.83
-92.99
-91.06
-79.24
-57.49
-27.45
8.32
46.97
85.76
122.11
153.45
177.33
191.85
196.23
191.23
178.98
162.42
144.41
127.10
111.63
98.23
86.48
75.70
65.22
54.49
43.22
31.28
18.57
4.97
-9.77
-25.99
-44.13
-64.54
-87.17
-111.24
-134.92
-155.40
-169.35
-173.76
-166.83
-148.48
-120.27
-84.95
-45.74
-5.76
32.21
65.86
93.41
113.65
126.25
131.71
131.30
126.79
120.10
113.04
106.99
102.79
100.53
99.69
99.34
98.57
96.80
93.95
90.35
86.52
82.94
79.90
77.54
75.85
74.90
74.99
76.72
81.00
88.90
101.37
118.95
141.63
168.82
199.37
231.79
264.21
294.59
320.72
340.56
352.55
355.98
351.08
338.74
320.18
296.49
268.54
237.06
202.89
167.19
131.41
97.16
65.95
39.14
17.82
2.80
-5.58
-7.65
-4.57
1.77
9.15
15.58
19.73
21.12
20.03
17.31
14.15
11.90
11.79
14.53
19.85
26.26
31.25
32.00
26.35
13.56
-5.38
-28.21
-52.22
-75.22
-95.98
-114.21
-130.10
-143.78
-155.08
-163.65
-169.41
-172.88
-175.16
-177.63
-181.29
-186.40
-192.31
-197.77
-201.50
-202.79
-201.84
-199.74
-198.30
-199.56
-205.36
-216.83
-233.69
-253.73
-272.64
-284.64
-283.94
-266.52
-231.56
-181.65
-121.83
-57.76
6.16
67.67
126.62
184.19
241.97
301.35
362.94
426.11
488.56
546.36
594.71
629.26
647.63
650.21
639.95
621.14
597.79
572.44
545.83
517.49
486.57
452.66
415.94
377.05
336.68
295.32
253.35
211.14
169.33
128.92
90.97
56.20
24.63
-4.54
-32.58
-60.76
-89.89
-120.10
-150.92
-181.52
-210.86
-237.77
-261.07
-279.90
-293.91
-303.38
-309.11
-312.09
-313.22
-312.95
-311.22
-307.65
-301.94
-293.99
-283.92
-271.75
-257.29
-240.44
-221.06
-199.28
-175.74
-151.70
-128.86
-108.90
-92.80
-80.74
-72.87
-68.73
-67.54
-68.46
-71.04
-75.41
-82.12
-91.41
-103.18
-118.02
-135.24
-152.76
-167.58
-177.02
-180.04
-177.53
-171.22
-163.67
-159.38
-161.20
-169.49
-182.19
-196.07
-208.51
-218.15
-224.37
-228.65
-236.34
-251.68
-275.83
-305.89
-336.47
-362.65
-381.79
-393.08
-377.37
-324.02
-233.44
-119.07
-0.25
107.28
194.42
252.36
285.36
297.72
290.77
267.74
234.47
198.61
169.44
152.41
148.52
156.03
169.79
181.81
185.63
178.08
160.06
135.89
111.03
90.60
78.46
74.76
75.71
77.16
76.72
75.02
74.61
77.19
82.22
87.24
88.35
82.27
68.57
49.74
29.78
12.33
-0.94
-10.17
-16.27
-20.50
-23.86
-26.76
-29.29
-31.38
-33.02
-34.27
-35.13
-35.40
-34.98
-34.22
-33.94
-35.39
-39.51
-46.14
-53.39
-57.73
-55.07
-42.26
-18.53
13.97
50.71
86.12
115.23
134.80
143.72
142.69
133.57
118.66
100.28
80.54
61.25
43.96
29.77
19.13
11.75
6.57
2.24
-2.39
-7.80
-13.68
-19.34
-24.33
-28.84
-33.74
-39.90
-47.61
-56.12
-63.88
-69.22
-71.24
-70.40
-68.39
-67.63
-70.24
-77.12
-87.23
-97.50
-103.36
-99.94
-83.45
-52.54
-8.95
42.84
96.83
147.15
189.46
221.59
243.38
255.80
260.17
257.57
248.63
233.69
212.90
186.27
153.80
115.74
72.95
27.20
-18.76
-61.67
-98.59
-127.66
-148.53
-162.06
-169.59
-172.12
-169.91
-162.68
-150.21
-132.96
-112.25
-90.13
-68.90
-50.87
-38.27
-33.17
-37.07
-50.03
-69.63
-90.57
-105.47
-107.05
-90.80
-56.98
-10.84
39.06
83.84
116.99
135.85
141.26
136.03
123.24
105.22
83.55
59.69
35.44
12.96
-5.77
-19.81
-29.67
-37.18
-44.80
-54.60
-67.64
-83.69
-101.59
-119.78
-136.81
-151.58
-163.41
-172.03
-177.68
-181.17
-183.85
-187.29
-192.70
-200.20
-208.46
-214.81
-215.99
-209.05
-192.26
-165.59
-130.73
-90.79
-49.68
-11.35
20.95
45.16
60.72
68.39
69.77
66.75
61.08
54.34
48.00
43.62
42.82
46.83
56.03
69.56
85.45
101.26
115.00
125.84
134.30
141.79
149.71
158.62
167.73
175.12
178.25
174.76
163.12
143.00
115.59
83.66
51.42
23.97
6.22
1.53
10.63
31.24
58.81
87.94
114.01
134.18
147.43
153.80
153.55
146.69
133.14
113.37
88.84
61.94
35.35
11.19
-9.59
-27.29
-43.22
-59.10
-76.56
-96.72
-119.98
-145.89
-173.21
-200.26
-225.27
-246.94
-264.61
-278.31
-288.58
-296.15
-301.60
-305.03
-305.90
-302.94
-294.51
-279.10
-255.94
-225.32
-188.53
-147.32
-103.18
-57.07
-9.51
38.78
86.36
131.00
170.36
202.93
228.82
249.95
269.19
289.15
310.77
332.76
351.92
364.55
367.99
361.89
348.34
330.94
313.33
297.64
283.72
269.33
251.07
225.70
191.18
147.15
94.94
37.33
-21.69
-77.22
-123.88
-156.71
-172.50
-171.04
-155.66
-132.74
-109.89
-93.65
-87.60
-91.59
-102.53
-116.09
-128.55
-137.85
-143.62
-146.32
-146.37
-143.65
-137.53
-127.40
-113.07
-94.93
-73.86
-50.88
-27.03
-3.29
19.37
40.05
57.89
72.25
82.70
89.01
91.25
89.62
84.52
76.29
65.13
51.07
34.36
16.00
-1.68
-15.18
-20.71
-15.72
-0.34
22.13
45.95
64.77
73.77
70.92
57.19
35.51
9.40
-18.23
-45.46
-71.17
-94.59
-115.07
-132.15
-145.73
-156.30
-164.75
-172.03
-178.60
-183.99
-186.59
-183.98
-173.67
-154.02
-125.11
-89.05
-49.53
-10.79
23.66
51.74
73.08
88.54
99.62
107.99
115.35
123.65
135.08
151.73
174.86
204.18
237.55
271.51
302.47
327.93
347.17
360.89
370.12
375.07
374.71
367.36
351.89
328.73
300.07
269.07
238.66
210.62
185.42
162.76
142.09
122.93
104.69
86.23
65.85
41.50
11.72
-23.75
-63.53
-105.02
-145.26
-181.94
-214.17
-242.25
-266.78
-287.36
-301.78
-306.26
-296.75
-270.48
-227.03
-168.39
-98.03
-19.88
62.34
144.89
223.42
292.76
347.46
383.13
397.97
393.50
374.21
346.10
314.86
284.42
256.42
230.43
204.88
178.01
148.62
116.38
81.86
46.08
10.13
-25.19
-59.63
-93.52
-127.67
-163.43
-202.61
-247.24
-298.73
-356.45
-416.67
-472.52
-515.55
-538.61
-538.61
-517.67
-482.18
-439.95
-397.30
-357.46
-320.88
-286.97
-255.68
-228.20
-206.27
-190.88
-181.38
-175.48
-170.10
-162.54
-151.31
-136.50
-119.46
-102.07
-85.97
-72.04
-60.26
-49.98
-40.43
-31.15
-22.18
-13.98
-7.24
-2.77
-1.36
-3.61
-9.42
-17.69
-25.98
-30.74
-28.25
-15.69
7.66
39.98
77.19
114.11
145.85
169.02
182.34
186.45
183.21
174.76
162.84
148.63
132.87
116.35
100.17
85.76
74.54
67.56
65.22
67.25
72.89
81.04
90.46
99.83
107.78
112.94
114.24
111.03
103.26
91.41
76.25
58.50
38.52
16.28
-8.36
-35.14
-62.88
-89.32
-111.51
-126.70
-133.28
-131.54
-123.72
-113.44
-104.64
-100.28
-101.59
-107.67
-116.01
-123.40
-127.06
-125.43
-118.44
-107.23
-93.40
-78.39
-63.07
-47.77
-32.57
-17.67
-3.44
9.67
21.38
31.66
40.67
48.64
55.66
61.71
66.70
70.50
72.98
73.92
72.86
69.08
61.81
50.56
35.59
18.30
1.21
-12.42
-19.44
-17.74
-7.05
10.81
32.42
53.83
71.73
84.35
91.57
94.44
94.26
92.01
88.02
82.41
75.48
68.07
61.36
56.41
53.62
52.51
51.95
50.75
48.14
44.09
39.08
33.67
28.15
22.31
15.69
7.95
-0.76
-9.84
-18.52
-26.35
-33.60
-41.26
-50.71
-63.10
-78.66
-96.39
-113.96
-128.12
-135.41
-132.97
-119.35
-95.06
-62.73
-26.55
8.68
38.69
60.82
74.34
80.25
80.49
77.10
71.78
65.85
60.35
56.22
54.20
54.36
55.97
57.49
57.18
53.74
46.88
37.41
26.85
16.88
8.69
2.79
-0.93
-3.00
-4.06
-4.75
-5.66
-7.33
-10.06
-13.79
-17.81
-20.81
-21.25
-17.99
-10.96
-1.25
9.34
19.28
27.99
36.16
45.14
56.11
69.35
84.04
98.72
111.83
122.17
128.83
131.05
128.07
119.27
104.59
84.87
61.75
37.31
13.47
-8.51
-28.17
-45.74
-61.83
-77.13
-92.18
-107.22
-122.16
-136.44
-149.18
-159.30
-165.81
-168.29
-167.09
-163.31
-158.27
-152.91
-147.15
-139.92
-129.61
-114.88
-95.39
-71.99
-46.45
-20.79
3.42
25.27
44.47
61.00
74.81
85.67
93.31
97.63
98.98
98.20
96.48
95.01
94.57
95.32
96.86
98.58
100.00
100.93
101.44
101.52
100.95
99.27
96.13
91.44
85.42
78.28
69.79
59.09
44.93
26.28
3.21
-22.65
-48.19
-69.59
-83.51
-88.17
-83.76
-72.32
-56.90
-40.53
-25.47
-12.86
-2.90
4.72
10.28
13.90
15.56
15.38
13.78
11.48
9.28
7.76
7.08
6.93
6.75
6.10
4.81
3.13
1.47
0.30
-0.10
0.35
1.47
2.87
3.82
3.37
0.36
-6.30
-17.21
-32.03
-49.11
-65.44
-77.11
-80.31
-72.47
-53.23
-24.74
8.92
42.94
73.14
97.00
113.92
124.81
131.29
134.84
136.25
135.48
131.82
124.44
112.81
97.22
79.02
60.62
45.12
35.58
34.23
41.50
55.65
72.92
88.53
98.07
99.00
91.28
77.21
60.24
43.53
28.88
16.28
4.35
-9.05
-25.85
-46.93
-71.38
-96.13
-116.37
-126.80
-123.60
-106.15
-77.79
-44.84
-14.43
8.02
20.41
23.88
21.50
16.37
10.28
3.37
-5.25
-16.58
-30.90
-47.62
-65.45
-82.95
-98.98
-112.85
-124.19
-132.64
-137.64
-138.46
-134.63
-126.44
-115.26
-103.44
-93.57
-87.76
-86.84
-90.32
-96.71
-104.21
-111.06
-115.62
-116.26
-111.29
-99.29
-79.77
-53.79
-24.11
5.46
31.04
49.91
61.09
65.32
64.42
60.42
54.86
48.62
42.04
35.29
28.72
22.88
18.44
15.83
15.01
15.36
15.85
15.39
13.21
9.13
3.55
-2.74
-8.93
-14.51
-19.43
-24.06
-28.92
-34.35
-40.33
-46.36
-51.64
-55.24
-56.33
-54.35
-49.10
-40.82
-30.26
-18.52
-6.84
3.74
12.66
19.79
25.35
29.44
31.86
32.06
29.47
23.88
15.81
6.52
-2.27
-8.91
-12.48
-13.15
-12.18
-11.29
-11.91
-14.40
-17.95
-21.26
-23.69
-26.19
-31.43
-42.95
-63.66
-94.39
-133.22
-175.74
-216.11
-248.50
-268.33
-273.19
-263.15
-240.50
-209.08
-173.33
-137.52
-105.19
-79.05
-61.16
-53.05
-55.65
-69.00
-91.92
-121.97
-155.56
-188.48
-216.46
-235.83
-244.11
-240.42
-225.58
-201.62
-171.13
-136.46
-99.49
-61.72
-24.67
9.76
39.46
62.51
77.65
84.53
83.65
76.18
64.01
49.89
37.51
31.08
34.37
49.49
75.92
110.43
148.03
183.41
212.52
233.33
245.84
251.33
251.43
247.49
240.57
231.75
222.52
214.65
209.72
208.36
209.80
212.23
213.67
213.08
210.83
208.35
207.07
207.20
207.19
204.06
194.49
176.04
147.88
110.70
66.30
17.09
-33.80
-82.15
-122.58
-149.05
-156.41
-142.28
-108.32
-60.18
-6.02
45.89
89.36
121.40
141.95
152.57
155.10
150.80
140.29
124.15
103.37
79.60
54.66
29.80
5.28
-19.74
-46.54
-76.01
-108.05
-141.49
-174.53
-205.39
-232.86
-256.28
-275.35
-289.86
-299.73
-305.32
-307.61
-307.84
-306.84
-304.25
-298.22
-286.05
-265.32
-234.94
-195.53
-148.96
-97.54
-43.45
11.19
63.87
111.34
149.94
176.67
190.47
193.05
188.69
183.09
181.78
188.62
205.02
229.88
260.34
292.63
322.90
347.77
364.46
370.93
365.99
349.50
322.57
287.39
246.56
202.22
155.35
105.80
53.15
-1.94
-56.82
-106.75
-146.15
-170.42
-177.56
-168.95
-148.75
-122.54
-95.68
-72.24
-54.69
-44.23
-41.30
-45.87
-57.47
-74.96
-96.47
-119.61
-141.92
-161.37
-176.84
-188.14
-195.84
-200.95
-204.59
-207.76
-211.28
-215.79
-221.80
-229.63
-239.47
-251.28
-264.72
-278.99
-292.47
-302.70
-306.62
-301.35
-285.25
-258.72
-224.23
-185.58
-146.40
-108.85
-73.04
-37.35
0.57
42.59
89.19
138.92
188.43
233.21
268.65
291.51
301.18
300.01
292.56
283.86
277.57
274.76
274.04
272.77
268.56
260.33
248.44
233.96
217.73
199.83
179.55
155.92
128.18
96.28
61.11
24.40
-11.39
-43.51
-69.47
-87.82
-98.65
-103.70
-105.77
-107.83
-112.13
-119.84
-131.32
-146.63
-165.94
-189.35
-216.21
-244.52
-270.71
-290.39
-299.69
-296.54
-281.44
-257.09
-227.16
-194.66
-160.88
-125.33
-86.81
-45.01
-1.57
39.83
74.65
99.19
112.09
114.82
111.21
106.32
105.21
112.02
129.38
158.00
196.65
242.14
289.96
335.48
375.23
407.94
434.62
457.65
479.24
500.06
518.54
531.47
535.38
527.99
509.16
480.68
445.29
405.50
362.97
318.48
272.49
225.64
178.99
133.83
91.29
52.02
16.19
-16.36
-45.95
-72.87
-97.35
-119.60
-139.65
-157.30
-172.14
-183.51
-190.61
-192.60
-188.62
-177.92
-160.09
-135.42
-105.37
-72.78
-41.74
-16.95
-2.60
-1.22
-12.84
-34.94
-63.34
-93.72
-123.27
-151.42
-179.48
-209.27
-241.49
-274.91
-306.67
-333.78
-354.76
-370.68
-384.75
-400.85
-421.68
-447.35
-475.15
-500.27
-517.42
-522.34
-512.93
-489.50
-454.43
-411.25
-363.67
-314.92
-267.39
-222.61
-181.32
-143.48
-108.24
-74.09
-39.21
-2.08
37.92
80.32
123.75
166.77
208.50
249.28
290.75
335.29
385.09
441.00
501.53
562.56
618.00
661.13
686.66
692.45
680.45
656.14
626.60
597.99
573.47
552.52
531.88
507.59
476.92
439.37
396.43
350.39
303.18
255.87
208.80
162.25
116.86
73.37
32.21
-6.93
-45.13
-83.56
-122.83
-162.53
-201.39
-237.81
-270.86
-300.92
-329.77
-359.83
-392.73
-427.94
-462.01
-488.79
-500.84
-491.62
-457.55
-399.52
-323.09
-237.47
-153.42
-80.70
-25.95
8.56
24.74
27.39
22.32
14.70
8.23
5.01
5.79
10.21
16.78
23.03
26.12
23.69
14.80
0.27
-17.60
-35.92
-52.32
-65.60
-75.87
-84.16
-91.86
-100.09
-109.27
-118.84
-127.30
-132.60
-133.01
-127.83
-117.80
-104.74
-90.65
-76.79
-63.21
-48.95
-32.81
-14.04
7.32
30.47
54.33
77.76
99.58
118.28
132.20
139.93
141.18
137.34
131.39
126.83
126.12
129.33
133.72
134.63
127.04
107.24
73.63
26.61
-31.99
-99.40
-171.88
-244.45
-310.90
-364.70
-400.48
-415.68
-411.28
-391.24
-360.84
-324.77
-286.19
-246.98
-208.84
-174.30
-146.75
-129.46
-124.20
-130.38
-145.23
-164.96
-186.04
-205.91
-222.79
-234.94
-240.12
-235.88
-220.37
-193.32
-156.39
-112.55
-65.00
-16.23
32.23
79.27
123.54
163.15
196.12
221.25
238.78
250.36
258.22
263.97
267.82
268.55
264.44
254.34
238.54
218.85
197.97
178.39
161.65
147.94
136.47
126.01
115.61
104.95
94.29
84.08
74.60
65.75
57.12
48.16
38.45
27.87
16.69
5.80
-3.02
-7.10
-3.37
10.70
35.81
69.85
107.75
142.44
166.44
173.78
161.41
129.83
82.90
26.84
-30.99
-83.57
-125.41
-153.40
-166.97
-167.80
-159.17
-144.99
-128.98
-113.93
-101.46
-91.98
-85.03
-79.83
-75.57
-71.77
-68.30
-65.32
-63.17
-62.13
-62.23
-62.87
-62.67
-59.65
-51.61
-36.85
-14.99
12.75
43.61
74.07
100.83
121.74
136.23
144.86
148.61
148.04
143.00
132.98
118.03
99.40
79.66
61.95
48.88
41.77
40.47
43.95
50.91
60.00
69.79
78.67
85.33
89.51
92.69
98.02
109.32
129.46
158.91
195.09
233.00
266.69
291.01
302.96
302.07
290.11
270.12
245.35
218.46
191.10
163.99
137.18
110.33
82.87
53.90
22.35
-12.63
-50.84
-90.69
-129.19
-162.82
-188.72
-205.53
-213.56
-214.15
-208.70
-198.18
-183.10
-164.08
-142.39
-119.96
-98.95
-81.09
-67.18
-57.07
-50.08
-45.41
-42.52
-41.12
-41.11
-42.32
-44.25
-45.95
-46.07
-43.12
-35.99
-24.43
-9.25
7.90
25.17
41.11
55.07
67.02
77.11
85.13
90.39
91.99
89.41
82.90
73.58
63.01
52.55
42.82
33.57
23.92
13.03
0.62
-12.72
-25.68
-36.78
-44.92
-49.90
-52.47
-54.06
-56.29
-60.54
-67.68
-77.86
-90.42
-103.86
-116.01
-124.44
-127.15
-123.27
-113.48
-99.80
-84.90
-71.18
-60.11
-51.97
-46.19
-41.97
-38.67
-36.03
-34.05
-32.71
-31.88
-31.28
-30.69
-29.94
-29.06
-28.11
-27.15
-26.15
-25.08
-23.93
-22.81
-21.95
-21.76
-22.75
-25.46
-30.24
-37.13
-45.73
-55.31
-64.95
-73.69
-80.61
-84.87
-85.67
-82.41
-74.94
-63.80
-50.34
-36.45
-24.07
-14.70
-8.95
-6.58
-6.74
-8.39
-10.59
-12.61
-13.90
-14.03
-12.76
-10.12
-6.58
-3.00
-0.44
0.31
-0.97
-3.80
-7.22
-10.29
-12.40
-13.50
-13.78
-13.47
-12.53
-10.79
-8.09
-4.45
-0.17
4.45
9.17
13.76
17.77
20.36
20.37
16.79
9.31
-1.26
-13.11
-24.03
-32.26
-37.02
-38.63
-37.95
-35.64
-31.68
-25.32
-15.74
-2.76
12.70
28.94
44.18
57.38
68.39
77.53
84.76
89.15
89.14
83.47
72.15
56.92
40.74
26.58
16.30
10.04
6.65
4.60
3.07
2.38
3.82
8.90
18.49
32.12
47.99
63.41
75.76
83.36
86.01
84.87
81.80
78.41
75.46
72.74
69.40
64.65
58.27
50.77
43.15
36.44
31.13
27.04
23.43
19.45
14.57
8.77
2.38
-4.22
-10.83
-17.48
-24.29
-31.20
-37.87
-43.64
-47.85
-49.98
-49.82
-47.32
-42.56
-35.67
-26.85
-16.55
-5.37
6.03
17.14
27.76
37.93
47.73
57.01
65.28
71.73
75.56
76.23
73.67
68.26
60.63
51.47
41.36
30.87
20.51
10.83
2.27
-4.88
-10.69
-15.53
-20.00
-24.75
-30.28
-36.85
-44.43
-52.67
-61.07
-69.04
-75.97
-81.22
-84.14
-84.16
-80.85
-74.27
-65.02
-54.31
-43.62
-34.32
-27.24
-22.52
-19.70
-18.00
-16.74
-15.52
-14.35
-13.56
-13.72
-15.48
-19.41
-25.80
-34.45
-44.55
-54.85
-63.95
-70.75
-74.85
-76.64
-77.21
-78.08
-80.63
-85.50
-92.13
-98.66
-102.38
-100.61
-91.83
-76.36
-56.43
-35.40
-16.66
-2.57
6.00
9.41
8.63
4.59
-2.10
-10.93
-21.30
-32.29
-42.90
-52.38
-60.58
-68.03
-75.73
-84.74
-95.72
-108.69
-123.09
-137.85
-151.65
-163.13
-171.13
-175.07
-175.17
-172.63
-169.36
-167.36
-167.83
-170.42
-173.12
-172.82
-166.41
-152.01
-129.59
-100.98
-69.02
-36.59
-5.84
22.02
46.46
67.13
83.60
95.43
102.52
105.47
105.49
104.18
102.90
102.42
102.74
103.28
103.27
102.07
99.47
95.65
91.00
85.91
80.56
74.83
68.33
60.54
50.92
39.25
25.80
11.58
-1.74
-12.14
-17.70
-17.23
-10.66
0.94
15.69
31.38
46.06
58.32
67.28
72.40
73.39
70.16
63.10
53.17
41.93
31.23
22.66
17.06
14.32
13.50
13.31
12.65
10.93
8.15
4.67
0.87
-3.10
-7.38
-12.39
-18.61
-26.46
-36.07
-47.07
-58.50
-68.79
-75.94
-77.96
-73.46
-62.12
-44.92
-23.99
-2.00
18.44
35.46
48.12
56.35
60.52
61.20
58.98
54.51
48.63
42.32
36.56
31.96
28.58
25.95
23.30
20.14
16.41
12.59
9.42
7.43
6.69
6.69
6.55
5.31
2.30
-2.59
-8.72
-14.70
-18.51
-18.04
-11.61
1.38
20.16
42.73
66.41
88.62
107.44
121.82
131.42
136.23
136.40
132.17
124.13
113.35
101.45
90.15
80.82
74.03
69.39
65.90
62.34
57.95
52.53
46.37
39.85
33.00
25.45
16.48
5.43
-8.12
-24.15
-42.22
-61.39
-80.17
-96.54
-108.17
-112.99
-109.81
-98.87
-81.84
-61.29
-39.79
-19.14
-0.05
17.65
34.22
49.56
62.91
73.34
80.31
84.19
86.25
88.14
91.09
95.27
99.74
102.92
103.34
100.36
94.36
86.48
77.98
69.66
61.53
52.92
42.81
30.37
15.48
-1.03
-17.34
-31.07
-39.77
-41.66
-36.14
-23.92
-6.86
12.56
31.86
49.02
62.72
72.30
77.56
78.55
75.57
69.13
60.13
49.79
39.46
30.30
23.00
17.57
13.39
9.59
5.38
0.37
-5.39
-11.56
-17.73
-23.71
-29.54
-35.51
-42.01
-49.60
-58.79
-69.90
-82.78
-96.45
-109.06
-118.24
-121.74
-118.21
-107.82
-92.22
-74.05
-56.06
-40.40
-28.18
-19.54
-13.96
-10.63
-8.72
-7.51
-6.33
-4.68
-2.22
1.18
5.41
10.34
15.88
22.02
28.60
35.15
40.74
44.22
44.60
41.64
36.14
29.77
24.52
21.93
22.44
25.27
28.83
31.45
32.12
30.88
28.74
27.21
27.60
30.60
36.12
43.45
51.72
60.22
68.53
76.42
83.65
89.86
94.62
97.65
98.94
98.82
97.65
95.67
92.78
88.66
82.99
75.78
67.58
59.37
52.28
47.19
44.46
43.82
44.43
45.24
45.22
43.62
40.03
34.45
27.24
19.23
11.67
6.16
4.31
7.14
14.73
25.94
38.87
51.37
61.78
69.24
73.49
74.56
72.21
66.01
55.53
40.85
22.94
3.57
-15.05
-30.90
-42.60
-49.78
-52.97
-53.32
-52.19
-50.70
-49.48
-48.67
-48.07
-47.41
-46.71
-46.25
-46.58
-48.27
-51.72
-56.99
-63.73
-71.17
-78.14
-83.26
-85.15
-82.80
-75.87
-64.92
-51.28
-36.74
-23.08
-11.59
-2.92
2.88
6.13
7.18
6.35
3.93
0.29
-4.04
-8.36
-12.00
-14.54
-15.91
-16.40
-16.48
-16.57
-16.93
-17.72
-19.01
-20.97
-23.87
-27.97
-33.47
-40.38
-48.59
-57.80
-67.49
-76.84
-84.62
-89.26
-89.19
-83.34
-71.59
-55.01
-35.58
-15.72
2.34
17.06
27.67
34.14
36.85
36.40
33.50
28.88
23.36
17.70
12.64
8.73
6.28
5.33
5.61
6.54
7.46
7.69
6.77
4.57
1.32
-2.48
-6.31
-9.76
-12.77
-15.60
-18.71
-22.60
-27.54
-33.54
-40.15
-46.65
-52.02
-55.10
-54.82
-50.46
-41.88
-29.72
-15.32
-0.45
13.05
23.82
31.15
35.12
36.35
35.67
33.86
31.43
28.64
25.58
22.37
19.22
16.45
14.38
13.20
12.77
12.69
12.35
11.14
8.71
5.18
1.17
-2.33
-4.26
-4.03
-1.71
1.80
5.12
6.76
5.59
1.13
-6.37
-16.02
-26.39
-35.72
-42.22
-44.40
-41.43
-33.49
-21.76
-8.15
5.26
16.76
25.36
30.80
33.34
33.48
31.63
28.16
23.38
17.74
11.82
6.29
1.70
-1.67
-3.99
-5.77
-7.64
-10.12
-13.37
-17.24
-21.29
-25.08
-28.29
-30.88
-33.06
-35.11
-37.34
-40.03
-43.35
-47.42
-52.11
-56.93
-60.91
-62.76
-61.15
-55.28
-45.20
-31.95
-17.24
-3.00
9.17
18.37
24.38
27.47
28.13
26.84
24.02
20.03
15.32
10.44
6.00
2.53
0.32
-0.67
-0.88
-0.90
-1.34
-2.51
-4.44
-6.83
-9.36
-11.81
-14.19
-16.81
-19.98
-24.07
-29.21
-35.28
-41.84
-48.00
-52.56
-54.16
-51.66
-44.59
-33.45
-19.63
-5.12
8.19
19.02
26.93
32.28
35.71
37.81
38.82
38.67
37.26
34.65
31.29
27.84
25.00
23.22
22.56
22.64
22.85
22.47
20.89
17.82
13.30
7.69
1.62
-4.28
-9.56
-14.08
-18.06
-21.96
-26.22
-30.94
-35.71
-39.48
-40.78
-38.06
-30.22
-17.17
-0.05
18.81
36.42
49.88
57.21
57.84
52.61
43.30
31.95
20.25
9.24
-0.60
-9.09
-16.04
-21.19
-24.35
-25.57
-25.29
-24.19
-22.93
-21.98
-21.45
-21.22
-21.13
-21.11
-21.28
-21.78
-22.68
-23.81
-24.92
-25.81
-26.67
-28.09
-30.85
-35.45
-41.62
-48.10
-52.96
-54.21
-50.69
-42.40
-30.67
-17.41
-4.53
6.71
15.78
22.72
27.75
30.99
32.45
32.16
30.32
27.34
23.78
20.26
17.23
14.99
13.57
12.91
12.78
12.95
13.17
13.13
12.57
11.19
8.84
5.49
1.41
-2.94
-7.03
-10.48
-13.27
-15.69
-18.35
-21.89
-26.76
-32.90
-39.67
-45.79
-49.65
-49.59
-44.47
-34.03
-19.00
-0.94
18.17
36.45
52.44
65.34
74.94
81.51
85.55
87.69
88.49
88.41
87.79
86.82
85.69
84.55
83.53
82.74
82.18
81.85
81.76
81.99
82.66
83.83
85.29
86.55
86.91
85.60
82.19
76.72
69.77
62.21
54.84
48.00
41.47
34.50
26.06
15.23
1.40
-15.36
-34.23
-53.62
-71.33
-85.05
-92.87
-93.89
-88.49
-78.31
-65.85
-53.83
-44.50
-39.20
-38.28
-41.22
-47.04
-54.64
-63.09
-71.59
-79.43
-85.83
-90.00
-91.37
-89.79
-85.76
-80.30
-74.61
-69.64
-65.80
-62.90
-60.35
-57.53
-53.90
-49.13
-43.03
-35.43
-26.16
-15.15
-2.47
11.70
27.02
43.16
59.81
76.69
93.49
109.86
125.48
140.05
153.33
165.00
174.51
181.04
183.59
181.20
173.23
159.53
140.51
116.99
90.05
60.85
30.48
-0.00
-29.45
-56.53
-79.68
-97.36
-108.41
-112.50
-110.32
-103.55
-94.50
-85.60
-78.96
-75.93
-76.67
-79.81
-82.43
-80.86
-72.01
-54.72
-30.37
-2.16
26.26
52.17
74.27
92.11
105.07
111.76
110.48
100.36
82.37
59.52
35.89
15.29
0.19
-8.52
-10.92
-7.46
1.34
14.79
31.60
49.95
67.60
82.53
93.36
99.57
101.31
99.10
93.46
84.86
73.77
60.76
46.57
32.02
17.83
4.57
-7.52
-18.38
-28.19
-37.30
-46.19
-55.29
-64.89
-74.98
-85.30
-95.47
-105.15
-114.23
-122.83
-131.28
-139.87
-148.64
-157.18
-164.58
-169.71
-171.65
-170.19
-166.14
-161.19
-157.48
-156.88
-160.36
-167.51
-176.57
-184.78
-189.23
-187.62
-179.01
-164.10
-144.92
-124.22
-104.50
-87.33
-73.09
-61.26
-51.02
-41.76
-33.47
-26.47
-21.15
-17.65
-15.80
-15.34
-16.20
-18.68
-23.38
-30.83
-41.12
-53.67
-67.28
-80.48
-91.85
-100.27
-104.97
-105.44
-101.46
-93.06
-80.57
-64.65
-46.12
-25.92
-4.92
16.12
36.53
55.65
72.97
88.13
101.07
112.15
121.96
131.17
140.27
149.43
158.45
166.79
173.73
178.40
179.90
177.49
170.78
159.94
145.79
129.66
113.13
97.57
83.81
71.96
61.42
51.14
40.10
27.80
14.80
2.89
-5.16
-6.34
1.52
18.84
43.99
73.68
103.94
131.32
153.45
169.19
178.16
180.23
175.23
163.17
144.54
120.55
93.17
64.53
36.56
10.43
-13.50
-35.31
-55.07
-72.42
-86.45
-96.02
-100.33
-99.44
-94.57
-87.91
-82.12
-79.64
-82.28
-90.91
-105.33
-124.36
-145.88
-167.14
-185.27
-198.10
-205.02
-207.39
-208.34
-211.62
-220.07
-234.16
-251.55
-267.89
-278.36
-279.51
-270.04
-250.68
-223.20
-189.54
-151.50
-111.12
-71.17
-35.03
-5.88
14.66
27.27
34.70
40.40
46.87
54.52
61.71
65.73
64.19
56.09
42.11
24.41
5.97
-10.01
-20.67
-23.75
-17.78
-2.25
22.41
54.71
92.11
131.19
167.94
198.37
219.11
228.05
224.61
209.81
186.16
157.30
127.47
100.85
80.80
69.18
66.03
69.85
78.17
88.52
99.02
108.70
117.21
124.40
129.82
132.64
131.80
126.54
116.80
103.43
88.12
72.91
59.81
50.34
45.48
45.68
50.98
60.91
74.30
89.30
103.62
115.16
122.70
126.22
126.75
125.79
124.68
124.24
124.76
126.31
128.94
132.77
137.84
143.85
149.99
155.06
157.66
156.48
150.63
139.88
124.67
105.99
85.07
63.03
40.67
18.44
-3.32
-24.17
-43.54
-60.97
-76.37
-90.16
-103.03
-115.49
-127.50
-138.38
-147.19
-153.23
-156.46
-157.47
-157.12
-156.01
-154.14
-151.03
-146.12
-139.26
-131.02
-122.47
-114.89
-109.18
-105.71
-104.25
-104.24
-104.99
-105.88
-106.47
-106.48
-105.90
-104.89
-103.72
-102.46
-100.76
-97.77
-92.26
-83.11
-69.70
-52.31
-32.08
-10.77
9.60
27.25
40.85
49.77
54.04
54.35
51.75
47.42
42.41
37.40
32.72
28.46
24.62
21.19
18.19
15.58
13.25
10.97
8.46
5.42
1.54
-3.58
-10.36
-19.12
-29.69
-41.20
-51.86
-59.38
-61.55
-57.09
-46.13
-30.29
-12.15
5.54
20.54
31.58
38.31
41.13
40.80
38.18
34.07
29.18
24.08
19.21
14.86
11.17
8.15
5.78
4.01
2.77
1.88
1.01
-0.36
-2.81
-6.89
-13.00
-21.21
-31.12
-41.75
-51.51
-58.36
-60.18
-55.44
-43.73
-26.13
-4.95
16.74
36.08
51.01
60.66
65.17
65.29
61.98
56.15
48.59
40.10
31.44
23.34
16.30
10.51
5.74
1.55
-2.52
-6.71
-11.00
-15.19
-19.13
-23.02
-27.43
-33.23
-41.10
-51.12
-62.40
-73.02
-80.51
-82.52
-77.77
-66.44
-50.29
-31.92
-13.99
1.65
14.32
24.26
32.17
38.58
43.53
46.71
47.83
46.94
44.58
41.55
38.50
35.64
32.71
29.29
25.17
20.65
16.44
13.29
11.55
10.81
9.99
7.61
2.30
-6.73
-19.34
-34.34
-49.64
-62.51
-70.31
-71.10
-64.32
-50.93
-33.17
-13.88
4.34
19.75
31.81
40.87
47.79
53.36
57.96
61.60
64.09
65.39
65.84
66.11
66.93
68.73
71.38
74.17
76.09
76.26
74.28
70.30
64.95
58.97
52.94
47.13
41.39
35.35
28.43
20.07
9.81
-2.41
-15.96
-29.31
-40.23
-46.22
-45.36
-37.01
-22.17
-3.30
16.53
34.44
48.54
58.19
63.77
66.26
66.69
65.80
63.97
61.27
57.65
53.16
48.11
43.01
38.48
34.99
32.66
31.12
29.66
27.48
24.00
19.09
13.05
6.47
-0.12
-6.46
-12.64
-19.01
-26.00
-34.01
-43.31
-53.99
-65.75
-77.72
-88.31
-95.35
-96.65
-90.71
-77.45
-58.43
-36.47
-14.80
3.90
18.07
27.43
32.53
34.21
33.22
30.05
25.14
19.02
12.41
6.04
0.50
-4.03
-7.78
-11.20
-14.66
-18.24
-21.73
-24.81
-27.35
-29.62
-32.27
-36.12
-41.88
-49.86
-59.76
-70.58
-80.58
-87.54
-89.18
-83.84
-71.03
-51.84
-28.72
-4.70
17.44
36.08
50.83
62.27
71.27
78.30
83.24
85.61
85.08
81.92
77.17
72.33
68.73
67.01
66.82
67.18
67.01
65.73
63.55
61.14
59.12
57.47
55.41
51.71
45.25
35.56
22.93
8.31
-6.99
-21.39
-33.21
-40.63
-42.08
-36.62
-24.50
-7.33
12.16
30.79
45.68
54.96
57.97
55.15
47.58
36.54
23.21
8.53
-6.75
-21.91
-36.29
-49.27
-60.48
-69.88
-77.76
-84.54
-90.54
-95.83
-100.17
-103.27
-104.95
-105.39
-105.04
-104.42
-103.87
-103.32
-102.36
-100.39
-97.03
-92.34
-87.04
-82.41
-79.94
-80.84
-85.42
-92.65
-100.21
-104.96
-103.96
-95.41
-79.35
-57.64
-33.28
-9.40
11.60
28.55
41.32
50.40
56.36
59.59
60.37
59.08
56.33
53.04
50.22
48.69
48.82
50.40
52.72
54.90
56.13
56.02
54.67
52.47
49.86
47.07
43.98
40.14
35.04
28.38
20.23
11.10
1.80
-6.82
-14.15
-20.06
-24.89
-29.39
-34.48
-40.93
-49.20
-59.17
-70.00
-80.03
-86.95
-88.25
-81.99
-67.58
-46.18
-20.52
5.93
30.01
49.78
64.83
76.05
84.82
92.38
99.42
106.15
112.50
118.42
123.97
129.19
133.93
137.73
139.88
139.62
136.46
130.39
122.00
112.29
102.39
93.17
85.00
77.68
70.51
62.63
53.28
41.90
28.26
12.35
-5.59
-25.12
-45.57
-66.13
-85.98
-104.54
-121.58
-137.08
-150.98
-162.68
-170.92
-173.94
-170.16
-158.97
-141.23
-119.24
-96.07
-74.62
-56.76
-43.13
-33.38
-26.78
-22.82
-21.36
-22.48
-26.07
-31.53
-37.77
-43.55
-47.81
-49.98
-49.97
-48.03
-44.47
-39.50
-33.23
-25.78
-17.45
-8.81
-0.69
5.93
10.26
11.87
10.97
8.35
5.15
2.53
1.23
1.35
2.33
3.15
2.62
-0.32
-6.36
-15.59
-27.28
-39.74
-50.45
-56.69
-56.26
-48.35
-33.88
-15.18
4.71
23.09
38.15
49.20
56.31
59.89
60.38
58.22
54.01
48.67
43.32
39.12
36.91
37.00
39.12
42.52
46.24
49.35
51.23
51.68
50.88
49.22
46.94
43.96
39.85
33.98
25.89
15.69
4.09
-7.69
-18.41
-27.16
-33.68
-38.36
-42.02
-45.64
-50.15
-56.23
-64.12
-73.39
-82.77
-90.19
-93.20
-89.71
-78.76
-61.04
-38.76
-15.06
6.91
24.93
38.06
46.52
51.18
53.02
52.73
50.68
47.08
42.24
36.72
31.32
26.85
23.93
22.75
23.10
24.46
26.18
27.72
28.69
28.87
28.22
26.74
24.43
21.22
17.05
11.98
6.23
0.28
-5.27
-9.82
-13.01
-14.91
-16.02
-17.22
-19.55
-23.91
-30.65
-39.31
-48.34
-55.31
-57.38
-52.23
-38.88
-18.19
7.30
34.10
58.76
78.81
93.09
101.64
105.28
105.01
101.80
96.47
89.80
82.63
75.78
69.83
64.82
60.33
55.53
49.65
42.39
34.03
25.20
16.64
8.86
2.07
-3.72
-8.47
-11.92
-13.67
-13.33
-10.72
-5.96
0.71
8.90
18.17
27.81
36.61
42.61
43.30
36.19
19.64
-6.23
-38.99
-73.87
-104.65
-124.99
-130.03
-117.70
-89.03
-47.80
0.69
51.07
98.86
140.54
173.28
194.44
201.83
194.63
174.55
146.27
116.51
91.88
76.35
69.89
68.93
68.13
62.96
51.56
35.30
17.90
3.56
-5.11
-8.23
-8.52
-9.91
-15.66
-27.01
-43.18
-62.64
-84.75
-110.66
-142.77
-182.95
-230.80
-282.97
-334.20
-379.18
-414.16
-437.42
-448.72
-448.17
-436.03
-412.87
-380.06
-339.89
-295.24
-248.90
-203.25
-160.26
-121.78
-89.44
-64.21
-45.78
-32.32
-21.00
-9.05
5.17
21.75
39.66
57.64
75.02
91.82
108.22
123.76
136.97
145.74
148.32
144.26
134.83
122.55
110.05
98.85
88.88
78.87
67.36
53.59
37.74
20.50
2.31
-16.95
-37.55
-59.05
-79.55
-95.73
-103.88
-101.30
-87.48
-64.38
-35.64
-5.37
23.09
47.74
67.84
83.41
94.87
102.68
107.37
109.45
109.34
107.20
102.91
96.32
87.69
78.01
68.91
62.06
58.37
57.46
57.72
56.98
53.36
46.05
35.47
22.92
10.10
-1.49
-10.89
-17.80
-22.61
-26.20
-29.79
-34.65
-41.82
-51.60
-63.23
-74.71
-83.14
-85.44
-79.44
-64.78
-43.16
-17.84
7.62
30.59
50.11
66.65
81.28
94.57
106.18
115.10
120.55
122.80
123.26
123.92
126.22
130.21
134.37
136.36
134.25
127.57
117.66
107.05
98.35
93.06
90.96
90.27
88.47
83.30
73.58
59.55
42.63
24.72
7.51
-8.09
-22.14
-35.58
-49.71
-65.58
-83.39
-102.10
-119.42
-132.29
-137.79
-134.05
-120.94
-100.20
-74.85
-48.37
-23.84
-3.40
11.82
21.55
26.14
26.47
23.87
20.05
16.78
15.60
17.40
22.35
29.80
38.59
47.38
55.01
60.86
64.96
68.01
70.96
74.52
78.52
81.57
81.35
75.60
63.38
45.88
26.27
8.37
-5.00
-13.36
-18.63
-24.04
-32.40
-44.65
-59.31
-73.07
-82.11
-83.36
-75.35
-58.43
-34.39
-5.86
24.23
53.18
78.74
99.23
113.49
120.88
121.29
115.29
104.22
89.95
74.69
60.41
48.58
39.81
33.98
30.51
28.66
27.91
27.92
28.37
28.72
28.19
25.99
21.74
15.72
8.85
2.29
-2.93
-6.19
-7.20
-5.86
-2.25
3.09
8.90
13.24
14.19
10.93
4.56
-1.80
-4.16
0.74
13.85
33.26
54.91
74.16
87.45
93.39
92.75
87.78
81.03
74.51
69.36
66.00
64.62
65.44
68.91
75.51
85.57
98.99
115.17
133.10
151.56
169.55
186.40
201.74
215.16
225.94
233.17
236.22
235.46
232.57
230.09
230.22
233.66
238.94
243.02
242.66
236.02
223.29
206.43
187.94
169.71
152.38
135.63
118.83
101.65
84.27
67.18
50.69
34.72
18.72
2.01
-15.84
-34.78
-54.23
-73.46
-91.98
-109.88
-127.61
-145.63
-163.81
-181.27
-196.68
-208.95
-217.87
-224.32
-230.01
-236.72
-245.72
-257.34
-271.12
-286.05
-300.99
-314.91
-327.05
-337.05
-344.98
-351.32
-356.81
-362.20
-367.97
-373.97
-378.91
-380.16
-374.04
-356.79
-326.13
-282.59
-229.94
-174.30
-122.19
-78.43
-44.89
-20.64
-3.17
10.07
20.66
29.08
35.22
39.06
40.98
41.65
41.65
41.26
40.38
38.68
35.89
31.97
27.11
21.66
15.89
9.86
3.50
-3.23
-10.26
-17.24
-23.77
-29.60
-34.85
-40.02
-46.03
-53.92
-64.43
-77.43
-91.31
-102.91
-108.16
-103.40
-87.02
-60.38
-27.70
5.35
33.71
54.49
67.53
74.58
77.95
79.30
79.21
77.71
74.88
71.31
67.90
65.25
63.27
61.10
57.52
51.71
43.73
34.52
25.39
17.29
10.32
3.62
-4.14
-14.06
-26.40
-40.40
-54.57
-67.37
-77.94
-86.37
-93.65
-101.15
-110.16
-121.45
-134.91
-149.40
-162.77
-172.18
-174.71
-168.26
-152.36
-128.51
-99.86
-70.30
-43.27
-20.87
-3.60
9.29
19.10
27.06
33.94
40.10
45.73
51.01
56.23
61.65
67.37
73.12
78.27
81.94
83.43
82.46
79.37
74.98
70.20
65.57
60.94
55.46
47.99
37.62
24.18
8.43
-8.32
-24.71
-39.95
-54.09
-67.90
-82.55
-99.12
-118.28
-140.08
-163.76
-187.53
-208.73
-224.26
-231.41
-228.94
-217.79
-201.01
-182.80
-166.83
-154.87
-146.14
-137.97
-127.31
-112.26
-92.89
-71.01
-49.08
-28.92
-10.87
6.07
23.47
42.33
62.30
81.57
97.56
107.87
111.19
107.67
98.83
87.14
75.46
66.56
62.92
66.25
77.18
94.94
117.30
140.88
161.87
176.81
183.20
179.91
167.15
146.21
119.04
87.60
53.47
17.80
-18.47
-53.82
-85.79
-111.05
-126.35
-129.72
-121.40
-103.76
-80.37
-54.48
-28.01
-1.53
24.85
50.38
73.15
90.54
100.49
102.89
100.08
96.37
96.73
105.11
123.58
152.40
190.94
238.43
293.81
354.59
415.63
469.04
505.92
519.48
507.89
475.36
430.47
382.78
339.24
302.45
271.18
242.56
214.44
186.33
158.93
132.87
107.60
81.30
51.62
16.54
-25.24
-73.88
-128.25
-185.55
-241.13
-288.93
-322.89
-338.89
-336.28
-318.25
-290.60
-259.75
-230.82
-206.73
-188.42
-175.64
-167.71
-163.74
-162.48
-162.26
-161.32
-158.29
-152.73
-145.11
-136.43
-127.77
-119.81
-112.65
-105.94
-99.13
-91.87
-84.17
-76.40
-69.16
-62.94
-57.91
-53.97
-50.80
-48.20
-46.25
-45.38
-46.30
-49.67
-55.68
-63.56
-71.40
-76.35
-75.37
-66.25
-48.58
-24.06
3.95
31.43
55.01
72.77
84.39
90.68
92.89
92.10
89.07
84.37
78.61
72.62
67.27
63.29
61.01
60.33
60.77
61.69
62.44
62.44
61.12
58.01
52.82
45.62
36.96
27.72
18.90
11.18
4.54
-1.80
-9.19
-18.97
-31.75
-46.84
-62.11
-74.25
-79.46
-74.40
-57.21
-28.38
8.96
49.46
86.77
115.26
131.54
135.30
128.89
116.06
100.33
83.89
67.44
50.90
34.36
18.66
5.23
-4.69
-10.74
-13.69
-15.10
-16.55
-18.99
-22.37
-25.83
-28.32
-29.25
-28.87
-28.12
-28.28
-30.32
-34.51
-40.57
-47.99
-56.57
-66.46
-77.85
-90.20
-101.80
-109.80
-111.08
-103.43
-86.52
-62.15
-33.67
-4.88
21.06
42.29
58.25
69.37
76.55
80.80
83.00
83.82
83.71
82.86
81.30
79.00
76.04
72.67
69.36
66.67
65.05
64.58
64.90
65.17
64.36
61.56
56.42
49.24
40.99
32.92
26.09
20.97
17.28
14.03
9.97
4.02
-4.20
-14.00
-23.58
-30.32
-31.36
-24.49
-8.70
15.39
45.77
79.70
114.43
147.82
178.62
206.30
230.61
251.11
266.85
276.58
279.39
275.45
266.46
255.32
245.10
237.79
233.53
230.71
226.85
219.74
208.11
191.66
170.39
144.02
111.76
72.47
25.35
-29.33
-89.35
-150.26
-205.69
-248.57
-273.07
-276.63
-261.12
-232.30
-197.76
-164.30
-135.85
-113.18
-95.07
-80.07
-67.59
-57.89
-51.30
-47.55
-45.74
-44.91
-44.65
-45.10
-46.45
-48.34
-49.46
-47.95
-42.06
-30.82
-14.41
6.01
28.50
50.61
69.70
83.35
89.97
89.30
82.37
71.11
57.39
42.40
26.28
8.34
-12.52
-37.28
-66.08
-97.63
-128.81
-154.93
-171.09
-174.12
-164.25
-145.45
-123.93
-105.40
-92.46
-83.56
-74.23
-59.83
-38.30
-11.41
16.24
39.71
56.35
67.16
76.06
87.77
105.26
128.19
152.86
173.71
185.51
185.10
172.21
149.26
120.22
89.39
60.34
35.31
15.12
-0.64
-13.25
-24.31
-35.27
-47.06
-60.00
-73.84
-87.88
-101.03
-112.05
-119.80
-123.72
-124.14
-122.06
-118.64
-114.39
-108.74
-100.33
-87.80
-70.76
-50.13
-27.86
-6.15
13.31
29.61
42.28
50.77
54.31
52.09
43.95
30.90
15.18
0.04
-11.04
-15.13
-10.76
1.51
18.86
36.75
50.14
55.19
50.49
37.32
18.79
-1.51
-20.90
-38.03
-52.53
-64.24
-72.58
-76.63
-75.80
-70.64
-63.17
-56.42
-53.38
-55.57
-62.43
-71.66
-80.29
-86.08
-88.09
-86.54
-81.94
-74.46
-64.10
-51.60
-39.45
-31.99
-34.12
-49.17
-77.07
-114.00
-153.58
-189.22
-216.15
-232.34
-238.21
-235.53
-226.42
-212.85
-196.53
-179.10
-162.04
-146.51
-133.09
-121.85
-112.59
-105.24
-100.06
-97.25
-96.33
-95.65
-92.45
-83.73
-67.61
-44.37
-16.69
11.26
35.37
52.97
63.44
67.75
67.48
63.95
57.95
50.01
40.86
31.58
23.32
16.81
12.00
8.22
4.60
0.56
-3.95
-8.59
-12.96
-16.98
-20.93
-25.39
-31.06
-38.49
-47.67
-57.78
-67.01
-72.89
-72.98
-65.78
-51.45
-31.82
-9.79
11.61
30.21
44.96
55.72
62.66
65.79
64.94
60.13
52.00
42.01
32.08
24.00
18.75
16.25
15.49
15.09
13.95
11.67
8.62
5.54
3.04
1.22
-0.56
-3.41
-8.62
-17.09
-28.92
-43.06
-57.30
-68.56
-73.61
-70.06
-57.23
-36.54
-11.24
14.56
37.13
54.14
64.93
70.21
71.34
69.60
65.88
60.73
54.64
48.21
42.09
36.77
32.46
29.00
26.17
23.82
22.01
20.87
20.30
19.85
18.75
16.02
10.76
2.32
-9.42
-23.76
-38.91
-52.00
-59.53
-58.38
-47.10
-26.69
-0.59
26.42
49.86
66.95
77.17
81.70
82.27
80.15
75.78
69.07
60.25
50.29
40.84
33.61
29.54
28.36
28.64
28.58
26.74
22.71
17.16
11.38
6.53
3.04
0.43
-2.43
-6.86
-13.88
-23.95
-36.73
-50.98
-64.45
-74.07
-76.57
-69.49
-52.27
-26.85
2.58
30.76
53.11
67.06
72.61
71.81
67.55
62.26
57.27
52.76
48.38
43.87
39.46
35.78
33.49
32.83
33.34
34.05
33.80
31.69
27.39
21.18
13.80
6.18
-0.83
-6.72
-11.38
-15.17
-18.71
-22.81
-28.30
-35.88
-45.93
-58.16
-71.21
-82.60
-89.05
-87.41
-75.85
-54.70
-26.62
4.11
32.92
56.26
72.41
81.44
84.68
83.87
80.55
75.81
70.39
64.82
59.47
54.62
50.36
46.62
43.24
40.10
37.25
34.80
32.83
31.10
29.06
25.94
21.17
14.63
6.83
-1.30
-8.80
-15.02
-19.86
-23.81
-27.86
-33.17
-40.65
-50.45
-61.44
-71.11
-76.00
-72.78
-59.61
-37.01
-8.07
22.45
49.51
69.25
79.75
81.07
74.74
63.10
48.75
34.17
21.46
12.04
6.37
3.92
3.38
3.24
2.33
0.30
-2.42
-4.94
-6.40
-6.45
-5.41
-4.12
-3.56
-4.39
-6.76
-10.32
-14.40
-18.39
-21.97
-25.20
-28.48
-32.49
-37.87
-45.03
-53.71
-62.74
-69.98
-72.74
-68.63
-56.57
-37.33
-13.63
10.75
32.09
47.86
57.23
60.85
60.22
56.91
52.12
46.60
40.93
35.72
31.63
29.20
28.55
29.23
30.29
30.73
29.95
27.95
25.32
22.89
21.15
20.02
18.82
16.60
12.63
6.81
-0.31
-7.75
-14.47
-19.80
-23.70
-26.76
-30.05
-34.77
-41.74
-50.88
-60.94
-69.56
-73.86
-71.52
-61.67
-45.37
-25.30
-4.89
12.87
26.25
34.81
39.14
40.09
38.37
34.42
28.69
21.78
14.61
8.14
3.08
-0.35
-2.46
-3.86
-5.18
-6.74
-8.45
-9.95
-10.76
-10.65
-9.70
-8.44
-7.51
-7.50
-8.59
-10.49
-12.53
-13.90
-14.10
-13.10
-11.47
-10.20
-10.45
-13.16
-18.81
-27.08
-36.73
-45.62
-51.04
-50.49
-42.53
-27.47
-7.45
14.09
33.59
48.40
57.49
61.31
61.19
58.51
54.29
49.09
43.36
37.66
32.76
29.36
27.81
27.91
28.91
29.87
30.02
29.06
27.22
25.08
23.11
21.46
19.71
17.10
12.83
6.58
-1.31
-9.83
-17.74
-24.06
-28.48
-31.48
-34.16
-37.80
-43.43
-51.47
-61.42
-71.83
-80.38
-84.43
-81.78
-71.55
-54.65
-33.69
-12.16
6.65
20.64
29.27
33.20
33.60
31.40
27.10
20.83
12.80
3.60
-5.80
-14.26
-20.92
-25.52
-28.51
-30.91
-33.93
-38.51
-44.96
-52.98
-61.78
-70.54
-78.84
-86.79
-94.91
-104.04
-115.19
-129.47
-147.73
-169.95
-194.47
-217.78
-235.13
-242.03
-235.94
-217.43
-189.89
-158.24
-127.01
-98.94
-74.59
-53.06
-32.96
-13.30
6.30
25.88
45.47
65.23
85.51
106.58
128.66
151.95
177.01
205.11
238.11
277.82
324.71
376.73
428.84
473.94
504.94
517.21
510.26
487.75
455.89
421.20
388.46
359.90
335.52
314.10
294.14
274.43
254.15
232.75
209.98
185.87
160.82
135.38
110.17
85.53
61.36
37.03
11.41
-16.67
-47.77
-81.06
-113.92
-142.38
-162.46
-171.80
-170.86
-162.86
-152.48
-143.85
-138.97
-137.26
-136.43
-134.03
-128.65
-120.33
-109.98
-98.63
-86.80
-74.67
-62.43
-50.71
-40.69
-33.81
-31.28
-33.73
-41.03
-52.49
-67.19
-84.32
-103.34
-123.90
-145.56
-167.47
-188.19
-205.94
-219.06
-226.71
-229.30
-228.52
-226.71
-226.02
-227.58
-230.98
-234.35
-235.04
-230.57
-219.49
-201.82
-178.89
-152.61
-124.65
-95.88
-66.43
-36.28
-6.07
22.59
47.37
66.32
78.91
86.61
92.44
99.74
110.64
125.13
141.08
155.22
164.38
166.64
161.87
151.46
137.77
123.47
110.89
101.72
96.87
96.48
100.05
106.65
115.12
124.12
132.27
138.17
140.63
138.90
133.05
124.12
113.91
104.57
97.89
94.74
94.78
96.62
98.40
98.40
95.48
89.32
80.34
69.48
57.93
46.75
36.67
27.81
19.61
11.04
1.08
-10.73
-23.95
-37.56
-50.62
-62.91
-75.09
-88.40
-103.89
-121.97
-142.16
-163.31
-183.82
-201.96
-216.13
-225.14
-228.50
-226.44
-219.85
-209.81
-197.00
-181.07
-160.61
-133.53
-98.00
-53.61
-2.31
51.35
101.11
140.71
166.02
176.49
175.12
166.98
156.91
147.80
140.12
132.98
125.55
118.03
111.57
107.31
105.53
105.32
105.10
103.45
99.55
93.10
83.93
71.78
56.27
37.33
15.40
-8.76
-34.53
-62.05
-92.55
-128.00
-170.39
-220.59
-277.40
-337.01
-393.20
-438.25
-464.55
-466.58
-442.67
-396.07
-334.68
-269.38
-211.53
-170.22
-150.37
-151.98
-170.57
-198.45
-226.57
-246.42
-251.81
-240.07
-212.49
-173.70
-130.15
-88.16
-52.43
-25.32
-7.05
3.40
7.64
7.43
4.50
0.34
-3.97
-8.15
-12.60
-18.19
-26.03
-37.17
-52.59
-72.68
-96.61
-121.77
-143.77
-157.45
-158.54
-145.30
-119.10
-83.74
-44.12
-4.88
30.38
59.02
79.32
90.44
92.78
88.06
79.03
68.54
58.74
50.56
43.91
38.28
33.37
29.35
26.59
25.39
25.61
26.80
28.56
30.96
34.64
40.54
49.29
60.68
73.50
85.98
96.59
104.66
110.56
115.43
120.56
127.04
135.63
146.86
160.97
177.63
195.51
212.20
224.61
229.94
226.71
215.21
197.38
175.73
152.39
128.49
104.24
79.71
55.36
32.38
12.17
-4.24
-16.81
-26.50
-34.81
-43.01
-51.57
-59.98
-67.16
-71.93
-73.62
-72.44
-69.48
-66.30
-64.33
-64.21
-65.51
-67.05
-67.57
-66.59
-64.80
-63.88
-65.55
-70.68
-78.50
-86.44
-90.83
-87.79
-74.14
-48.08
-9.65
38.92
93.17
146.86
193.33
227.24
246.24
251.52
246.96
237.15
225.26
212.10
196.58
177.38
154.64
130.56
108.53
91.62
81.26
77.07
77.67
81.82
88.99
99.07
111.50
124.41
134.69
138.93
134.84
122.33
103.56
82.02
61.16
43.16
28.58
16.86
7.04
-1.53
-9.03
-15.47
-20.90
-25.53
-29.43
-32.25
-33.14
-31.20
-25.94
-17.66
-7.35
3.79
14.97
26.20
38.11
51.46
66.64
83.25
100.12
115.54
127.76
135.27
137.06
132.76
122.68
107.79
89.65
70.22
51.55
35.48
23.23
15.23
10.97
9.16
8.07
6.03
1.90
-4.61
-12.92
-21.72
-29.46
-34.79
-36.89
-35.77
-32.20
-27.53
-23.42
-21.43
-22.51
-26.64
-32.55
-37.86
-39.77
-36.00
-25.82
-10.52
6.85
22.46
33.05
37.03
34.81
28.37
20.29
12.73
6.84
2.74
-0.03
-2.10
-3.84
-5.47
-7.09
-8.90
-11.08
-13.63
-16.19
-18.20
-19.28
-19.52
-19.64
-20.69
-23.42
-27.90
-33.32
-38.48
-42.35
-44.66
-46.09
-48.05
-52.13
-59.47
-70.09
-82.53
-93.96
-100.72
-99.53
-88.60
-68.48
-42.03
-13.58
12.43
32.73
45.77
51.72
51.80
47.61
40.57
31.76
22.10
12.45
3.74
-3.18
-7.78
-10.07
-10.71
-10.76
-11.25
-12.84
-15.49
-18.68
-21.69
-23.96
-25.33
-26.04
-26.50
-27.23
-28.59
-30.83
-34.04
-38.21
-43.32
-49.36
-56.24
-63.53
-70.27
-74.96
-75.92
-71.88
-62.61
-49.08
-33.20
-17.13
-2.59
9.48
18.87
25.79
30.43
32.91
33.44
32.42
30.59
28.81
27.79
27.82
28.65
29.54
29.49
27.61
23.39
16.96
9.03
0.69
-7.02
-13.51
-18.78
-23.32
-27.77
-32.49
-37.46
-42.30
-46.74
-50.98
-55.77
-62.00
-69.96
-78.70
-85.83
-88.15
-82.86
-68.81
-47.27
-21.69
3.51
24.45
39.08
47.59
51.80
53.96
55.71
57.55
59.13
59.88
59.79
59.48
60.08
62.59
67.44
74.42
82.84
91.98
101.12
109.38
115.36
117.17
112.89
101.54
83.94
62.82
42.15
25.68
15.71
12.38
13.98
17.83
21.34
22.52
20.15
13.70
3.33
-9.86
-23.77
-35.62
-42.70
-43.46
-38.17
-29.10
-19.75
-13.76
-13.76
-20.77
-34.11
-51.95
-72.05
-92.35
-111.46
-128.73
-143.99
-157.17
-167.92
-175.52
-179.13
-178.45
-174.13
-167.92
-162.11
-158.62
-158.11
-159.70
-161.37
-160.93
-157.02
-149.45
-138.95
-126.46
-112.46
-96.98
-80.15
-62.90
-47.42
-36.72
-33.53
-38.78
-50.80
-65.52
-78.05
-84.54
-83.67
-76.83
-67.04
-57.29
-49.24
-42.81
-36.76
-29.63
-20.61
-9.81
1.83
12.86
21.82
27.55
29.54
28.19
24.82
21.42
20.00
21.93
27.60
36.43
47.21
58.57
69.35
78.73
86.20
91.49
94.47
95.10
93.39
89.24
82.34
72.04
57.51
38.01
13.48
-14.87
-44.46
-71.58
-92.34
-103.80
-104.91
-96.86
-82.59
-65.73
-49.43
-35.57
-24.62
-16.21
-9.79
-5.19
-2.79
-3.12
-6.42
-12.22
-19.34
-26.22
-31.46
-34.30
-34.81
-33.72
-32.08
-30.84
-30.54
-31.35
-33.19
-35.94
-39.50
-43.78
-48.56
-53.50
-58.22
-62.50
-66.52
-70.80
-75.93
-82.02
-88.30
-92.90
-93.24
-86.88
-72.56
-50.87
-24.37
3.24
28.28
48.36
62.84
72.57
79.08
83.59
86.55
87.85
87.30
85.04
81.78
78.40
75.62
73.73
72.59
71.86
71.23
70.44
69.11
66.73
62.64
56.34
47.72
37.25
25.97
15.13
5.90
-1.05
-5.60
-8.26
-9.73
-10.52
-10.51
-8.78
-3.81
5.93
21.28
41.94
66.40
92.47
117.97
141.41
162.26
180.71
197.20
211.95
224.75
235.10
242.62
247.36
249.81
250.84
251.15
251.11
250.54
248.88
245.45
239.71
231.46
220.79
208.01
193.40
177.12
159.10
139.06
116.56
91.13
62.39
30.20
-5.21
-43.13
-82.29
-120.76
-156.03
-185.26
-205.80
-215.77
-214.58
-203.10
-183.29
-157.75
-129.03
-99.27
-70.07
-42.60
-17.67
4.16
22.75
38.41
51.74
63.41
73.76
82.66
89.58
93.89
95.27
93.85
90.28
85.37
79.77
73.74
67.05
59.17
49.49
37.62
23.41
6.95
-11.52
-31.70
-53.12
-75.11
-96.89
-117.90
-138.10
-158.27
-179.62
-203.08
-228.24
-252.70
-272.08
-281.06
-274.81
-250.46
-207.93
-149.87
-81.01
-7.14
65.83
132.71
189.53
233.96
265.54
285.59
296.78
302.30
304.92
306.26
306.55
304.97
300.38
292.05
280.17
265.81
250.56
235.90
222.68
210.92
200.01
189.13
177.61
165.25
152.29
139.18
126.28
113.57
100.58
86.47
70.41
51.91
31.11
8.69
-14.41
-37.43
-60.21
-83.20
-107.36
-133.87
-163.98
-198.76
-238.67
-282.91
-328.79
-371.66
-405.81
-426.08
-429.59
-416.75
-390.98
-357.16
-319.75
-281.57
-243.73
-206.53
-170.72
-137.90
-110.24
-89.39
-75.60
-67.40
-62.20
-57.26
-50.65
-41.91
-31.78
-21.59
-12.44
-4.74
1.77
7.55
12.67
16.50
17.86
15.50
8.89
-1.32
-13.16
-23.75
-30.03
-29.53
-21.05
-4.93
17.04
42.12
67.26
89.91
108.41
122.14
131.26
136.39
138.22
137.32
134.10
128.92
122.31
114.90
107.26
99.52
91.02
80.17
65.01
44.03
17.14
-13.91
-45.96
-75.45
-99.74
-117.79
-130.21
-138.47
-143.99
-147.62
-149.59
-149.92
-148.78
-146.67
-144.27
-142.19
-140.75
-139.97
-139.74
-139.96
-140.56
-141.22
-141.16
-139.04
-133.40
-123.23
-108.67
-91.18
-73.02
-56.38
-42.43
-30.97
-20.74
-10.38
0.86
12.76
24.60
35.98
47.38
60.17
76.10
96.50
121.69
150.95
182.68
214.76
244.84
270.33
288.66
297.49
295.36
282.06
258.79
227.79
191.66
152.74
112.75
72.88
34.10
-2.60
-36.05
-65.05
-88.59
-106.15
-117.93
-124.89
-128.47
-130.23
-131.38
-132.34
-132.69
-131.23
-126.27
-116.12
-99.53
-76.12
-46.71
-13.53
20.16
50.84
76.00
95.09
109.69
122.64
136.44
151.88
167.37
179.62
184.85
180.37
165.41
141.28
110.90
77.87
45.80
17.65
-4.52
-19.82
-28.55
-32.01
-32.21
-31.36
-31.42
-33.81
-39.08
-46.96
-56.50
-66.45
-75.70
-83.63
-90.09
-95.23
-99.21
-102.03
-103.58
-103.78
-102.70
-100.47
-97.21
-92.88
-87.35
-80.53
-72.59
-63.95
-55.19
-46.86
-39.28
-32.57
-26.71
-21.71
-17.70
-14.96
-13.76
-14.34
-16.71
-20.63
-25.61
-30.91
-35.77
-39.54
-41.91
-42.92
-42.87
-42.07
-40.64
-38.41
-35.09
-30.46
-24.68
-18.28
-12.10
-7.00
-3.60
-2.14
-2.50
-4.36
-7.42
-11.47
-16.46
-22.45
-29.43
-37.30
-45.91
-55.02
-64.29
-73.31
-81.45
-87.98
-92.16
-93.59
-92.45
-89.54
-86.17
-83.74
-83.27
-85.11
-88.74
-93.00
-96.32
-97.17
-94.54
-88.34
-79.62
-70.36
-62.89
-59.00
-59.21
-62.38
-65.95
-66.78
-62.11
-50.60
-32.84
-11.17
10.98
30.35
44.98
54.84
61.58
67.64
74.94
83.92
93.39
101.13
104.87
103.15
95.82
84.05
70.27
57.75
50.02
49.82
57.97
72.64
89.56
103.33
109.46
105.99
93.98
76.78
58.33
41.68
28.42
18.78
12.46
9.05
8.19
9.20
11.02
12.34
12.16
10.37
7.87
6.18
6.63
9.60
14.03
17.66
17.84
12.46
0.92
-15.67
-34.91
-53.94
-70.50
-83.59
-93.59
-101.79
-109.37
-116.44
-121.49
-121.62
-113.77
-96.20
-69.74
-37.99
-6.28
20.16
38.03
46.82
48.39
45.70
41.25
36.28
30.88
24.70
17.77
10.87
5.13
1.52
0.25
0.69
1.63
1.85
0.56
-2.45
-6.95
-12.59
-19.29
-27.29
-36.96
-48.46
-61.36
-74.68
-87.25
-98.32
-108.04
-117.46
-128.00
-140.62
-154.97
-169.02
-179.45
-182.46
-174.99
-155.57
-124.93
-85.84
-42.62
-0.20
36.94
65.55
84.28
93.58
95.17
91.33
84.15
75.26
65.89
57.15
50.12
45.92
45.35
48.52
54.70
62.36
69.76
75.51
79.09
80.98
82.36
84.46
87.95
92.68
97.84
102.46
105.78
107.56
107.69
106.21
103.12
98.72
94.07
91.44
94.13
105.45
127.10
157.83
193.26
227.27
254.42
272.15
281.56
286.31
290.30
295.50
301.18
304.81
303.83
297.21
285.60
270.41
252.42
231.18
205.43
174.06
137.00
95.26
50.33
3.69
-43.89
-92.03
-140.31
-187.78
-232.64
-272.68
-306.08
-332.41
-353.22
-371.80
-392.14
-417.23
-447.37
-479.49
-507.80
-525.66
-527.97
-512.99
-482.79
-442.20
-396.83
-351.32
-308.37
-268.90
-232.80
-199.77
-169.71
-142.62
-118.25
-95.99
-75.00
-54.61
-34.56
-14.72
5.23
26.02
48.54
73.06
98.44
121.87
139.54
147.94
145.26
132.25
112.05
89.19
68.11
52.01
42.13
37.79
36.78
35.99
32.19
22.92
7.35
-13.15
-35.25
-54.62
-67.45
-71.83
-68.33
-59.59
-49.08
-39.74
-33.22
-29.84
-29.18
-30.67
-33.84
-38.14
-42.66
-46.06
-46.99
-44.63
-39.08
-31.24
-22.42
-13.70
-5.73
1.30
7.46
12.84
17.31
20.56
21.99
20.85
16.36
8.00
-4.31
-20.19
-38.95
-59.90
-82.34
-105.39
-127.57
-146.61
-159.75
-164.64
-160.26
-147.43
-128.47
-106.33
-83.43
-61.01
-39.11
-17.13
5.64
29.63
54.86
80.95
107.18
132.43
155.28
174.25
188.21
196.71
200.09
199.28
195.50
189.87
183.26
176.26
169.27
162.50
155.86
148.93
140.91
130.82
117.74
101.32
81.94
60.82
39.66
20.10
3.19
-10.84
-22.37
-32.04
-40.14
-46.33
-49.60
-48.54
-41.87
-28.81
-9.33
15.79
45.46
78.69
114.95
154.07
195.66
238.45
279.81
316.24
344.25
361.66
368.21
365.26
354.77
338.36
316.96
291.26
262.38
232.24
203.04
176.41
152.67
130.79
109.04
85.91
60.69
33.48
4.86
-24.27
-52.68
-78.46
-99.14
-112.27
-116.57
-112.77
-103.74
-93.58
-86.18
-83.88
-86.82
-93.24
-100.31
-105.16
-105.60
-100.53
-89.99
-75.00
-57.20
-38.29
-19.52
-1.43
15.95
32.62
48.07
61.07
70.01
73.51
71.23
64.28
55.02
46.43
41.28
41.26
46.47
55.45
65.69
74.52
80.01
81.58
79.81
75.82
70.39
63.49
54.43
42.57
27.94
11.54
-5.09
-20.59
-34.45
-47.12
-59.62
-72.79
-86.74
-100.79
-113.90
-125.05
-133.58
-138.95
-140.47
-136.98
-127.13
-109.95
-85.61
-55.69
-22.96
9.41
38.82
63.91
84.63
101.86
116.78
130.38
143.31
155.96
168.69
181.99
196.55
213.17
232.54
255.12
280.85
309.00
337.95
365.24
387.92
403.15
409.04
405.16
392.67
373.84
351.18
326.67
301.29
275.23
248.29
220.52
192.37
164.53
137.49
111.16
84.88
57.71
28.92
-1.59
-33.18
-64.73
-95.21
-124.05
-151.42
-178.10
-205.15
-233.60
-264.36
-298.26
-335.73
-376.22
-417.50
-455.51
-485.26
-502.56
-505.73
-496.47
-479.04
-458.40
-438.12
-419.34
-401.22
-382.33
-361.99
-340.82
-320.19
-301.30
-284.58
-269.76
-256.43
-244.55
-234.53
-226.96
-222.12
-219.67
-218.71
-218.10
-216.89
-214.42
-210.37
-204.46
-196.20
-184.75
-169.01
-148.09
-121.79
-91.04
-57.89
-25.10
4.70
29.63
48.90
62.68
71.52
76.02
76.75
74.50
70.58
66.84
65.19
66.85
71.90
79.19
86.96
93.44
97.53
98.88
97.74
94.54
89.63
83.19
75.24
65.82
55.02
43.15
30.62
17.96
5.80
-5.13
-13.86
-19.20
-19.84
-14.61
-2.95
14.82
37.28
62.22
87.08
109.58
128.12
142.01
151.30
156.48
158.28
157.51
155.01
151.65
148.12
144.68
140.87
135.49
126.93
113.83
95.74
73.49
49.04
25.01
3.82
-12.84
-24.29
-30.79
-33.27
-33.08
-31.86
-31.41
-33.60
-39.94
-51.00
-65.75
-81.20
-92.85
-95.81
-86.39
-63.47
-28.98
12.73
56.33
97.07
131.89
159.65
180.66
196.00
207.00
214.99
221.38
227.54
234.62
243.12
252.55
261.27
266.75
266.22
257.37
239.06
211.55
176.40
135.89
92.40
47.85
3.36
-40.64
-84.18
-127.18
-169.10
-208.59
-243.68
-272.12
-292.01
-302.24
-302.61
-293.60
-275.96
-250.47
-217.95
-179.51
-136.81
-92.13
-48.16
-7.43
28.21
57.93
82.02
101.52
117.76
131.76
143.94
154.05
161.40
165.15
164.79
160.26
151.96
140.71
127.47
113.19
98.58
84.04
69.55
54.88
39.70
23.88
7.58
-8.84
-24.91
-40.29
-55.05
-69.64
-84.87
-101.47
-119.71
-139.00
-157.67
-173.23
-182.86
-184.16
-175.68
-157.38
-130.61
-97.80
-61.88
-25.76
8.37
39.30
66.83
91.54
114.23
135.45
155.26
173.32
189.19
202.59
213.51
222.04
228.16
231.62
232.08
229.35
223.59
215.19
204.55
191.74
176.48
158.34
137.16
113.32
87.67
61.29
35.02
9.34
-15.70
-40.25
-64.55
-88.97
-113.97
-139.98
-166.94
-193.93
-218.97
-239.36
-252.55
-256.98
-252.64
-240.98
-224.26
-204.69
-183.86
-162.50
-140.84
-119.06
-97.67
-77.72
-60.58
-47.54
-39.28
-35.47
-34.70
-34.80
-33.60
-29.88
-23.85
-16.99
-11.24
-7.96
-7.28
-8.18
-9.31
-9.84
-10.09
-11.31
-15.01
-22.18
-32.72
-45.52
-58.95
-71.53
-82.37
-91.28
-98.59
-104.62
-109.36
-112.23
-112.25
-108.38
-99.98
-87.13
-70.71
-52.15
-33.25
-15.74
-1.16
9.39
15.36
16.88
14.73
10.14
4.44
-1.31
-6.60
-11.43
-16.00
-20.31
-23.78
-25.26
