1677565436.00
64.000000
-0.00
-0.00
-0.00
-0.00
-0.00
-0.00
-0.00
-0.00
-0.00
-0.00
0.00
0.01
0.01
-0.00
-0.03
-0.05
-0.05
0.00
0.13
0.36
0.66
1.01
1.37
1.72
2.06
2.40
2.79
3.24
3.80
4.42
5.06
5.66
6.20
6.68
7.15
7.68
8.31
9.14
10.09
11.04
11.88
12.56
13.14
13.76
14.65
15.96
17.91
20.32
22.90
25.38
27.58
29.57
31.68
34.32
37.81
42.54
48.15
54.10
59.83
64.97
69.58
74.14
79.34
85.71
93.76
103.00
112.62
121.73
129.77
136.75
143.30
150.75
157.77
166.64
177.95
191.79
206.97
220.57
228.25
225.36
208.53
176.87
132.76
80.05
23.07
-34.94
-92.44
-149.16
-205.23
-260.37
-313.74
-363.87
-409.83
-450.91
-486.50
-515.74
-537.23
-549.22
-549.96
-538.37
-514.21
-478.67
-433.88
-382.45
-327.02
-269.84
-212.63
-156.66
-102.95
-52.37
-5.90
35.58
71.43
101.35
125.50
144.38
158.69
169.15
176.37
180.75
182.57
182.07
179.50
175.23
169.65
163.18
156.15
148.82
141.32
133.73
126.08
118.42
110.80
103.31
95.99
88.92
82.11
75.58
69.34
63.39
57.74
52.41
47.39
42.70
38.32
34.25
30.49
27.03
23.85
20.96
18.35
16.02
13.96
12.16
10.61
9.31
8.23
7.36
6.68
6.17
5.83
5.63
5.56
5.62
5.77
6.03
6.38
6.81
7.31
7.89
8.53
9.24
10.01
10.84
11.73
12.68
13.69
14.75
15.87
17.06
18.33
19.67
21.08
22.55
24.05
25.51
26.87
28.01
28.80
29.11
28.80
27.76
25.93
23.27
19.85
15.71
11.02
6.00
0.86
-4.16
-8.82
-12.94
-16.36
-18.98
-20.77
-21.74
-21.94
-21.50
-20.50
-19.09
-17.35
-15.40
-13.32
-11.14
-8.89
-6.63
-4.38
-2.15
0.05
2.26
4.48
6.75
9.10
11.61
14.21
16.89
19.65
22.48
25.41
28.46
31.68
35.12
38.89
42.87
46.99
51.25
55.63
60.16
64.86
69.79
75.03
80.72
86.64
92.70
98.83
105.00
111.22
117.50
123.86
130.39
137.19
143.89
150.20
155.83
160.48
163.79
165.28
164.26
159.69
153.58
146.50
138.81
130.72
122.36
113.86
105.35
97.03
89.08
81.82
74.98
68.45
62.12
55.90
49.74
43.69
37.86
32.43
27.62
23.21
19.00
14.76
10.24
5.34
0.08
-5.33
-10.56
-15.31
-19.68
-23.94
-28.50
-33.78
-40.05
-47.25
-55.03
-62.85
-70.19
-77.00
-83.57
-90.52
-98.52
-108.02
-119.00
-131.03
-143.38
-155.43
-166.91
-177.99
-189.22
-201.43
-215.57
-232.57
-252.88
-276.03
-300.14
-321.94
-337.48
-343.35
-337.98
-322.21
-299.01
-272.26
-245.45
-220.68
-198.69
-179.29
-162.18
-147.22
-134.43
-123.67
-114.33
-105.60
-96.66
-87.22
-77.52
-68.30
-60.35
-54.24
-50.01
-47.25
-45.18
-42.89
-39.66
-35.00
-28.85
-21.52
-13.60
-5.70
1.78
8.70
15.30
21.87
28.61
35.39
41.77
47.24
51.39
54.13
55.63
56.32
56.57
56.68
56.74
56.72
56.54
56.09
55.39
54.41
53.15
51.60
49.75
47.65
45.31
42.84
40.27
37.63
34.88
32.02
29.01
25.90
22.75
19.57
16.33
12.95
9.36
5.55
1.58
-2.39
-6.23
-9.75
-12.81
-15.16
-16.53
-16.58
-15.09
-12.04
-7.66
-2.46
3.03
8.34
13.19
17.48
21.25
24.56
27.41
29.78
31.60
32.90
33.73
34.23
34.56
34.82
35.08
35.23
35.16
34.75
33.99
32.99
31.93
30.95
30.03
29.05
27.75
25.99
23.71
21.06
18.23
15.43
12.81
10.41
8.23
6.14
4.01
1.56
-1.42
-5.05
-9.29
-13.87
-18.41
-22.51
-25.83
-28.11
-29.16
-28.83
-27.01
-23.75
-19.24
-13.91
-8.22
-2.62
2.60
7.31
11.47
15.06
18.00
20.22
21.71
22.60
23.12
23.54
24.02
24.58
25.07
25.29
25.10
24.45
23.42
22.15
20.76
19.26
17.60
15.69
13.48
11.03
8.51
6.09
3.88
1.86
-0.03
-1.94
-3.97
-6.17
-8.51
-11.02
-13.69
-16.50
-19.33
-21.98
-24.13
-25.44
-25.64
-24.55
-22.12
-18.44
-13.71
-8.26
-2.47
3.17
8.21
12.31
15.32
17.29
18.39
18.87
18.88
18.58
18.05
17.37
16.66
16.00
15.44
14.92
14.33
13.53
12.49
11.24
9.87
8.46
6.99
5.30
3.19
0.53
-2.65
-6.14
-9.59
-12.74
-15.51
-18.06
-20.71
-23.74
-27.20
-30.86
-34.22
-36.60
-37.42
-36.32
-33.31
-28.70
-23.06
-16.99
-10.97
-5.29
-0.04
4.76
9.07
12.80
15.84
18.21
20.00
21.41
22.56
23.46
23.95
23.86
23.16
22.00
20.73
19.63
18.89
18.42
18.00
17.34
16.19
14.45
12.15
9.43
6.41
3.25
0.03
-3.15
-6.25
-9.28
-12.33
-15.59
-19.18
-23.14
-27.23
-30.95
-33.67
-34.76
-33.90
-31.13
-26.80
-21.45
-15.67
-9.87
-4.38
0.62
5.03
8.85
12.12
14.87
17.16
18.94
20.20
20.87
21.01
20.74
20.24
19.66
19.06
18.43
17.71
16.89
16.02
15.18
14.41
13.62
12.60
11.10
8.96
6.20
3.03
-0.25
-3.43
-6.46
-9.48
-12.71
-16.26
-20.04
-23.65
-26.53
-28.07
-27.86
-25.83
-22.29
-17.74
-12.75
-7.68
-2.66
2.31
7.24
11.94
16.03
19.15
21.10
22.02
22.24
22.21
22.14
22.03
21.68
20.89
19.70
18.33
17.13
16.36
16.02
15.80
15.25
13.96
11.75
8.79
5.49
2.32
-0.42
-2.69
-4.79
-7.12
-10.05
-13.82
-18.34
-23.28
-28.14
-32.39
-35.54
-37.25
-37.40
-36.09
-33.64
-30.52
-27.27
-24.33
-22.02
-20.48
-19.62
-19.19
-18.75
-17.78
-15.82
-12.60
-8.19
-2.93
2.67
8.10
12.97
17.13
20.53
23.19
25.10
26.26
26.69
26.48
25.73
24.46
22.61
20.07
16.74
12.68
8.14
3.48
-0.99
-5.11
-8.98
-12.92
-17.35
-22.55
-28.53
-34.90
-41.03
-46.14
-49.54
-50.85
-49.92
-46.95
-42.33
-36.53
-30.10
-23.48
-17.06
-11.15
-6.06
-2.07
0.49
1.46
0.90
-0.73
-2.64
-3.95
-3.96
-2.54
-0.13
2.40
4.18
4.73
4.11
2.87
1.60
0.66
-0.08
-1.07
-2.77
-5.26
-8.14
-10.71
-12.24
-12.42
-11.46
-10.01
-8.93
-8.94
-10.49
-13.58
-17.66
-21.57
-23.64
-22.04
-15.42
-3.60
11.85
27.67
39.74
44.41
39.94
27.36
10.33
-5.94
-16.41
-17.74
-9.13
7.95
30.60
55.54
79.87
101.24
117.78
128.03
131.17
127.40
118.16
105.91
93.33
82.47
73.95
66.95
59.74
50.71
39.07
25.15
9.96
-5.33
-19.96
-33.79
-47.07
-60.14
-73.05
-85.58
-97.17
-107.20
-115.16
-120.79
-124.27
-126.21
-127.51
-128.99
-130.99
-133.14
-134.54
-134.17
-131.31
-125.75
-117.72
-107.74
-96.51
-84.87
-73.77
-64.13
-56.57
-51.08
-46.87
-42.61
-36.81
-28.42
-17.22
-3.87
10.33
23.81
35.28
44.00
49.93
53.57
55.62
56.65
56.88
56.31
54.86
52.59
49.78
46.77
43.84
41.09
38.44
35.63
32.42
28.63
24.21
19.26
14.03
8.89
4.24
0.46
-2.18
-3.39
-3.04
-1.12
2.21
6.55
11.39
16.18
20.51
24.13
27.05
29.36
31.21
32.70
33.84
34.59
34.83
34.49
33.61
32.40
31.17
30.27
29.91
29.97
30.11
29.89
28.98
27.37
25.26
23.02
20.93
19.08
17.38
15.67
13.76
11.56
9.00
6.08
2.80
-0.81
-4.60
-8.29
-11.41
-13.41
-13.75
-12.08
-8.42
-3.09
3.23
9.84
16.18
21.98
27.27
32.20
36.89
41.20
44.83
47.43
48.78
48.99
48.39
47.44
46.46
45.57
44.68
43.61
42.27
40.73
39.15
37.67
36.32
34.94
33.27
31.09
28.36
25.20
21.88
18.58
15.31
11.96
8.26
4.09
-0.44
-4.95
-8.88
-11.68
-12.95
-12.61
-10.81
-7.87
-4.12
0.16
4.83
9.77
14.86
19.95
24.77
29.09
32.67
35.46
37.56
39.14
40.40
41.40
42.03
42.14
41.61
40.44
38.83
37.06
35.28
33.56
31.73
29.55
26.86
23.66
20.15
16.58
13.15
9.88
6.58
2.94
-1.32
-6.34
-11.95
-17.76
-23.22
-27.77
-31.01
-32.73
-32.90
-31.61
-29.02
-25.31
-20.75
-15.67
-10.47
-5.55
-1.15
2.63
5.87
8.70
11.19
13.32
14.95
15.97
16.31
16.08
15.50
14.85
14.37
14.12
14.03
13.85
13.34
12.29
10.63
8.45
5.94
3.34
0.79
-1.60
-3.83
-5.97
-8.13
-10.48
-13.20
-16.44
-20.10
-23.86
-27.12
-29.18
-29.47
-27.70
-24.02
-18.92
-13.10
-7.24
-1.84
2.89
6.93
10.40
13.43
16.00
18.04
19.41
20.06
20.12
19.86
19.62
19.62
19.95
20.45
20.87
20.96
20.59
19.78
18.64
17.32
15.87
14.28
12.41
10.18
7.52
4.51
1.27
-2.05
-5.41
-8.86
-12.48
-16.20
-19.74
-22.62
-24.26
-24.22
-22.43
-19.18
-15.03
-10.57
-6.22
-2.17
1.63
5.30
8.88
12.21
15.04
17.05
18.06
18.12
17.51
16.64
15.87
15.43
15.26
15.18
14.97
14.50
13.79
12.94
12.05
11.11
10.03
8.69
7.03
5.03
2.80
0.41
-2.09
-4.73
-7.61
-10.71
-13.92
-16.87
-19.03
-19.83
-18.87
-16.13
-11.99
-7.16
-2.33
1.99
5.71
8.97
11.97
14.77
17.17
18.89
19.71
19.69
19.13
18.44
17.93
17.70
17.65
17.54
17.21
16.62
15.84
14.98
14.07
13.07
11.81
10.15
7.92
5.11
1.80
-1.87
-5.76
-9.80
-13.94
-18.21
-22.48
-26.48
-29.72
-31.65
-31.89
-30.32
-27.18
-22.96
-18.29
-13.68
-9.42
-5.59
-2.12
1.00
3.72
5.86
7.26
7.83
7.72
7.21
6.62
6.22
6.06
6.04
5.93
5.58
4.93
4.03
3.01
1.90
0.66
-0.83
-2.66
-4.89
-7.45
-10.19
-12.97
-15.75
-18.63
-21.75
-25.20
-28.83
-32.29
-35.04
-36.53
-36.43
-34.68
-31.57
-27.55
-23.07
-18.46
-13.92
-9.51
-5.32
-1.47
1.87
4.51
6.33
7.41
7.99
8.40
8.95
9.75
10.64
11.36
11.60
11.27
10.48
9.49
8.59
7.84
7.14
6.19
4.76
2.77
0.31
-2.37
-5.09
-7.79
-10.55
-13.50
-16.71
-20.02
-23.12
-25.56
-26.92
-27.01
-25.81
-23.56
-20.54
-17.03
-13.21
-9.19
-5.03
-0.85
3.14
6.67
9.50
11.48
12.67
13.29
13.64
13.97
14.36
14.73
14.88
14.68
14.10
13.27
12.36
11.49
10.64
9.72
8.62
7.32
5.87
4.36
2.83
1.18
-0.67
-2.84
-5.33
-8.08
-10.98
-13.91
-16.77
-19.35
-21.41
-22.66
-22.88
-21.97
-20.05
-17.37
-14.17
-10.68
-7.02
-3.27
0.41
3.87
6.96
9.60
11.78
13.58
15.03
16.16
16.96
17.44
17.64
17.59
17.35
16.91
16.26
15.41
14.43
13.40
12.40
11.44
10.38
9.10
7.47
5.54
3.47
1.48
-0.27
-1.76
-3.10
-4.56
-6.38
-8.67
-11.34
-14.10
-16.50
-18.09
-18.58
-17.85
-16.08
-13.57
-10.66
-7.67
-4.76
-2.01
0.53
2.82
4.78
6.33
7.49
8.34
9.03
9.77
10.63
11.62
12.62
13.47
14.03
14.25
14.20
14.04
13.95
13.98
14.10
14.07
13.62
12.52
10.79
8.66
6.47
4.54
2.98
1.71
0.51
-0.83
-2.42
-4.26
-6.26
-8.34
-10.37
-12.19
-13.53
-14.09
-13.63
-12.07
-9.58
-6.52
-3.31
-0.28
2.36
4.56
6.33
7.75
8.87
9.67
10.15
10.26
10.01
9.46
8.72
7.97
7.36
6.97
6.79
6.72
6.62
6.38
5.90
5.14
4.10
2.79
1.32
-0.24
-1.71
-3.01
-4.08
-4.90
-5.54
-6.09
-6.72
-7.64
-9.03
-10.97
-13.39
-15.96
-18.20
-19.57
-19.73
-18.64
-16.58
-14.05
-11.51
-9.23
-7.22
-5.32
-3.38
-1.37
0.57
2.23
3.42
4.07
4.30
4.27
4.17
4.12
4.17
4.27
4.41
4.53
4.59
4.57
4.44
4.15
3.63
2.85
1.76
0.42
-1.05
-2.50
-3.76
-4.79
-5.63
-6.44
-7.38
-8.59
-10.09
-11.85
-13.83
-15.84
-17.72
-19.14
-19.83
-19.57
-18.35
-16.36
-13.90
-11.27
-8.66
-6.15
-3.75
-1.51
0.48
2.09
3.21
3.85
4.07
4.05
3.93
3.86
3.91
4.08
4.30
4.47
4.53
4.46
4.28
3.99
3.58
3.01
2.26
1.37
0.41
-0.58
-1.64
-2.84
-4.30
-6.03
-7.92
-9.81
-11.55
-13.10
-14.44
-15.54
-16.30
-16.55
-16.24
-15.38
-14.15
-12.73
-11.18
-9.49
-7.58
-5.46
-3.29
-1.34
0.13
1.02
1.38
1.42
1.34
1.29
1.37
1.57
1.85
2.08
2.13
1.85
1.23
0.34
-0.69
-1.74
-2.76
-3.80
-4.91
-6.12
-7.40
-8.69
-9.96
-11.25
-12.69
-14.35
-16.26
-18.26
-20.07
-21.33
-21.73
-21.11
-19.54
-17.27
-14.65
-12.04
-9.60
-7.40
-5.35
-3.39
-1.50
0.26
1.77
2.97
3.79
4.30
4.57
4.66
4.62
4.45
4.13
3.65
3.08
2.46
1.84
1.23
0.51
-0.40
-1.60
-3.05
-4.60
-6.11
-7.45
-8.70
-10.05
-11.78
-14.04
-16.81
-19.78
-22.46
-24.37
-25.15
-24.69
-23.17
-20.90
-18.20
-15.26
-12.20
-9.07
-6.00
-3.13
-0.68
1.27
2.72
3.85
4.82
5.73
6.55
7.13
7.37
7.20
6.70
6.01
5.28
4.67
4.18
3.83
3.53
3.17
2.65
1.86
0.78
-0.53
-1.91
-3.22
-4.41
-5.62
-7.14
-9.31
-12.27
-15.85
-19.55
-22.70
-24.67
-25.10
-24.06
-21.91
-19.12
-16.12
-13.07
-9.94
-6.58
-2.97
0.79
4.41
7.60
10.19
12.19
13.74
15.03
16.13
16.98
17.44
17.45
17.05
16.47
15.90
15.46
15.08
14.52
13.48
11.77
9.42
6.67
3.89
1.40
-0.60
-2.17
-3.56
-5.08
-7.05
-9.66
-12.92
-16.62
-20.38
-23.73
-26.15
-27.29
-26.99
-25.36
-22.62
-19.14
-15.21
-11.10
-6.99
-3.03
0.67
4.10
7.30
10.34
13.23
15.84
17.99
19.49
20.33
20.69
20.87
21.06
21.29
21.31
20.81
19.63
17.82
15.77
13.83
12.24
10.96
9.70
8.18
6.27
4.07
1.80
-0.31
-2.24
-4.15
-6.27
-8.78
-11.71
-14.92
-18.17
-21.21
-23.83
-25.87
-27.17
-27.57
-26.94
-25.23
-22.50
-18.90
-14.70
-10.20
-5.68
-1.40
2.47
5.78
8.46
10.55
12.14
13.39
14.51
15.65
16.89
18.22
19.57
20.80
21.76
22.32
22.35
21.85
20.90
19.71
18.47
17.33
16.26
15.09
13.60
11.68
9.40
7.04
4.95
3.36
2.28
1.48
0.59
-0.70
-2.53
-4.83
-7.32
-9.59
-11.22
-11.89
-11.31
-9.36
-6.08
-1.63
3.69
9.56
15.69
21.87
27.94
33.84
39.47
44.78
49.77
54.50
59.11
63.69
68.29
72.91
77.56
82.32
87.45
93.28
100.04
107.69
115.80
123.54
129.81
133.47
133.52
129.34
120.82
108.50
93.69
78.26
64.36
53.92
48.04
46.78
49.21
53.91
59.56
65.41
71.31
77.50
84.16
91.17
98.24
104.98
111.35
117.47
123.56
129.54
134.99
139.16
141.27
140.82
137.64
131.81
123.50
112.86
100.02
85.28
69.26
52.81
36.84
22.05
8.77
-3.13
-13.90
-23.65
-32.11
-38.68
-42.90
-44.71
-44.71
-43.74
-42.46
-40.86
-38.24
-33.71
-26.76
-17.76
-7.89
1.20
8.15
12.16
13.11
11.14
6.28
-1.79
-13.52
-29.06
-47.82
-68.32
-88.54
-106.52
-121.06
-132.11
-140.56
-147.65
-154.26
-160.55
-166.05
-170.12
-172.47
-173.38
-173.54
-173.71
-174.33
-175.39
-176.45
-176.99
-176.55
-175.05
-172.75
-170.15
-167.64
-165.25
-162.54
-158.79
-153.32
-145.90
-136.92
-127.23
-117.81
-109.31
-101.92
-95.39
-89.35
-83.58
-78.15
-73.22
-68.87
-64.95
-61.18
-57.37
-53.68
-50.63
-48.83
-48.53
-49.37
-50.49
-50.83
-49.79
-47.51
-44.82
-42.81
-42.16
-42.81
-44.00
-44.68
-44.11
-42.16
-39.26
-36.18
-33.51
-31.58
-30.33
-29.45
-28.47
-26.70
-23.25
-17.32
-8.50
2.78
15.17
26.82
36.10
42.32
46.03
48.67
51.84
56.48
62.57
69.20
74.94
78.45
78.84
75.99
70.61
64.06
57.95
53.70
52.16
53.40
56.89
61.78
67.24
72.61
77.54
81.83
85.36
88.05
89.69
89.90
88.26
84.41
78.39
70.82
62.83
55.64
50.08
46.23
43.50
40.93
37.84
34.00
29.59
24.93
20.11
14.92
9.06
2.49
-4.46
-11.14
-16.98
-21.93
-26.45
-31.42
-37.65
-45.47
-54.61
-64.34
-73.82
-82.37
-89.70
-95.82
-101.01
-105.63
-109.98
-114.30
-118.65
-122.89
-126.65
-129.42
-130.68
-130.01
-127.27
-122.64
-116.51
-109.35
-101.55
-93.31
-84.74
-75.87
-66.80
-57.73
-48.93
-40.64
-32.97
-25.96
-19.53
-13.61
-8.15
-3.10
1.53
5.72
9.38
12.45
14.85
16.60
17.71
18.28
18.34
17.90
16.98
15.58
13.74
11.58
9.22
6.77
4.27
1.71
-0.99
-3.96
-7.36
-11.29
-15.72
-20.37
-24.67
-27.96
-29.57
-29.13
-26.65
-22.46
-17.06
-10.95
-4.52
1.97
8.26
14.10
19.20
23.35
26.47
28.69
30.28
31.51
32.61
33.69
34.71
35.54
36.10
36.36
36.40
36.32
36.21
36.07
35.83
35.35
34.47
33.10
31.13
28.53
25.35
21.68
17.74
13.80
10.10
6.76
3.66
0.47
-3.25
-7.89
-13.54
-19.82
-25.91
-30.72
-33.22
-32.77
-29.33
-23.51
-16.33
-8.88
-1.96
4.07
9.31
14.09
18.67
23.07
27.08
30.43
32.98
34.83
36.28
37.58
38.82
39.83
40.35
40.22
39.52
38.59
37.80
37.34
37.13
36.75
35.71
33.66
30.54
26.65
22.48
18.49
14.99
11.99
9.23
6.28
2.68
-1.90
-7.58
-14.12
-21.00
-27.40
-32.41
-35.13
-35.00
-31.89
-26.19
-18.72
-10.50
-2.44
4.84
11.12
16.45
21.04
25.04
28.51
31.36
33.55
35.06
35.91
36.14
35.79
34.94
33.73
32.42
31.25
30.38
29.79
29.24
28.47
27.27
25.61
23.61
21.40
19.03
16.44
13.52
10.22
6.58
2.65
-1.54
-6.15
-11.38
-17.32
-23.78
-30.16
-35.50
-38.80
-39.33
-36.91
-31.95
-25.27
-17.85
-10.47
-3.56
2.79
8.69
14.20
19.23
23.55
26.94
29.35
30.90
31.85
32.43
32.80
32.95
32.86
32.49
31.87
31.06
30.06
28.80
27.13
24.93
22.17
18.94
15.48
12.05
8.88
6.02
3.37
0.68
-2.42
-6.27
-11.06
-16.72
-22.84
-28.70
-33.42
-36.22
-36.59
-34.46
-30.12
-24.07
-16.93
-9.25
-1.47
5.99
12.82
18.76
23.72
27.73
30.91
33.40
35.24
36.40
36.83
36.56
35.75
34.65
33.54
32.58
31.80
31.01
29.98
28.45
26.30
23.56
20.44
17.20
14.01
10.93
7.82
4.49
0.76
-3.51
-8.37
-13.76
-19.52
-25.29
-30.46
-34.28
-36.00
-35.17
-31.81
-26.41
-19.75
-12.58
-5.42
1.50
8.16
14.56
20.60
26.08
30.79
34.56
37.38
39.33
40.55
41.19
41.38
41.20
40.63
39.66
38.26
36.49
34.47
32.35
30.27
28.24
26.13
23.71
20.80
17.34
13.49
9.51
5.70
2.22
-0.97
-4.13
-7.64
-11.91
-17.19
-23.39
-30.07
-36.40
-41.41
-44.20
-44.25
-41.55
-36.54
-29.95
-22.51
-14.79
-7.14
0.30
7.45
14.25
20.63
26.51
31.75
36.19
39.67
42.09
43.51
44.14
44.27
44.18
44.00
43.72
43.20
42.35
41.11
39.50
37.57
35.36
32.88
30.12
27.11
23.85
20.38
16.69
12.83
8.84
4.82
0.92
-2.83
-6.39
-9.91
-13.50
-17.30
-21.39
-25.74
-30.26
-34.72
-38.81
-42.04
-43.90
-43.89
-41.79
-37.64
-31.85
-25.01
-17.72
-10.48
-3.58
2.85
8.74
14.12
19.00
23.38
27.23
30.46
32.97
34.68
35.59
35.83
35.66
35.32
35.00
34.69
34.29
33.64
32.68
31.46
30.11
28.78
27.45
26.06
24.42
22.43
20.05
17.37
14.49
11.52
8.53
5.50
2.43
-0.71
-3.92
-7.26
-10.82
-14.75
-19.20
-24.24
-29.74
-35.33
-40.41
-44.24
-46.16
-45.82
-43.26
-38.94
-33.50
-27.55
-21.48
-15.42
-9.32
-3.11
3.07
8.90
13.91
17.76
20.34
21.89
22.86
23.68
24.65
25.79
26.89
27.67
27.93
27.62
26.84
25.71
24.34
22.77
20.93
18.82
16.47
13.97
11.47
9.04
6.69
4.34
1.91
-0.68
-3.40
-6.18
-8.99
-11.88
-15.06
-18.71
-22.92
-27.47
-31.81
-35.22
-36.99
-36.69
-34.31
-30.27
-25.17
-19.67
-14.23
-9.04
-4.09
0.73
5.44
10.00
14.21
17.85
20.72
22.78
24.14
24.96
25.45
25.72
25.76
25.50
24.85
23.79
22.40
20.86
19.26
17.61
15.75
13.45
10.57
7.17
3.51
0.01
-2.98
-5.37
-7.33
-9.23
-11.50
-14.49
-18.28
-22.72
-27.46
-32.00
-35.74
-38.12
-38.73
-37.36
-34.10
-29.28
-23.40
-17.05
-10.67
-4.60
1.03
6.24
11.09
15.66
19.92
23.72
26.85
29.16
30.65
31.57
32.25
33.04
34.17
35.59
37.12
38.51
39.59
40.36
40.99
41.72
42.71
44.01
45.50
47.02
48.46
49.84
51.34
53.26
55.84
59.19
63.16
67.45
71.70
75.75
79.65
83.78
88.61
94.60
101.98
110.78
121.03
132.93
146.84
162.97
180.95
199.33
215.65
226.84
230.23
224.41
209.65
187.75
161.31
133.15
105.92
82.15
64.26
54.30
53.23
60.18
72.14
84.49
92.25
91.49
80.31
58.90
28.84
-7.68
-48.48
-91.07
-132.32
-168.06
-193.71
-205.40
-201.51
-183.58
-156.24
-126.07
-99.68
-81.93
-74.75
-77.03
-85.42
-95.67
-104.17
-108.94
-110.19
-109.93
-111.03
-115.92
-125.37
-137.93
-150.07
-157.27
-155.48
-142.58
-119.19
-88.45
-55.06
-23.76
1.89
20.18
30.91
34.83
32.91
26.10
15.53
2.80
-9.99
-20.87
-28.82
-34.26
-38.76
-44.09
-51.05
-59.00
-66.14
-70.62
-71.66
-69.95
-67.36
-65.85
-66.69
-70.04
-75.22
-81.32
-87.58
-93.54
-98.83
-103.04
-105.70
-106.31
-104.56
-100.36
-93.94
-85.76
-76.48
-66.80
-57.35
-48.61
-40.83
-34.20
-28.87
-25.01
-22.75
-21.97
-22.21
-22.81
-23.12
-22.79
-21.90
-20.81
-19.91
-19.41
-19.23
-19.17
-19.03
-18.85
-18.72
-18.91
-19.51
-20.55
-21.86
-23.22
-24.37
-25.14
-25.47
-25.41
-25.17
-25.03
-25.29
-26.13
-27.54
-29.34
-31.11
-32.37
-32.63
-31.55
-28.97
-24.99
-19.90
-14.10
-8.01
-2.00
3.60
8.52
12.51
15.41
17.10
17.63
17.15
15.94
14.34
12.68
11.15
9.82
8.63
7.42
6.04
4.41
2.59
0.70
-1.09
-2.68
-4.06
-5.33
-6.65
-8.20
-10.04
-12.10
-14.14
-15.87
-17.03
-17.59
-17.77
-18.03
-18.90
-20.72
-23.48
-26.74
-29.73
-31.55
-31.49
-29.23
-24.88
-18.93
-12.08
-5.01
1.77
7.93
13.29
17.77
21.33
23.97
25.73
26.77
27.30
27.54
27.67
27.76
27.78
27.63
27.21
26.47
25.46
24.34
23.28
22.44
21.82
21.27
20.51
19.24
17.27
14.60
11.43
8.07
4.81
1.73
-1.22
-4.20
-7.37
-10.85
-14.69
-18.95
-23.64
-28.60
-33.42
-37.41
-39.78
-39.92
-37.67
-33.44
-27.97
-22.06
-16.23
-10.66
-5.27
-0.05
4.83
9.03
12.11
13.94
14.65
14.65
14.46
14.37
14.51
14.69
14.72
14.40
13.72
12.81
11.85
10.92
10.01
8.91
7.36
5.11
2.12
-1.46
-5.23
-8.80
-11.86
-14.38
-16.55
-18.74
-21.33
-24.57
-28.52
-32.97
-37.54
-41.62
-44.59
-45.86
-45.04
-42.06
-37.18
-30.89
-23.76
-16.33
-8.96
-1.91
4.63
10.50
15.52
19.54
22.49
24.47
25.66
26.35
26.77
27.12
27.41
27.56
27.40
26.75
25.51
23.73
21.57
19.24
16.92
14.67
12.40
9.90
6.98
3.60
-0.14
-3.99
-7.68
-11.13
-14.41
-17.87
-21.86
-26.68
-32.27
-38.23
-43.81
-48.11
-50.33
-49.96
-46.96
-41.68
-34.81
-27.06
-19.06
-11.28
-3.97
2.70
8.66
13.80
18.09
21.53
24.20
26.30
27.99
29.45
30.72
31.74
32.34
32.37
31.75
30.54
28.98
27.35
25.90
24.70
23.62
22.39
20.70
18.32
15.17
11.38
7.20
2.98
-0.97
-4.49
-7.60
-10.52
-13.62
-17.29
-21.78
-27.16
-33.17
-39.28
-44.68
-48.47
-49.83
-48.28
-43.81
-36.90
-28.45
-19.44
-10.76
-2.92
3.93
9.91
15.23
20.02
24.25
27.78
30.47
32.32
33.41
33.94
34.08
33.94
33.50
32.79
31.77
30.57
29.25
27.87
26.37
24.66
22.66
20.38
17.92
15.39
12.88
10.38
7.84
5.19
2.42
-0.43
-3.33
-6.27
-9.34
-12.70
-16.50
-20.89
-25.91
-31.45
-37.16
-42.44
-46.48
-48.51
-47.97
-44.72
-39.16
-31.99
-24.03
-15.88
-7.87
-0.10
7.38
14.37
20.61
25.82
29.84
32.72
34.71
36.06
36.98
37.53
37.67
37.34
36.57
35.42
34.04
32.55
31.06
29.60
28.16
26.63
24.88
22.81
20.36
17.54
14.43
11.13
7.72
4.28
0.85
-2.52
-5.79
-8.97
-12.17
-15.58
-19.46
-23.96
-29.00
-34.12
-38.51
-41.18
-41.29
-38.38
-32.65
-24.85
-15.98
-6.98
1.61
9.68
17.40
24.91
32.11
38.64
44.11
48.30
51.37
53.74
55.85
58.01
60.27
62.54
64.77
67.01
69.38
71.94
74.55
76.88
78.50
79.01
78.18
75.89
72.11
66.86
60.17
52.18
43.12
33.34
23.21
13.06
3.13
-6.47
-15.68
-24.52
-33.07
-41.50
-50.01
-58.73
-67.50
-75.86
-83.07
-88.22
-90.58
-89.77
-85.93
-79.68
-71.96
-63.69
-55.60
-48.04
-40.99
-34.18
-27.34
-20.39
-13.49
-7.03
-1.45
3.00
6.27
8.61
10.37
11.96
13.75
16.07
19.26
23.51
28.83
34.90
41.11
46.69
51.00
53.82
55.42
56.45
57.60
59.27
61.28
62.94
63.30
61.56
57.52
51.68
45.16
39.23
34.87
32.35
31.20
30.28
27.97
22.26
11.11
-6.94
-31.88
-61.36
-90.66
-113.69
-124.77
-120.53
-101.00
-69.36
-30.67
9.79
47.69
79.96
104.63
120.53
127.45
126.27
119.06
108.43
96.62
84.70
72.38
58.56
42.18
23.10
2.19
-18.85
-38.22
-54.58
-67.37
-76.64
-82.95
-87.02
-89.68
-91.67
-93.58
-95.68
-97.87
-99.83
-101.18
-101.82
-102.08
-102.51
-103.73
-105.98
-109.03
-112.23
-114.85
-116.38
-116.68
-115.87
-114.16
-111.64
-108.23
-103.76
-97.91
-90.15
-79.72
-65.78
-47.92
-26.62
-3.59
18.49
36.80
49.37
55.72
56.92
54.99
51.96
49.24
47.33
46.07
44.96
43.54
41.43
38.40
34.30
29.04
22.77
15.76
8.43
1.23
-5.51
-11.63
-17.16
-22.27
-27.16
-31.94
-36.68
-41.38
-45.97
-50.46
-54.88
-59.36
-64.03
-69.00
-74.09
-78.81
-82.26
-83.34
-81.11
-75.12
-65.76
-54.10
-41.65
-29.81
-19.55
-11.19
-4.47
1.21
6.61
12.39
18.90
26.00
32.83
37.92
39.70
37.19
30.57
21.39
12.08
5.12
2.31
4.40
11.16
21.77
35.03
49.41
62.94
73.41
78.86
78.20
71.83
61.54
49.91
39.23
30.69
24.11
18.15
11.09
1.49
-11.19
-26.50
-43.16
-59.37
-73.15
-82.69
-86.51
-83.64
-73.79
-57.43
-35.83
-10.96
14.90
39.54
61.21
78.87
92.27
101.77
108.12
112.22
114.83
116.28
116.24
113.68
107.32
96.26
80.70
62.26
43.66
27.82
16.87
11.43
10.63
12.68
15.64
18.06
19.12
18.47
15.98
11.62
5.49
-2.10
-10.62
-19.52
-28.40
-37.15
-45.85
-54.58
-63.22
-71.33
-78.26
-83.26
-85.77
-85.47
-82.45
-77.05
-69.81
-61.28
-51.94
-42.13
-32.11
-22.07
-12.27
-2.92
5.86
14.22
22.50
31.23
40.78
51.22
62.12
72.61
81.51
87.65
90.16
88.68
83.37
74.78
63.62
50.60
36.38
21.60
7.06
-6.35
-17.73
-26.38
-32.10
-35.35
-37.30
-39.74
-44.74
-54.01
-68.14
-86.07
-104.91
-120.64
-129.26
-128.18
-117.08
-97.98
-74.40
-50.07
-27.81
-8.95
6.45
18.99
29.29
37.65
44.08
48.59
51.44
53.14
54.29
55.23
55.88
55.77
54.43
51.68
47.89
43.86
40.51
38.44
37.62
37.45
36.99
35.38
32.22
27.74
22.61
17.72
13.73
10.85
8.79
6.91
4.47
0.88
-4.07
-10.20
-16.83
-23.04
-27.78
-30.15
-29.69
-26.45
-21.05
-14.45
-7.73
-1.80
2.78
5.80
7.37
7.84
7.65
7.29
7.14
7.31
7.75
8.16
8.23
7.80
7.01
6.22
5.96
6.66
8.51
11.34
14.59
17.42
18.85
17.98
14.31
8.01
0.10
-7.77
-13.67
-16.01
-13.97
-7.83
1.21
11.41
20.82
27.72
30.76
29.27
23.41
14.35
4.16
-4.71
-10.07
-10.74
-6.91
0.06
8.20
15.75
21.65
25.70
28.24
29.81
30.76
31.18
31.12
30.66
30.05
29.63
29.72
30.43
31.61
32.96
34.11
34.84
35.07
34.85
34.26
33.36
32.12
30.52
28.56
26.26
23.64
20.63
17.21
13.33
9.09
4.73
0.56
-3.22
-6.60
-9.77
-13.09
-16.84
-21.12
-25.70
-30.10
-33.63
-35.63
-35.64
-33.47
-29.36
-23.74
-17.22
-10.34
-3.51
3.02
9.12
14.63
19.41
23.33
26.37
28.64
30.27
31.41
32.10
32.31
31.95
30.99
29.48
27.62
25.64
23.76
22.15
20.80
19.57
18.22
16.50
14.26
11.54
8.61
5.87
3.73
2.45
2.04
2.30
2.88
3.41
3.49
2.80
1.09
-1.72
-5.49
-9.75
-13.79
-16.82
-18.24
-17.83
-15.82
-12.78
-9.41
-6.30
-3.79
-1.98
-0.78
0.00
0.56
1.07
1.61
2.20
2.81
3.39
3.91
4.37
4.80
5.21
5.58
5.97
6.43
7.12
8.17
9.63
11.39
13.15
14.53
15.21
15.03
14.03
12.52
10.84
9.29
7.92
6.55
4.79
2.29
-1.20
-5.69
-10.91
-16.40
-21.54
-25.65
-28.11
-28.43
-26.46
-22.40
-16.82
-10.43
-3.87
2.41
8.21
13.46
18.15
22.19
25.56
28.27
30.49
32.45
34.36
36.27
38.02
39.38
40.11
40.12
39.51
38.60
37.82
37.54
38.03
39.30
41.19
43.31
45.28
46.74
47.56
47.76
47.56
47.28
47.21
47.50
47.95
48.03
46.85
43.51
37.44
28.75
18.32
7.57
-1.92
-8.94
-12.83
-13.66
-11.95
-8.48
-3.99
1.00
6.16
11.31
16.29
20.86
24.67
27.37
28.70
28.65
27.51
25.78
23.97
22.42
21.22
20.24
19.25
18.00
16.32
14.20
11.73
9.10
6.48
3.88
1.15
-1.97
-5.74
-10.26
-15.43
-21.03
-26.78
-32.52
-38.25
-44.07
-50.06
-56.19
-62.32
-68.22
-73.64
-78.35
-82.13
-84.74
-85.80
-84.93
-81.75
-76.08
-68.13
-58.48
-48.01
-37.58
-27.77
-18.72
-10.23
-2.04
6.00
13.68
20.58
26.22
30.33
32.95
34.35
34.86
34.69
33.83
32.19
29.67
26.33
22.43
18.28
14.16
10.18
6.31
2.40
-1.74
-6.17
-10.85
-15.54
-19.96
-23.83
-26.92
-29.23
-30.94
-32.48
-34.36
-36.96
-40.34
-44.08
-47.39
-49.33
-49.23
-46.91
-42.78
-37.66
-32.40
-27.60
-23.40
-19.61
-15.91
-12.10
-8.23
-4.55
-1.34
1.26
3.28
4.94
6.50
8.20
10.13
12.36
14.91
17.69
20.37
22.31
22.64
20.55
15.69
8.35
-0.47
-9.49
-17.51
-23.76
-28.08
-30.70
-32.15
-32.92
-33.47
-34.12
-35.16
-36.83
-39.25
-42.46
-46.20
-49.95
-52.96
-54.41
-53.69
-50.63
-45.59
-39.28
-32.56
-26.05
-20.00
-14.27
-8.56
-2.66
3.38
9.24
14.49
18.75
21.93
24.23
26.05
27.78
29.60
31.41
32.90
33.78
33.89
33.39
32.58
31.75
31.02
30.22
29.02
27.11
24.35
20.87
17.01
13.11
9.41
5.91
2.44
-1.19
-5.14
-9.40
-13.91
-18.54
-23.17
-27.63
-31.67
-34.90
-36.82
-37.02
-35.26
-31.64
-26.59
-20.73
-14.71
-9.01
-3.83
0.87
5.29
9.57
13.71
17.55
20.89
23.57
25.60
27.10
28.23
29.16
29.96
30.76
31.63
32.62
33.71
34.76
35.53
35.75
35.18
33.68
31.19
27.71
23.34
18.26
12.78
7.26
1.96
-3.01
-7.77
-12.54
-17.59
-23.02
-28.73
-34.50
-39.98
-44.83
-48.67
-51.15
-52.01
-51.10
-48.42
-44.22
-38.92
-33.05
-27.14
-21.53
-16.36
-11.59
-7.07
-2.75
1.29
4.81
7.61
9.57
10.82
11.60
12.22
12.92
13.70
14.44
14.93
15.02
14.66
13.97
13.18
12.48
11.97
11.60
11.22
10.67
9.84
8.75
7.55
6.39
5.34
4.36
3.25
1.81
-0.21
-2.87
-6.11
-9.68
-13.09
-15.66
-16.54
-14.96
-10.44
-3.01
6.71
17.60
28.27
37.35
43.70
46.64
45.96
42.03
35.66
27.89
19.84
12.34
5.87
0.52
-3.82
-7.31
-10.08
-12.19
-13.76
-14.98
-16.09
-17.17
-18.18
-18.88
-19.09
-18.82
-18.34
-18.10
-18.50
-19.64
-21.30
-23.05
-24.47
-25.42
-26.08
-26.87
-28.31
-30.76
-34.32
-38.82
-43.81
-48.67
-52.72
-55.31
-55.95
-54.46
-50.97
-45.93
-39.89
-33.38
-26.74
-20.14
-13.62
-7.18
-0.94
4.95
10.23
14.73
18.33
21.06
23.03
24.40
25.28
25.65
25.39
24.39
22.61
20.23
17.60
15.13
13.07
11.44
10.02
8.48
6.57
4.21
1.53
-1.24
-3.88
-6.32
-8.57
-10.79
-13.10
-15.65
-18.52
-21.76
-25.45
-29.51
-33.74
-37.73
-40.90
-42.70
-42.72
-40.87
-37.36
-32.56
-26.89
-20.66
-14.10
-7.36
-0.64
5.83
11.79
17.04
21.53
25.29
28.44
31.03
33.09
34.60
35.55
36.00
36.08
35.91
35.59
35.16
34.53
33.63
32.37
30.73
28.77
26.61
24.34
22.05
19.72
17.27
14.57
11.51
8.04
4.25
0.32
-3.55
-7.27
-10.87
-14.55
-18.54
-23.00
-27.96
-33.25
-38.54
-43.32
-47.00
-48.98
-48.86
-46.52
-42.18
-36.37
-29.69
-22.68
-15.70
-8.91
-2.41
3.72
9.33
14.27
18.39
21.66
24.10
25.87
27.14
28.09
28.88
29.60
30.30
31.00
31.69
32.35
32.92
33.28
33.30
32.89
31.98
30.63
28.95
27.10
25.23
23.42
21.62
19.72
17.53
14.89
11.74
8.20
4.57
1.19
-1.69
-4.13
-6.51
-9.35
-13.14
-17.97
-23.45
-28.69
-32.58
-34.20
-33.11
-29.53
-24.17
-17.96
-11.68
-5.78
-0.37
4.68
9.53
14.23
18.65
22.59
25.80
28.15
29.59
30.19
30.16
29.76
29.29
28.92
28.73
28.64
28.44
27.97
27.12
25.90
24.44
22.87
21.27
19.64
17.83
15.69
13.16
10.33
7.34
4.40
1.62
-1.04
-3.73
-6.60
-9.77
-13.28
-17.10
-21.21
-25.49
-29.82
-33.88
-37.26
-39.41
-39.86
-38.31
-34.81
-29.73
-23.62
-17.08
-10.62
-4.56
0.88
5.50
9.14
11.67
13.19
13.98
14.47
15.07
15.94
16.96
17.81
18.17
17.94
17.23
16.35
15.55
14.95
14.45
13.78
12.60
10.67
7.97
4.67
1.13
-2.24
-5.14
-7.43
-9.20
-10.68
-12.18
-13.99
-16.31
-19.20
-22.52
-26.00
-29.15
-31.44
-32.32
-31.48
-28.92
-25.01
-20.35
-15.49
-10.83
-6.40
-2.06
2.36
6.84
11.13
14.81
17.56
19.30
20.25
20.76
21.13
21.43
21.51
21.13
20.16
18.69
17.03
15.56
14.54
13.97
13.57
12.87
11.44
9.10
5.98
2.48
-0.94
-3.91
-6.39
-8.52
-10.60
-12.91
-15.63
-18.80
-22.44
-26.46
-30.66
-34.70
-38.01
-39.96
-40.00
-37.88
-33.81
-28.37
-22.31
-16.27
-10.60
-5.32
-0.18
5.06
10.44
15.78
20.66
24.67
27.60
29.51
30.71
31.57
32.38
33.24
34.01
34.49
34.46
33.81
32.59
30.94
29.04
26.99
24.82
22.53
20.07
17.52
15.01
12.76
10.95
9.71
9.03
8.77
8.66
8.32
7.39
5.63
3.08
0.16
-2.34
-3.53
-2.69
0.44
5.62
12.33
20.00
28.39
37.60
47.97
59.74
72.80
86.55
100.01
112.22
122.60
131.21
138.66
145.76
152.97
159.97
165.72
168.70
167.56
161.51
150.74
136.31
119.97
103.84
89.86
79.22
71.67
65.06
55.63
39.00
11.95
-25.72
-70.28
-114.74
-151.17
-173.78
-181.18
-176.59
-166.14
-156.15
-150.84
-151.54
-157.38
-166.52
-177.06
-187.14
-194.66
-196.94
-191.25
-175.62
-149.71
-115.34
-76.11
-36.75
-1.95
24.54
40.74
46.80
44.86
38.17
30.09
23.29
19.28
18.59
21.00
25.68
31.23
35.79
37.37
34.36
26.01
12.51
-5.02
-24.93
-45.24
-63.81
-78.57
-87.82
-90.73
-87.72
-80.38
-71.14
-62.36
-55.75
-51.93
-50.60
-50.88
-51.83
-52.78
-53.35
-53.46
-53.10
-52.14
-50.36
-47.41
-43.03
-37.16
-29.99
-21.93
-13.49
-5.18
2.63
9.67
15.75
20.73
24.50
27.05
28.52
29.17
29.36
29.42
29.54
29.78
29.99
29.92
29.32
28.02
25.98
23.32
20.21
16.84
13.31
9.68
5.95
2.11
-1.87
-6.09
-10.68
-15.78
-21.43
-27.41
-33.26
-38.28
-41.75
-43.11
-42.13
-38.98
-34.11
-28.16
-21.71
-15.28
-9.16
-3.51
1.64
6.30
10.43
13.99
16.91
19.15
20.73
21.72
22.24
22.44
22.36
22.07
21.59
20.94
20.20
19.41
18.52
17.40
15.82
13.62
10.74
7.30
3.59
-0.04
-3.34
-6.14
-8.52
-10.73
-13.12
-16.08
-19.79
-24.19
-28.78
-32.78
-35.30
-35.63
-33.56
-29.37
-23.75
-17.47
-11.19
-5.32
0.00
4.72
8.85
12.38
15.38
17.94
20.19
22.22
24.01
25.39
26.12
26.04
25.14
23.64
21.89
20.27
19.03
18.15
17.38
16.36
14.73
12.35
9.33
5.97
2.62
-0.45
-3.19
-5.73
-8.35
-11.36
-14.90
-18.96
-23.25
-27.29
-30.46
-32.18
-31.99
-29.65
-25.27
-19.29
-12.40
-5.38
1.11
6.66
11.15
14.72
17.57
19.87
21.70
23.03
23.89
24.40
24.69
24.86
24.88
24.65
24.01
22.89
21.32
19.38
17.14
14.64
11.87
8.86
5.68
2.41
-0.82
-4.00
-7.18
-10.45
-13.92
-17.63
-21.67
-26.01
-30.55
-34.95
-38.60
-40.70
-40.50
-37.54
-31.87
-24.10
-15.16
-6.11
2.18
9.12
14.46
18.23
20.63
21.99
22.65
22.88
22.81
22.45
21.75
20.71
19.42
18.04
16.78
15.73
14.86
14.03
13.05
11.79
10.23
8.41
6.41
4.32
2.14
-0.10
-2.41
-4.80
-7.31
-10.07
-13.31
-17.24
-21.91
-27.05
-32.01
-35.90
-37.87
-37.35
-34.33
-29.29
-23.02
-16.37
-10.01
-4.33
0.59
4.80
8.39
11.38
13.75
15.39
16.25
16.30
15.65
14.49
13.03
11.46
9.87
8.29
6.65
4.85
2.78
0.33
-2.53
-5.68
-8.85
-11.64
-13.61
-14.39
-13.77
-11.60
-7.80
-2.26
5.04
13.89
23.68
33.42
42.00
48.56
52.90
55.61
57.88
61.09
66.38
74.55
85.99
100.84
118.67
138.07
156.23
169.31
173.41
166.11
147.61
120.77
90.07
59.75
32.41
8.68
-12.07
-30.40
-46.09
-58.32
-66.56
-71.37
-74.50
-78.07
-83.49
-90.68
-98.24
-104.28
-107.38
-107.27
-104.65
-100.64
-96.14
-91.42
-86.41
-81.01
-75.52
-70.58
-67.04
-65.42
-65.61
-66.88
-67.97
-67.60
-64.80
-59.25
-51.29
-41.75
-31.66
-21.93
-13.14
-5.46
1.18
7.05
12.38
17.36
21.95
26.02
29.41
31.95
33.64
34.58
34.94
34.87
34.40
33.45
31.94
29.84
27.20
24.23
21.13
18.07
15.18
12.51
10.07
7.82
5.73
3.71
1.71
-0.31
-2.30
-4.21
-5.97
-7.61
-9.31
-11.26
-13.72
-16.73
-20.22
-23.87
-27.21
-29.70
-30.83
-30.25
-27.86
-23.80
-18.46
-12.35
-6.02
0.10
5.74
10.81
15.30
19.24
22.62
25.44
27.76
29.66
31.30
32.79
34.15
35.33
36.21
36.70
36.75
36.39
35.65
34.62
33.37
31.97
30.47
28.84
27.02
24.86
22.34
19.48
16.40
13.24
10.11
7.01
3.89
0.64
-2.87
-6.76
-11.23
-16.42
-22.42
-29.10
-36.04
-42.61
-48.00
-51.49
-52.52
-50.87
-46.67
-40.37
-32.69
-24.42
-16.33
-8.91
-2.37
3.37
8.48
13.10
17.22
20.68
23.34
25.15
26.25
26.99
27.65
28.39
29.15
29.77
30.02
29.80
29.15
28.20
27.10
25.94
24.70
23.23
21.34
18.90
15.88
12.39
8.66
4.98
1.51
-1.75
-4.94
-8.32
-12.14
-16.54
-21.46
-26.65
-31.60
-35.75
-38.45
-39.23
-37.93
-34.70
-29.97
-24.29
-18.25
-12.34
-6.96
-2.36
1.29
4.04
6.08
7.66
9.04
10.29
11.40
12.28
12.93
13.44
13.99
14.71
15.58
16.44
17.01
17.11
16.68
15.86
14.77
13.51
12.01
10.12
7.68
4.66
1.23
-2.30
-5.59
-8.42
-10.80
-12.96
-15.32
-18.29
-22.15
-26.86
-32.05
-37.03
-41.02
-43.31
-43.44
-41.34
-37.26
-31.69
-25.27
-18.62
-12.30
-6.69
-1.99
1.85
5.01
7.77
10.35
12.85
15.27
17.43
19.17
20.31
20.80
20.70
20.20
19.54
18.88
18.32
17.83
17.31
16.67
15.84
14.77
13.37
11.51
9.05
6.04
2.65
-0.77
-3.90
-6.56
-8.81
-10.87
-13.04
-15.55
-18.50
-21.88
-25.60
-29.49
-33.32
-36.69
-39.10
-40.01
-39.02
-36.02
-31.28
-25.39
-19.10
-13.05
-7.62
-2.90
1.20
4.80
7.96
10.66
12.81
14.44
15.65
16.60
17.45
18.22
18.84
19.17
19.12
18.67
17.95
17.14
16.41
15.85
15.45
15.12
14.63
13.76
12.30
10.21
7.53
4.50
1.42
-1.44
-3.89
-5.93
-7.64
-9.23
-10.95
-13.13
-16.06
-19.97
-24.80
-30.13
-35.20
-39.03
-40.79
-40.01
-36.78
-31.71
-25.65
-19.45
-13.68
-8.57
-3.99
0.26
4.40
8.50
12.39
15.83
18.52
20.26
21.02
20.99
20.49
19.91
19.54
19.52
19.80
20.15
20.36
20.24
19.74
18.87
17.71
16.31
14.68
12.80
10.63
8.17
5.45
2.53
-0.50
-3.56
-6.57
-9.50
-12.37
-15.30
-18.41
-21.83
-25.61
-29.70
-33.90
-37.82
-40.94
-42.69
-42.59
-40.38
-36.10
-30.16
-23.19
-15.94
-9.01
-2.76
2.70
7.48
11.70
15.44
18.71
21.46
23.67
25.41
26.79
27.94
28.96
29.86
30.61
31.11
31.32
31.18
30.68
29.86
28.76
27.42
25.76
23.67
21.03
17.83
14.22
10.46
6.85
3.54
0.57
-2.20
-4.94
-7.76
-10.71
-13.80
-17.10
-20.71
-24.74
-29.14
-33.66
-37.74
-40.65
-41.66
-40.29
-36.49
-30.69
-23.70
-16.39
-9.46
-3.26
2.17
6.99
11.38
15.37
18.89
21.74
23.81
25.10
25.72
25.90
25.89
25.88
25.89
25.88
25.65
25.09
24.15
22.92
21.54
20.17
18.88
17.66
16.45
15.11
13.50
11.51
9.07
6.25
3.17
0.10
-2.77
-5.33
-7.72
-10.20
-13.11
-16.72
-21.08
-25.99
-30.99
-35.42
-38.55
-39.72
-38.55
-35.03
-29.59
-22.98
-16.12
-9.78
-4.41
-0.05
3.55
6.70
9.59
12.18
14.32
15.79
16.58
16.93
17.18
17.67
18.47
19.41
20.13
20.35
19.98
19.20
18.34
17.70
17.34
17.07
16.54
15.44
13.65
11.28
8.61
5.95
3.47
1.18
-1.07
-3.50
-6.28
-9.53
-13.28
-17.53
-22.14
-26.89
-31.38
-35.07
-37.29
-37.51
-35.43
-31.19
-25.34
-18.61
-11.81
-5.49
0.06
4.84
8.97
12.54
15.56
17.93
19.55
20.43
20.73
20.75
20.78
21.04
21.47
21.86
21.88
21.31
20.17
18.64
17.04
15.57
14.32
13.13
11.83
10.21
8.22
5.86
3.21
0.40
-2.48
-5.31
-8.06
-10.78
-13.62
-16.80
-20.51
-24.87
-29.76
-34.88
-39.65
-43.45
-45.58
-45.56
-43.20
-38.66
-32.52
-25.54
-18.53
-12.05
-6.35
-1.39
3.11
7.33
11.34
14.96
17.95
20.08
21.40
22.18
22.77
23.48
24.36
25.23
25.83
25.99
25.72
25.20
24.58
23.90
23.01
21.69
19.85
17.53
14.97
12.40
9.94
7.52
4.95
2.07
-1.18
-4.67
-8.20
-11.59
-14.83
-18.07
-21.58
-25.63
-30.25
-35.21
-39.94
-43.62
-45.46
-44.94
-41.98
-36.96
-30.60
-23.68
-16.88
-10.59
-4.93
0.19
4.89
9.28
13.33
16.93
19.97
22.31
24.01
25.21
26.09
26.79
27.33
27.63
27.64
27.41
27.06
26.76
26.61
26.51
26.25
25.59
24.36
22.50
20.06
17.17
13.94
10.49
6.90
3.36
-0.02
-3.11
-5.89
-8.50
-11.19
-14.29
-18.06
-22.65
-27.94
-33.55
-38.82
-42.96
-45.28
-45.33
-43.06
-38.78
-33.05
-26.46
-19.52
-12.58
-5.83
0.56
6.45
11.68
16.12
19.71
22.50
24.62
26.20
27.40
28.30
28.94
29.32
29.44
29.32
28.99
28.56
28.05
27.50
26.82
25.92
24.73
23.24
21.51
19.62
17.62
15.42
12.85
9.72
5.96
1.70
-2.75
-7.03
-10.92
-14.41
-17.78
-21.40
-25.61
-30.51
-35.91
-41.30
-45.95
-49.11
-50.12
-48.63
-44.70
-38.78
-31.66
-24.17
-17.01
-10.56
-4.93
0.03
4.50
8.57
12.23
15.36
17.85
19.66
20.88
21.63
22.15
22.64
23.22
23.95
24.70
25.28
25.52
25.29
24.61
23.61
22.48
21.33
20.18
18.89
17.31
15.29
12.79
9.90
6.73
3.41
0.00
-3.47
-7.04
-10.69
-14.45
-18.33
-22.37
-26.59
-30.82
-34.69
-37.51
-38.55
-37.19
-33.29
-27.25
-19.88
-12.17
-4.97
1.24
6.33
10.43
13.74
16.44
18.63
20.38
21.81
22.99
24.00
24.85
25.54
26.03
26.26
26.19
25.85
25.34
24.76
24.23
23.78
23.36
22.78
21.84
20.38
18.35
15.84
13.01
10.05
7.07
4.08
1.05
-2.05
-5.24
-8.46
-11.69
-14.91
-18.25
-21.93
-26.17
-31.11
-36.52
-41.83
-46.14
-48.49
-48.22
-45.16
-39.74
-32.79
-25.29
-18.00
-11.35
-5.39
0.04
5.13
9.96
14.38
18.20
21.20
23.31
24.64
25.40
25.86
26.15
26.32
26.35
26.18
25.84
25.39
24.87
24.28
23.59
22.70
21.55
20.04
18.15
15.87
13.25
10.41
7.46
4.51
1.62
-1.17
-3.90
-6.63
-9.50
-12.66
-16.26
-20.42
-25.14
-30.25
-35.33
-39.80
-43.00
-44.30
-43.35
-40.16
-35.08
-28.80
-22.04
-15.38
-9.17
-3.50
1.69
6.37
10.53
14.05
16.90
19.14
20.91
22.41
23.72
24.82
25.58
25.89
25.70
25.08
24.21
23.27
22.38
21.52
20.62
19.52
18.18
16.62
14.94
13.23
11.40
9.30
6.74
3.66
0.19
-3.37
-6.69
-9.61
-12.14
-14.55
-17.18
-20.37
-24.32
-29.02
-34.17
-39.19
-43.27
-45.54
-45.36
-42.53
-37.42
-30.84
-23.79
-17.08
-11.14
-5.99
-1.41
2.85
6.89
10.62
13.80
16.24
17.81
18.58
18.73
18.54
18.25
18.04
17.98
18.03
18.08
17.96
17.55
16.80
15.78
14.60
13.43
12.39
11.48
10.65
9.74
8.60
7.13
5.31
3.21
0.91
-1.47
-3.90
-6.33
-8.86
-11.62
-14.79
-18.61
-23.15
-28.30
-33.62
-38.39
-41.77
-43.01
-41.72
-37.95
-32.26
-25.47
-18.46
-11.95
-6.33
-1.67
2.22
5.61
8.77
11.75
14.55
17.00
18.95
20.29
21.04
21.37
21.47
21.61
21.93
22.46
23.11
23.72
24.18
24.48
24.73
25.00
25.35
25.64
25.71
25.31
24.34
22.81
20.80
18.41
15.69
12.68
9.43
6.05
2.62
-0.81
-4.37
-8.28
-12.73
-17.76
-23.01
-27.79
-31.16
-32.32
-30.83
-26.78
-20.79
-13.78
-6.66
-0.15
5.33
9.71
13.10
15.66
17.63
19.14
20.30
21.16
21.73
22.03
22.14
22.18
22.30
22.63
23.19
23.95
24.79
25.59
26.23
26.61
26.59
26.00
24.61
22.25
18.86
14.58
9.75
4.82
0.23
-3.73
-6.96
-9.51
-11.58
-13.35
-15.05
-16.89
-19.06
-21.74
-24.93
-28.40
-31.59
-33.78
-34.21
-32.43
-28.45
-22.78
-16.23
-9.67
-3.72
1.40
5.75
9.57
13.03
16.12
18.68
20.53
21.54
21.80
21.55
21.10
20.73
20.51
20.33
19.98
19.25
18.08
16.59
15.00
13.48
12.07
10.65
8.99
6.93
4.46
1.71
-1.13
-3.94
-6.64
-9.31
-12.04
-14.87
-17.80
-20.72
-23.55
-26.35
-29.31
-32.74
-36.91
-41.80
-46.96
-51.57
-54.63
-55.32
-53.29
-48.80
-42.57
-35.54
-28.55
-22.11
-16.44
-11.51
-7.26
-3.63
-0.65
1.65
3.27
4.30
4.91
5.28
5.60
6.00
6.51
7.18
8.07
9.32
10.97
13.02
15.24
17.23
18.54
18.82
17.91
15.97
13.33
10.37
7.47
4.84
2.51
0.38
-1.81
-4.33
-7.45
-11.24
-15.53
-19.85
-23.50
-25.77
-26.14
-24.45
-21.00
-16.44
-11.47
-6.72
-2.45
1.37
4.97
8.58
12.23
15.76
18.83
21.12
22.46
22.91
22.70
22.13
21.47
20.81
20.15
19.39
18.46
17.40
16.37
15.55
15.06
14.82
14.54
13.85
12.42
10.14
7.15
3.82
0.52
-2.49
-5.16
-7.66
-10.26
-13.23
-16.73
-20.79
-25.26
-29.79
-33.91
-36.99
-38.51
-38.09
-35.68
-31.53
-26.12
-19.99
-13.66
-7.53
-1.83
3.33
7.95
12.05
15.67
18.86
21.66
24.07
26.05
27.54
28.42
28.63
28.17
27.14
25.72
24.11
22.51
21.01
19.61
18.15
16.43
14.25
11.44
8.07
4.32
0.55
-2.90
-5.76
-8.04
-9.99
-11.99
-14.51
-17.88
-22.23
-27.38
-32.81
-37.74
-41.31
-42.79
-41.83
-38.55
-33.49
-27.38
-20.82
-14.05
-6.91
1.03
10.12
20.38
31.29
41.99
51.55
59.51
66.17
72.50
79.73
88.69
99.30
110.55
121.06
129.74
136.37
141.70
146.84
152.63
158.98
165.01
169.40
171.11
169.71
165.40
158.81
150.79
142.28
133.99
125.98
117.08
104.89
86.42
59.60
24.71
-14.96
-53.76
-85.70
-107.00
-117.52
-121.08
-123.92
-132.45
-150.83
-179.33
-213.97
-247.48
-271.34
-278.44
-265.61
-234.99
-193.55
-150.84
-115.60
-92.71
-81.79
-78.03
-74.62
-65.81
-48.88
-24.58
3.94
32.96
59.45
81.71
99.01
111.07
117.43
117.59
111.44
99.58
83.69
66.26
50.22
38.15
31.58
30.59
33.83
38.92
42.88
42.58
35.14
18.70
-6.70
-38.36
-70.86
-97.11
-110.39
-106.85
-87.07
-56.17
-22.07
7.12
25.69
31.64
26.41
13.72
-2.20
-17.68
-30.19
-38.22
-41.07
-38.74
-31.82
-21.66
-10.33
-0.23
6.58
8.96
7.04
2.05
-4.21
-10.16
-14.99
-18.86
-22.66
-27.31
-33.29
-40.30
-47.50
-54.08
-59.81
-65.19
-71.00
-77.72
-84.92
-91.37
-95.57
-96.46
-93.91
-88.62
-81.65
-73.86
-65.49
-56.38
-46.27
-35.26
-23.82
-12.74
-2.67
6.01
13.33
19.42
24.53
28.67
31.72
33.51
33.95
33.17
31.54
29.59
27.83
26.62
26.11
26.17
26.49
26.67
26.35
25.35
23.72
21.69
19.49
17.34
15.21
12.99
10.51
7.75
4.86
2.08
-0.36
-2.51
-4.57
-6.97
-10.04
-13.94
-18.47
-23.15
-27.31
-30.26
-31.42
-30.45
-27.32
-22.31
-16.00
-9.15
-2.54
3.24
7.88
11.35
13.84
15.57
16.67
17.22
17.22
16.76
15.96
15.01
14.00
12.95
11.84
10.67
9.56
8.62
7.98
7.59
7.25
6.70
5.79
4.53
3.08
1.68
0.49
-0.41
-1.10
-1.77
-2.62
-3.87
-5.70
-8.19
-11.25
-14.58
-17.73
-20.14
-21.30
-20.84
-18.63
-14.83
-9.85
-4.27
1.27
6.29
10.48
13.81
16.38
18.20
19.22
19.33
18.53
17.00
15.17
13.56
12.47
11.93
11.59
11.01
9.84
7.97
5.59
2.99
0.46
-1.88
-4.02
-6.05
-8.02
-9.96
-11.83
-13.63
-15.40
-17.28
-19.55
-22.42
-25.98
-30.02
-34.02
-37.27
-39.05
-38.90
-36.73
-32.80
-27.60
-21.64
-15.38
-9.15
-3.26
2.02
6.45
9.86
12.26
13.75
14.56
14.91
14.97
14.82
14.51
14.02
13.38
12.64
11.84
11.04
10.21
9.36
8.35
7.07
5.39
3.23
0.59
-2.48
-5.85
-9.44
-13.13
-16.94
-20.91
-25.10
-29.55
-34.14
-38.61
-42.50
-45.33
-46.62
-46.19
-44.03
-40.46
-35.89
-30.82
-25.69
-20.85
-16.59
-13.06
-10.37
-8.50
-7.29
-6.49
-5.75
-4.74
-3.21
-1.08
1.55
4.47
7.47
10.38
13.12
15.60
17.67
19.14
19.72
19.22
17.61
15.02
11.75
8.09
4.28
0.34
-3.81
-8.36
-13.38
-18.81
-24.40
-29.76
-34.41
-37.90
-39.78
-39.79
-37.85
-34.12
-29.02
-23.14
-17.03
-11.05
-5.38
0.01
5.15
9.94
14.16
17.52
19.84
21.21
21.88
22.24
22.64
23.34
24.43
25.89
27.63
29.35
30.70
31.33
31.09
30.17
29.07
28.36
28.39
29.08
29.96
30.47
30.24
29.21
27.55
25.27
22.14
17.69
11.63
4.20
-3.62
-10.36
-14.56
-15.33
-12.66
-7.39
-0.75
6.03
12.17
17.43
21.93
25.88
29.36
32.23
34.24
35.25
35.39
35.07
34.83
35.06
35.81
36.80
37.56
37.64
36.76
34.89
32.20
28.85
24.96
20.52
15.50
9.90
3.75
-2.85
-9.80
-17.03
-24.52
-32.22
-39.95
-47.30
-53.61
-58.04
-59.76
-58.29
-53.58
-46.25
-37.32
-28.02
-19.40
-12.11
-6.35
-1.96
1.38
3.93
5.80
7.01
7.61
7.71
7.55
7.34
7.19
7.01
6.64
5.89
4.75
3.37
1.94
0.64
-0.56
-1.83
-3.40
-5.43
-7.88
-10.62
-13.42
-16.20
-19.01
-22.06
-25.62
-29.88
-34.76
-39.88
-44.52
-47.84
-49.06
-47.75
-43.92
-38.02
-30.71
-22.75
-14.75
-7.13
-0.07
6.31
11.99
16.92
21.05
24.35
26.80
28.43
29.33
29.65
29.57
29.34
29.19
29.29
29.70
30.27
30.71
30.56
29.42
26.99
23.22
18.35
12.80
7.14
1.84
-2.72
-6.43
-9.41
-11.92
-14.32
-16.92
-19.88
-23.13
-26.36
-29.09
-30.80
-31.06
-29.62
-26.55
-22.13
-16.79
-10.90
-4.75
1.49
7.77
13.98
19.95
25.38
29.98
33.45
35.68
36.70
36.73
36.05
34.91
33.44
31.59
29.26
26.36
23.01
19.53
16.35
13.89
12.36
11.72
11.70
11.91
11.97
11.58
10.48
8.52
5.55
1.52
-3.45
-9.16
-15.30
-21.54
-27.58
-33.16
-38.03
-41.86
-44.32
-45.11
-44.12
-41.54
-37.76
-33.29
-28.54
-23.78
-19.10
-14.53
-10.06
-5.70
-1.42
2.88
7.28
11.80
16.25
20.34
23.73
26.19
27.67
28.25
28.09
27.31
26.06
24.53
23.07
22.02
21.62
21.85
22.42
22.86
22.73
21.82
20.18
18.08
15.82
13.49
11.06
8.25
4.81
0.59
-4.41
-10.04
-16.12
-22.38
-28.56
-34.24
-38.95
-42.07
-43.06
-41.54
-37.53
-31.47
-24.11
-16.36
-9.00
-2.56
2.81
7.24
11.07
14.59
17.94
21.03
23.60
25.42
26.40
26.70
26.70
26.79
27.26
28.10
29.02
29.57
29.36
28.19
26.17
23.65
21.00
18.55
16.35
14.30
12.15
9.69
6.86
3.68
0.30
-3.17
-6.66
-10.24
-13.93
-17.73
-21.54
-25.23
-28.75
-32.10
-35.37
-38.53
-41.37
-43.37
-43.83
-42.04
-37.62
-30.74
-22.11
-12.81
-3.80
4.22
11.10
17.04
22.29
26.91
30.62
33.07
34.02
33.63
32.53
31.45
31.01
31.36
32.33
33.46
34.39
34.91
34.93
34.35
32.97
30.56
27.00
22.54
17.68
13.13
9.45
6.81
4.99
3.43
1.61
-0.87
-4.02
-7.61
-11.21
-14.45
-17.13
-19.30
-21.23
-23.27
-25.72
-28.64
-31.73
-34.42
-35.93
-35.60
-33.08
-28.55
-22.62
-16.12
-9.81
-4.17
0.68
4.86
8.48
11.54
13.91
15.47
16.23
16.50
16.67
17.03
17.72
18.56
19.26
19.56
19.38
18.86
18.21
17.58
16.98
16.24
15.11
13.40
11.07
8.26
5.23
2.25
-0.47
-2.85
-4.98
-7.03
-9.22
-11.69
-14.57
-17.89
-21.73
-26.01
-30.52
-34.73
-37.91
-39.27
-38.27
-34.87
-29.56
-23.16
-16.52
-10.22
-4.47
0.79
5.60
9.92
13.48
16.06
17.52
18.01
17.87
17.51
17.24
17.17
17.21
17.11
16.66
15.78
14.60
13.37
12.35
11.64
11.07
10.29
8.93
6.77
3.88
0.53
-2.87
-6.00
-8.69
-11.02
-13.21
-15.56
-18.31
-21.59
-25.38
-29.38
-33.13
-36.01
-37.42
-36.91
-34.30
-29.74
-23.68
-16.82
-9.92
-3.70
1.40
5.28
8.11
10.31
12.26
14.23
16.19
17.97
19.26
19.88
19.86
19.38
18.77
18.22
17.87
17.65
17.45
17.13
16.62
15.86
14.74
13.15
10.97
8.22
5.04
1.80
-1.12
-3.45
-5.18
-6.61
-8.12
-10.17
-12.97
-16.61
-20.92
-25.63
-30.37
-34.64
-37.97
-39.84
-39.89
-38.00
-34.29
-29.16
-23.13
-16.80
-10.64
-5.02
-0.09
4.11
7.69
10.74
13.25
15.18
16.46
17.14
17.40
17.55
17.89
18.56
19.49
20.35
20.76
20.30
18.82
16.37
13.24
9.81
6.47
3.49
0.92
-1.29
-3.24
-4.98
-6.48
-7.72
-8.76
-9.92
-11.68
-14.61
-19.03
-24.91
-31.73
-38.56
-44.36
-48.20
-49.66
-48.79
-46.14
-42.45
-38.43
-34.53
-30.91
-27.48
-24.04
-20.51
-16.95
-13.67
-11.18
-10.09
-10.93
-13.85
-18.45
-23.73
-28.32
-30.92
-30.75
-27.79
-22.73
-16.61
-10.43
-4.92
-0.43
2.93
5.07
5.98
5.71
4.52
2.82
1.11
-0.27
-1.26
-2.08
-3.11
-4.75
-7.31
-10.91
-15.55
-21.01
-26.86
-32.49
-37.19
-40.34
-41.53
-40.72
-38.09
-34.03
-28.90
-22.96
-16.43
-9.60
-2.99
2.75
6.98
9.36
10.10
9.98
10.14
11.64
15.04
20.19
26.36
32.52
37.80
41.81
44.61
46.64
48.35
50.04
51.74
53.20
54.03
53.83
52.37
49.68
46.00
41.64
36.98
32.29
27.74
23.38
19.17
15.01
10.75
6.37
2.05
-1.58
-3.67
-3.37
-0.26
5.33
12.22
18.73
23.33
25.17
24.43
22.15
19.83
18.84
19.90
23.00
27.49
32.54
37.46
42.00
46.27
50.54
54.94
59.25
62.95
65.29
65.43
62.62
56.24
45.86
31.30
12.89
-8.62
-31.86
-55.18
-76.93
-95.91
-111.69
-124.58
-135.38
-144.87
-153.33
-160.10
-163.71
-162.31
-154.34
-139.25
-117.84
-92.08
-64.37
-36.79
-10.54
14.07
37.13
58.64
78.09
94.70
107.81
117.43
124.33
129.83
135.20
141.21
147.96
155.18
162.55
169.98
177.50
184.91
191.38
195.33
194.83
188.27
174.99
155.80
132.75
108.58
85.86
66.23
49.97
36.19
23.33
9.93
-4.91
-21.31
-38.89
-57.06
-75.37
-93.42
-110.72
-126.41
-139.26
-148.00
-151.65
-150.02
-143.55
-133.21
-119.86
-104.02
-85.82
-65.19
-42.23
-17.45
8.20
33.68
58.17
81.37
103.50
125.03
146.17
166.56
185.23
200.89
212.52
219.66
222.53
221.83
218.25
212.27
204.19
194.31
183.14
171.39
159.59
147.71
134.94
119.83
100.91
77.38
49.57
18.93
-12.39
-42.24
-69.00
-91.78
-110.48
-125.43
-137.19
-146.20
-152.68
-156.57
-157.64
-155.87
-151.62
-145.94
-140.28
-136.15
-134.55
-135.60
-138.51
-141.95
-144.75
-146.21
-146.39
-145.90
-145.51
-145.89
-147.39
-150.08
-153.80
-158.27
-163.09
-167.87
-172.12
-175.42
-177.46
-178.03
-176.99
-174.20
-169.42
-162.32
-152.61
-140.10
-124.93
-107.58
-88.83
-69.64
-50.94
-33.55
-18.11
-5.06
5.22
12.43
16.30
16.72
13.87
8.29
0.98
-6.76
-13.53
-18.27
-20.39
-20.03
-17.79
-14.61
-11.43
-8.95
-7.57
-7.49
-8.74
-11.26
-14.85
-19.21
-23.85
-28.24
-31.81
-34.19
-35.15
-34.64
-32.63
-29.10
-23.94
-17.05
-8.46
1.63
12.69
24.04
34.89
44.61
52.84
59.59
65.16
69.91
74.13
77.82
80.78
82.76
83.62
83.52
82.83
82.03
81.48
81.28
81.28
81.20
80.83
80.03
78.89
77.56
76.21
74.95
73.82
72.78
71.78
70.68
69.26
67.16
63.88
58.97
52.21
43.88
34.77
26.09
19.04
14.36
12.15
11.87
12.68
13.82
14.86
15.76
16.63
17.62
18.73
19.90
21.02
21.98
22.63
22.80
22.25
20.85
18.64
15.84
12.81
9.89
7.26
4.93
2.79
0.67
-1.61
-4.21
-7.24
-10.74
-14.61
-18.64
-22.58
-26.32
-29.86
-33.33
-36.91
-40.69
-44.64
-48.53
-51.98
-54.57
-55.79
-55.25
-52.65
-47.98
-41.45
-33.52
-24.82
-15.98
-7.58
-0.03
6.45
11.78
16.05
19.45
22.20
24.46
26.38
27.98
29.22
30.01
30.25
29.85
28.79
27.13
25.02
22.64
20.19
17.82
15.53
13.22
10.70
7.83
4.53
0.97
-2.61
-5.96
-8.96
-11.68
-14.38
-17.52
-21.46
-26.43
-32.19
-38.08
-42.94
-45.32
-43.89
-37.87
-27.32
-13.24
2.72
18.76
33.37
45.57
54.96
61.45
65.21
66.62
66.32
65.21
64.27
64.22
65.12
66.39
66.90
65.61
62.03
56.49
50.01
43.86
39.06
36.00
34.38
33.34
31.89
29.22
24.94
19.19
12.53
5.75
-0.37
-5.28
-8.88
-11.44
-13.45
-15.41
-17.57
-19.88
-22.06
-23.77
-24.73
-24.76
-23.79
-21.75
-18.68
-14.69
-10.22
-5.90
-2.48
-0.53
-0.25
-1.40
-3.39
-5.59
-7.53
-9.05
-10.22
-11.23
-12.24
-13.33
-14.54
-15.95
-17.73
-20.07
-23.14
-26.98
-31.46
-36.33
-41.27
-46.02
-50.32
-54.04
-57.04
-59.25
-60.65
-61.22
-61.08
-60.38
-59.29
-57.91
-56.22
-54.09
-51.37
-47.99
-44.02
-39.68
-35.20
-30.76
-26.36
-21.88
-17.18
-12.25
-7.30
-2.72
1.02
3.56
4.76
4.85
4.39
4.08
4.60
6.32
9.28
13.07
17.08
20.67
23.32
24.82
25.16
24.52
23.11
21.21
19.05
16.83
14.70
12.70
10.72
8.52
5.85
2.52
-1.43
-5.64
-9.58
-12.59
-14.16
-14.02
-12.22
-9.09
-5.14
-0.90
3.15
6.65
9.46
11.54
13.05
14.14
14.95
15.45
15.57
15.24
14.44
13.34
12.17
11.20
10.58
10.36
10.42
10.55
10.55
10.20
9.37
7.96
5.98
3.53
0.81
-1.95
-4.56
-6.91
-9.07
-11.23
-13.64
-16.47
-19.69
-23.01
-25.93
-27.87
-28.38
-27.32
-24.83
-21.32
-17.30
-13.21
-9.39
-5.95
-2.91
-0.15
2.42
4.92
7.34
9.58
11.49
12.90
13.74
14.09
14.09
13.88
13.51
12.96
12.16
11.15
10.01
8.88
7.84
6.86
5.86
4.78
3.58
2.26
0.77
-1.01
-3.26
-6.10
-9.47
-13.06
-16.39
-18.95
-20.31
-20.25
-18.77
-16.00
-12.24
-7.86
-3.28
1.11
5.02
8.29
10.90
12.91
14.39
15.41
16.02
16.29
16.33
16.24
16.06
15.82
15.46
14.86
13.96
12.73
11.22
9.52
7.75
5.99
4.22
2.38
0.35
-1.96
-4.59
-7.55
-10.79
-14.23
-17.73
-21.10
-24.00
-26.08
-27.01
-26.60
-24.87
-22.01
-18.34
-14.20
-9.89
-5.59
-1.42
2.60
6.44
10.05
13.28
15.87
17.58
18.29
18.14
17.48
16.74
16.26
16.12
16.18
16.16
15.84
15.11
14.00
12.58
10.88
8.95
6.79
4.49
2.13
-0.21
-2.59
-5.19
-8.25
-11.93
-16.15
-20.55
-24.49
-27.26
-28.26
-27.25
-24.40
-20.23
-15.40
-10.53
-6.05
-2.11
1.34
4.43
7.37
10.26
13.09
15.71
17.91
19.49
20.28
20.24
19.46
18.11
16.39
14.54
12.75
11.20
9.99
9.10
8.42
7.70
6.75
5.43
3.78
1.97
0.17
-1.53
-3.23
-5.18
-7.68
-10.92
-14.83
-19.05
-22.93
-25.76
-26.97
-26.30
-23.86
-20.08
-15.52
-10.65
-5.78
-1.01
3.64
8.17
12.43
16.24
19.36
21.64
23.08
23.80
24.02
23.92
23.61
23.06
22.29
21.32
20.30
19.38
18.69
18.21
17.80
17.25
16.35
15.06
13.40
11.54
9.63
7.76
5.95
4.09
2.01
-0.46
-3.46
-6.99
-10.89
-14.74
-18.07
-20.33
-21.15
-20.35
-18.04
-14.54
-10.31
-5.83
-1.44
2.57
6.10
9.14
11.74
13.98
15.95
17.66
19.04
19.99
20.41
20.32
19.86
19.26
18.78
18.52
18.44
18.33
17.89
16.94
15.43
13.52
11.36
9.11
6.80
4.40
1.85
-0.77
-3.36
-5.83
-8.24
-10.79
-13.67
-16.92
-20.24
-23.00
-24.47
-24.09
-21.69
-17.54
-12.32
-6.75
-1.48
3.16
7.06
10.35
13.22
15.80
18.16
20.23
21.92
23.08
23.69
23.74
23.31
22.48
21.33
19.96
18.47
17.03
15.82
14.94
14.34
13.74
12.77
11.11
8.73
5.81
2.84
0.24
-1.76
-3.25
-4.61
-6.28
-8.56
-11.48
-14.78
-18.02
-20.67
-22.32
-22.71
-21.83
-19.89
-17.21
-14.11
-10.82
-7.45
-4.06
-0.69
2.61
5.72
8.57
11.09
13.25
15.00
16.28
17.07
17.38
17.37
17.24
17.20
17.32
17.58
17.85
17.95
17.73
17.15
16.23
15.06
13.75
12.33
10.81
9.13
7.23
5.12
2.86
0.57
-1.67
-3.87
-6.17
-8.78
-11.85
-15.40
-19.27
-23.16
-26.67
-29.39
-30.96
-31.13
-29.82
-27.16
-23.43
-19.05
-14.44
-9.94
-5.81
-2.23
0.70
2.88
4.37
5.24
5.70
5.94
6.07
6.08
5.85
5.25
4.25
2.97
1.62
0.40
-0.62
-1.55
-2.62
-4.00
-5.76
-7.77
-9.80
-11.58
-12.95
-13.85
-14.29
-14.23
-13.67
-12.57
-10.99
-9.09
-7.08
-5.13
-3.36
-1.88
-0.75
-0.09
-0.02
-0.54
-1.54
-2.70
-3.64
-3.97
-3.44
-1.96
0.37
3.29
6.55
9.86
13.03
15.97
18.70
21.28
23.69
25.85
27.58
28.75
29.33
29.54
29.66
29.93
30.41
30.90
31.08
30.65
29.48
27.65
25.44
23.13
20.91
18.79
16.66
14.35
11.78
9.03
6.25
3.64
1.32
-0.71
-2.53
-4.29
-6.04
-7.78
-9.48
-11.12
-12.82
-14.78
-17.19
-20.07
-23.23
-26.23
-28.50
-29.54
-29.03
-27.00
-23.68
-19.50
-14.91
-10.25
-5.71
-1.38
2.63
6.16
9.02
11.02
12.10
12.46
12.45
12.48
12.87
13.71
14.83
15.91
16.63
16.74
16.21
15.17
13.85
12.52
11.29
10.17
9.00
7.65
6.04
4.25
2.40
0.58
-1.14
-2.81
-4.45
-6.06
-7.56
-8.89
-10.08
-11.29
-12.83
-15.00
-17.97
-21.66
-25.72
-29.55
-32.49
-34.02
-33.88
-32.18
-29.21
-25.44
-21.24
-16.85
-12.46
-8.19
-4.25
-0.84
1.84
3.75
4.99
5.83
6.55
7.32
8.17
9.03
9.76
10.31
10.78
11.32
12.05
13.00
14.00
14.84
15.29
15.34
15.07
14.65
14.19
13.64
12.80
11.47
9.60
7.33
4.99
2.94
1.38
0.29
-0.64
-1.80
-3.59
-6.19
-9.54
-13.29
-16.94
-19.91
-21.70
-21.96
-20.64
-17.96
-14.39
-10.46
-6.64
-3.26
-0.41
1.98
4.10
6.13
8.14
10.08
11.81
13.09
13.81
13.95
13.64
13.13
12.65
12.35
12.25
12.26
12.22
12.00
11.54
10.83
9.93
8.87
7.71
6.44
5.08
3.59
1.99
0.37
-1.16
-2.45
-3.49
-4.37
-5.34
-6.68
-8.60
-11.17
-14.23
-17.48
-20.49
-22.87
-24.25
-24.46
-23.44
-21.37
-18.50
-15.17
-11.76
-8.57
-5.89
-3.88
-2.58
-1.88
-1.52
-1.22
-0.74
-0.06
0.69
1.29
1.53
1.36
0.92
0.46
0.26
0.56
1.45
2.92
4.78
6.72
8.42
9.58
10.03
9.74
8.80
7.35
5.55
3.55
1.51
-0.43
-2.18
-3.78
-5.33
-7.06
-9.16
-11.81
-15.00
-18.63
-22.47
-26.14
-29.20
-31.21
-31.82
-30.84
-28.36
-24.64
-20.07
-15.06
-9.95
-4.96
-0.26
4.04
7.93
11.41
14.51
17.23
19.55
21.42
22.78
23.64
24.04
24.16
24.11
24.00
23.81
23.50
23.02
22.40
21.74
21.14
20.63
20.03
19.09
17.52
15.22
12.34
9.24
6.36
3.97
2.11
0.51
-1.19
-3.34
-6.15
-9.66
-13.81
-18.42
-23.23
-27.80
-31.57
-33.95
-34.51
-33.13
-30.08
-25.90
-21.20
-16.49
-12.01
-7.81
-3.83
-0.03
3.52
6.77
9.63
12.06
14.02
15.47
16.37
16.76
16.80
16.70
16.68
16.79
16.92
16.87
16.48
15.80
14.96
14.17
13.42
12.61
11.47
9.89
7.90
5.76
3.77
2.11
0.76
-0.50
-1.87
-3.48
-5.34
-7.40
-9.65
-12.16
-15.14
-18.68
-22.70
-26.83
-30.42
-32.82
-33.52
-32.38
-29.62
-25.75
-21.31
-16.73
-12.22
-7.82
-3.55
0.56
4.33
7.60
10.17
12.01
13.16
13.77
14.05
14.19
14.37
14.65
15.06
15.58
16.15
16.69
17.09
17.27
17.13
16.63
15.74
14.53
13.07
11.47
9.73
7.82
5.71
3.35
0.83
-1.74
-4.21
-6.49
-8.57
-10.57
-12.69
-15.13
-18.01
-21.37
-25.02
-28.60
-31.59
-33.44
-33.68
-32.11
-28.82
-24.18
-18.71
-12.88
-7.10
-1.67
3.11
7.03
9.88
11.66
12.54
12.82
12.81
12.71
12.55
12.24
11.71
10.97
10.09
9.12
8.03
6.71
5.03
3.03
0.94
-0.84
-1.87
-1.77
-0.37
2.30
5.99
10.32
14.85
19.11
22.66
25.12
26.17
25.60
23.33
19.45
14.20
8.01
1.34
-5.37
-11.80
-17.73
-22.98
-27.34
-30.52
-32.13
-31.87
-29.64
-25.66
-20.48
-14.86
-9.56
-5.08
-1.56
1.24
3.73
6.28
8.93
11.45
13.40
14.44
14.52
13.89
13.05
12.41
12.24
12.47
12.89
13.25
13.39
13.29
13.04
12.68
12.19
11.46
10.39
8.96
7.24
5.46
3.79
2.36
1.10
-0.17
-1.65
-3.44
-5.52
-7.73
-9.94
-12.09
-14.30
-16.85
-20.02
-23.97
-28.54
-33.29
-37.48
-40.32
-41.19
-39.82
-36.39
-31.42
-25.60
-19.52
-13.60
-7.97
-2.70
2.12
6.36
9.86
12.50
14.31
15.45
16.12
16.57
16.90
17.19
17.44
17.64
17.79
17.90
18.00
18.08
18.15
18.14
17.93
17.38
16.35
14.83
12.89
10.69
8.36
5.96
3.44
0.72
-2.25
-5.47
-8.86
-12.37
-15.95
-19.53
-22.93
-25.84
-27.76
-28.19
-26.70
-23.08
-17.40
-9.98
-1.40
7.64
16.36
24.06
30.17
34.39
36.65
37.05
35.87
33.45
30.22
26.67
23.28
20.46
18.40
17.11
16.36
15.84
15.22
14.30
13.03
11.46
9.75
8.08
6.58
5.29
4.17
3.08
1.87
0.39
-1.44
-3.60
-6.04
-8.68
-11.43
-14.21
-17.02
-19.90
-22.95
-26.37
-30.27
-34.62
-39.12
-43.19
-46.13
-47.28
-46.30
-43.25
-38.57
-32.92
-26.95
-21.13
-15.72
-10.75
-6.10
-1.68
2.55
6.55
10.23
13.50
16.34
18.80
20.88
22.58
23.82
24.49
24.53
23.98
23.00
21.79
20.58
19.48
18.51
17.58
16.49
15.05
13.05
10.39
7.12
3.41
-0.43
-4.08
-7.33
-10.14
-12.62
-15.07
-17.83
-21.22
-25.39
-30.21
-35.29
-39.99
-43.58
-45.42
-45.16
-42.80
-38.67
-33.30
-27.28
-21.13
-15.17
-9.61
-4.50
0.16
4.41
8.32
11.95
15.34
18.50
21.35
23.81
25.77
27.20
28.11
28.62
28.85
28.94
28.94
28.84
28.56
27.97
26.96
25.48
23.58
21.38
19.04
16.68
14.31
11.84
9.12
6.06
2.65
-0.96
-4.59
-8.09
-11.45
-14.84
-18.50
-22.69
-27.50
-32.80
-38.24
-43.26
-47.18
-49.35
-49.26
-46.64
-41.52
-34.33
-25.79
-16.81
-8.32
-0.96
4.96
9.55
13.15
16.18
18.92
21.40
23.45
24.86
25.50
25.43
24.88
24.18
23.61
23.37
23.48
23.90
24.51
25.16
25.73
26.11
26.23
26.05
25.52
24.64
23.38
21.78
19.87
17.67
15.20
12.43
9.29
5.74
1.80
-2.45
-6.88
-11.43
-16.04
-20.80
-25.66
-30.43
-34.66
-37.77
-39.16
-38.45
-35.70
-31.29
-25.87
-20.06
-14.33
-8.85
-3.66
1.28
5.94
10.16
13.79
16.72
18.97
20.66
21.98
23.07
23.95
24.61
24.98
25.11
25.06
25.00
25.02
25.10
25.12
24.84
24.06
22.69
20.79
18.57
16.26
13.98
11.75
9.41
6.81
3.86
0.62
-2.72
-5.95
-8.92
-11.63
-14.29
-17.20
-20.63
-24.75
-29.44
-34.32
-38.78
-42.11
-43.70
-43.19
-40.57
-36.15
-30.51
-24.23
-17.82
-11.62
-5.82
-0.46
4.39
8.68
12.32
15.27
17.53
19.15
20.25
20.91
21.23
21.26
21.04
20.63
20.11
19.58
19.05
18.55
17.95
17.13
16.00
14.57
12.99
11.43
10.03
8.77
7.49
6.00
4.17
2.08
-0.10
-2.16
-3.99
-5.70
-7.57
-9.91
-12.96
-16.80
-21.33
-26.29
-31.25
-35.72
-39.14
-40.96
-40.79
-38.47
-34.20
-28.50
-22.11
-15.74
-9.95
-4.93
-0.64
3.16
6.64
9.81
12.55
14.64
16.01
16.73
17.06
17.27
17.52
17.81
18.00
17.94
17.56
16.97
16.35
15.86
15.54
15.27
14.83
14.00
12.65
10.80
8.62
6.32
4.09
2.03
0.11
-1.77
-3.73
-5.87
-8.22
-10.82
-13.75
-17.15
-21.18
-25.88
-31.01
-36.07
-40.31
-42.97
-43.51
-41.80
-38.12
-33.07
-27.38
-21.67
-16.39
-11.73
-7.71
-4.28
-1.34
1.19
3.41
5.33
6.88
7.94
8.38
8.20
7.53
6.72
6.14
6.17
6.96
8.50
10.60
13.03
15.62
18.26
20.89
23.41
25.65
27.41
28.46
28.70
28.06
26.61
24.44
21.62
18.18
14.15
9.51
4.23
-1.72
-8.39
-15.72
-23.47
-31.11
-37.86
-42.89
-45.53
-45.54
-43.16
-39.06
-34.09
-28.99
-24.23
-19.99
-16.21
-12.78
-9.66
-6.87
-4.53
-2.72
-1.39
-0.42
0.47
1.55
3.05
5.04
7.50
10.29
13.20
16.03
18.59
20.71
22.23
23.08
23.24
22.72
21.60
19.95
17.78
15.11
12.00
8.56
4.98
1.47
-1.85
-4.97
-8.02
-11.22
-14.84
-19.06
-23.94
-29.21
-34.37
-38.68
-41.37
-41.88
-40.04
-36.12
-30.74
-24.64
-18.43
-12.48
-6.96
-1.90
2.66
6.66
10.01
12.66
14.63
16.01
16.93
17.52
17.88
18.06
18.08
17.98
17.80
17.63
17.54
17.56
17.61
17.56
17.19
16.35
14.94
13.04
10.85
8.62
6.52
4.62
2.85
1.04
-1.05
-3.66
-6.96
-11.06
-15.88
-21.07
-26.01
-29.89
-31.92
-31.64
-29.05
-24.71
-19.41
-13.96
-8.89
-4.37
-0.29
3.45
6.88
9.86
12.20
13.77
14.60
14.85
14.77
14.58
14.49
14.66
15.20
16.14
17.44
18.96
20.53
21.92
22.81
22.87
21.79
19.35
15.57
10.69
5.18
-0.44
-5.71
-10.40
-14.57
-18.52
-22.68
-27.44
-32.98
-39.17
-45.62
-51.69
-56.71
-60.16
-61.67
-61.13
-58.55
-54.01
-47.61
-39.48
-29.80
-18.88
-7.10
5.07
17.14
28.63
39.08
48.09
55.33
60.62
63.90
65.26
64.90
63.06
59.98
55.91
51.12
45.90
40.61
35.61
31.13
27.21
23.69
20.25
16.58
12.56
8.28
4.00
0.05
-3.40
-6.40
-9.28
-12.47
-16.44
-21.42
-27.33
-33.74
-39.96
-45.18
-48.63
-49.83
-48.58
-45.09
-39.79
-33.28
-26.18
-18.92
-11.78
-4.88
1.79
8.18
14.18
19.55
24.04
27.40
29.56
30.58
30.68
30.17
29.33
28.41
27.58
26.89
26.30
25.76
25.16
24.39
23.35
21.94
20.16
18.08
15.83
13.52
11.18
8.74
6.07
3.09
-0.19
-3.64
-7.06
-10.32
-13.46
-16.65
-20.15
-24.17
-28.71
-33.56
-38.29
-42.35
-45.12
-46.11
-44.99
-41.74
-36.63
-30.17
-23.02
-15.76
-8.83
-2.44
3.38
8.65
13.37
17.49
20.91
23.57
25.51
26.84
27.71
28.28
28.62
28.79
28.84
28.86
28.96
29.26
29.80
30.52
31.20
31.57
31.40
30.59
29.22
27.47
25.57
23.66
21.75
19.68
17.25
14.28
10.79
6.86
2.72
-1.44
-5.45
-9.27
-13.00
-16.87
-21.14
-25.98
-31.32
-36.75
-41.56
-44.88
-45.96
-44.41
-40.34
-34.33
-27.24
-19.91
-12.99
-6.81
-1.42
3.31
7.55
11.40
14.91
18.07
20.83
23.14
24.90
26.05
26.57
26.50
25.99
25.26
24.56
24.08
23.87
23.82
23.68
23.12
21.90
19.94
17.43
14.80
12.47
10.72
9.51
8.51
7.24
5.32
2.68
-0.48
-3.75
-6.78
-9.36
-11.55
-13.61
-15.81
-18.45
-21.73
-25.73
-30.38
-35.44
-40.34
-44.27
-46.34
-45.81
-42.47
-36.72
-29.50
-22.00
-15.23
-9.70
-5.37
-1.84
1.35
4.44
7.35
9.79
11.48
12.30
12.36
11.99
11.54
11.29
11.28
11.41
11.48
11.31
10.88
10.28
9.69
9.23
8.89
8.56
8.06
7.27
6.24
5.10
4.05
3.16
2.37
1.47
0.23
-1.52
-3.76
-6.33
-8.93
-11.37
-13.56
-15.65
-17.94
-20.74
-24.23
-28.35
-32.77
-36.92
-40.16
-41.82
-41.46
-38.95
-34.46
-28.48
-21.61
-14.51
-7.68
-1.50
3.81
8.22
11.78
14.65
17.03
19.08
20.85
22.32
23.36
23.91
24.01
23.88
23.74
23.75
23.85
23.78
23.26
22.14
20.47
18.52
16.60
14.85
13.19
11.37
9.14
6.46
3.52
0.68
-1.73
-3.62
-5.11
-6.46
-7.94
-9.74
-11.93
-14.57
-17.74
-21.45
-25.55
-29.63
-33.02
-34.97
-34.94
-32.77
-28.74
-23.52
-17.85
-12.33
-7.22
-2.54
1.88
6.12
10.12
13.72
16.71
19.00
20.62
21.75
22.57
23.22
23.76
24.16
24.42
24.49
24.37
24.03
23.44
22.56
21.39
19.96
18.32
16.54
14.69
12.82
10.97
9.09
7.13
5.02
2.71
0.25
-2.21
-4.54
-6.64
-8.62
-10.73
-13.34
-16.75
-21.01
-25.89
-30.82
-35.05
-37.88
-38.77
-37.52
-34.26
-29.45
-23.71
-17.73
-12.02
-6.88
-2.43
1.44
4.87
7.97
10.76
13.13
14.95
16.11
16.59
16.44
15.79
14.82
13.76
12.93
12.73
13.54
15.58
18.70
22.40
26.02
28.85
30.48
30.88
30.32
29.15
27.57
25.54
22.82
19.13
14.42
8.87
2.95
-2.84
-8.13
-12.82
-17.08
-21.18
-25.41
-29.89
-34.61
-39.34
-43.78
-47.47
-49.95
-50.83
-49.94
-47.47
-43.91
-39.94
-36.17
-32.93
-30.19
-27.63
-24.85
-21.54
-17.63
-13.22
-8.56
-3.93
0.44
4.42
7.96
11.10
13.89
16.40
18.64
20.52
21.96
22.80
23.01
22.60
21.69
20.47
19.07
17.56
15.86
13.88
11.53
8.84
5.97
3.07
0.31
-2.24
-4.63
-6.95
-9.26
-11.65
-14.20
-16.98
-20.05
-23.33
-26.52
-29.14
-30.55
-30.21
-27.88
-23.71
-18.26
-12.31
-6.59
-1.56
2.63
6.19
9.39
12.43
15.33
17.95
20.06
21.51
22.29
22.49
22.34
22.02
21.67
21.31
20.90
20.43
19.90
19.37
18.88
18.44
17.98
17.36
16.44
15.12
13.35
11.17
8.65
5.91
3.08
0.30
-2.33
-4.77
-7.09
-9.45
-12.03
-14.95
-18.22
-21.67
-25.06
-28.03
-30.19
-31.11
-30.44
-27.99
-23.85
-18.45
-12.45
-6.60
-1.51
2.54
5.59
7.93
9.88
11.68
13.36
14.80
15.88
16.60
17.11
17.64
18.32
19.12
19.81
20.15
20.03
19.58
19.11
18.88
18.91
18.95
18.50
17.12
14.67
11.37
7.72
4.27
1.37
-0.95
-2.97
-5.08
-7.70
-11.12
-15.50
-20.77
-26.72
-32.95
-38.85
-43.74
-47.04
-48.38
-47.82
-45.77
-42.86
-39.70
-36.71
-34.05
-31.65
-29.40
-27.25
-25.22
-23.39
-21.78
-20.36
-19.06
-17.85
-16.74
-15.81
-15.04
-14.30
-13.33
-11.84
-9.63
-6.69
-3.25
0.36
3.77
6.66
8.91
10.54
11.72
12.71
13.73
14.91
16.14
17.11
17.43
16.82
15.29
13.25
11.37
10.43
11.02
13.50
17.88
23.98
31.53
40.21
49.68
59.57
69.52
79.34
89.06
99.05
109.88
122.10
135.82
150.43
164.56
176.44
184.55
188.20
187.87
184.94
181.15
178.02
176.62
177.75
181.81
188.57
196.50
202.52
202.47
192.60
171.23
139.88
102.78
65.20
31.23
2.40
-22.20
-44.55
-66.13
-86.82
-105.17
-119.16
-127.36
-129.53
-126.67
-120.71
-114.04
-108.96
-107.13
-109.26
-115.01
-123.22
-132.47
-141.61
-150.04
-157.49
-163.61
-167.63
-168.47
-165.23
-157.80
-147.19
-135.25
-123.93
-114.48
-107.07
-100.93
-95.02
-88.70
-82.04
-75.78
-70.80
-67.63
-66.19
-65.83
-65.61
-64.64
-62.39
-58.74
-53.96
-48.55
-43.01
-37.59
-32.25
-26.75
-20.85
-14.55
-8.20
-2.32
2.69
6.88
10.86
15.62
22.08
30.63
40.84
51.56
61.29
68.68
72.77
73.15
69.76
62.83
52.88
40.67
27.29
13.94
1.65
-8.96
-17.84
-25.40
-32.28
-39.00
-45.83
-52.53
-58.53
-63.02
-65.27
-64.95
-62.22
-57.73
-52.12
-45.46
-36.86
-24.61
-6.85
17.55
48.15
82.57
116.75
145.71
164.54
169.58
159.18
134.12
97.40
53.51
7.44
-36.25
-74.13
-104.23
-125.97
-139.93
-147.40
-150.03
-149.50
-147.11
-143.60
-139.00
-132.94
-124.99
-115.02
-103.49
-91.36
-79.72
-69.34
-60.39
-52.42
-44.76
-36.95
-29.10
-21.85
-16.12
-12.66
-11.72
-13.17
-16.67
-21.91
-28.66
-36.73
-45.73
-55.15
-64.37
-72.94
-80.71
-87.90
-94.96
-102.49
-110.92
-120.47
-130.98
-141.96
-152.69
-162.35
-170.27
-175.93
-178.99
-179.06
-175.57
-167.81
-155.17
-137.48
-115.20
-89.32
-61.21
-32.33
-4.14
21.85
44.11
61.27
72.47
77.72
77.98
74.89
70.17
65.17
60.60
56.72
53.62
51.35
50.03
49.64
49.98
50.67
51.29
51.55
51.36
50.80
50.02
49.19
48.48
48.04
48.04
48.53
49.44
50.54
51.55
52.21
52.48
52.49
52.46
52.47
52.36
51.73
50.02
46.84
42.19
36.60
31.03
26.58
24.06
23.80
25.54
28.59
32.17
35.67
38.81
41.63
44.40
47.42
50.95
55.15
60.03
65.39
70.87
75.98
80.22
83.21
84.81
85.07
84.27
82.82
81.14
79.65
78.61
78.07
77.92
77.88
77.66
77.05
75.97
74.44
72.53
70.27
67.67
64.80
61.79
58.82
56.08
53.62
51.37
49.16
46.73
43.94
40.75
37.28
33.73
30.23
26.71
22.85
18.14
12.08
4.51
-4.32
-13.66
-22.61
-30.32
-36.22
-40.07
-41.82
-41.53
-39.21
-35.02
-29.25
-22.46
-15.38
-8.76
-3.11
1.38
4.79
7.39
9.42
11.00
12.12
12.78
13.07
13.20
13.45
14.05
15.04
16.24
17.35
18.06
18.16
17.59
16.39
14.69
12.62
10.35
8.04
5.81
3.66
1.50
-0.79
-3.30
-6.02
-8.75
-11.29
-13.43
-15.08
-16.29
-17.21
-18.05
-19.09
-20.57
-22.64
-25.30
-28.25
-30.98
-32.86
-33.44
-32.57
-30.53
-27.80
-24.85
-21.98
-19.23
-16.52
-13.84
-11.28
-9.06
-7.37
-6.28
-5.69
-5.41
-5.24
-5.03
-4.69
-4.19
-3.53
-2.78
-2.07
-1.55
-1.38
-1.59
-2.12
-2.81
-3.54
-4.34
-5.48
-7.39
-10.50
-14.93
-20.24
-25.44
-29.17
-30.23
-28.02
-22.70
-15.16
-6.55
2.13
10.27
17.67
24.31
30.14
34.92
38.33
40.04
39.77
37.29
32.39
25.02
15.52
4.78
-5.73
-14.39
-19.82
-21.38
-19.21
-13.98
-6.48
2.68
13.02
23.95
34.47
43.18
48.75
50.44
48.65
44.90
41.21
39.28
39.72
41.82
43.96
44.51
42.66
38.84
34.55
31.65
31.57
35.04
42.01
51.98
63.99
76.65
88.05
96.01
98.52
94.68
84.99
71.21
55.73
40.43
25.69
10.35
-7.33
-27.86
-48.95
-65.26
-70.13
-58.47
-29.66
11.73
57.86
101.24
138.06
169.14
198.10
228.00
258.89
287.56
309.69
322.51
326.27
323.68
317.93
310.91
302.73
292.64
280.10
265.63
250.48
235.59
220.96
205.47
187.53
165.84
139.96
110.32
77.94
44.01
9.52
-24.62
-57.58
-88.45
-116.24
-140.10
-159.45
-173.98
-183.60
-188.36
-188.44
-184.28
-176.77
-167.22
-157.26
-148.28
-141.13
-135.80
-131.54
-127.17
-121.55
-113.92
-104.12
-92.65
-80.48
-68.88
-59.05
-51.71
-46.75
-43.13
-39.16
-33.10
-23.85
-11.35
3.44
18.99
33.77
46.73
57.37
65.71
71.91
76.13
78.39
78.59
76.54
72.07
65.11
55.80
44.44
31.60
17.91
3.90
-10.01
-23.62
-36.81
-49.46
-61.43
-72.74
-83.56
-94.34
-105.52
-117.33
-129.46
-141.06
-150.95
-157.94
-161.29
-160.92
-157.30
-151.28
-143.73
-135.37
-126.71
-118.13
-109.91
-102.33
-95.54
-89.59
-84.39
-79.75
-75.52
-71.65
-68.17
-65.14
-62.59
-60.39
-58.30
-56.09
-53.62
-50.92
-48.16
-45.51
-43.07
-40.85
-38.81
-36.95
-35.44
-34.38
-33.84
-33.70
-33.73
-33.70
-33.52
-33.34
-33.39
-34.01
-35.33
-37.32
-39.63
-41.72
-42.89
-42.58
-40.51
-36.80
-31.99
-26.80
-21.91
-17.73
-14.29
-11.42
-8.92
-6.66
-4.67
-3.07
-1.90
-1.18
-0.89
-0.98
-1.45
-2.32
-3.54
-5.00
-6.53
-7.91
-8.97
-9.71
-10.30
-11.03
-12.20
-13.99
-16.34
-18.99
-21.54
-23.66
-25.17
-26.10
-26.70
-27.34
-28.41
-30.14
-32.55
-35.31
-37.72
-39.00
-38.45
-35.90
-31.74
-26.84
-22.22
-18.54
-15.87
-13.74
-11.46
-8.48
-4.77
-0.75
2.82
5.29
6.34
6.11
5.14
4.13
3.62
3.85
4.69
5.77
6.64
7.07
6.93
6.28
5.29
4.50
5.03
8.49
16.41
29.23
45.64
62.58
76.30
83.89
84.46
79.38
71.31
62.81
55.41
49.42
44.60
40.92
38.77
38.57
40.14
42.39
43.75
42.95
39.75
35.08
30.62
27.82
27.26
28.40
29.89
30.30
28.77
25.29
20.60
15.74
11.54
8.29
5.81
3.69
1.55
-0.79
-3.30
-5.92
-8.72
-11.92
-15.80
-20.57
-26.19
-32.33
-38.47
-44.06
-48.65
-52.15
-54.77
-57.05
-59.62
-63.09
-67.72
-73.30
-79.11
-83.95
-86.51
-85.66
-80.91
-72.51
-61.54
-49.50
-37.98
-28.15
-20.52
-14.93
-10.86
-7.72
-5.11
-2.89
-1.07
0.39
1.60
2.74
3.90
5.02
5.87
6.23
5.98
5.21
4.18
3.15
2.27
1.54
0.80
-0.21
-1.66
-3.70
-6.24
-9.07
-11.86
-14.33
-16.31
-17.93
-19.50
-21.45
-24.15
-27.74
-32.02
-36.44
-40.23
-42.53
-42.67
-40.33
-35.73
-29.45
-22.31
-15.00
-7.89
-1.05
5.69
12.35
18.71
24.26
28.38
30.59
30.78
29.18
26.31
22.70
18.81
14.95
11.31
8.13
5.66
4.13
3.61
3.85
4.36
4.48
3.70
1.85
-0.83
-3.79
-6.46
-8.41
-9.61
-10.30
-10.96
-12.05
-13.97
-16.90
-20.79
-25.39
-30.16
-34.41
-37.40
-38.53
-37.52
-34.43
-29.67
-23.68
-16.84
-9.27
-0.98
8.04
17.60
27.17
35.87
42.70
46.75
47.44
44.79
39.33
32.02
24.05
16.48
10.17
5.58
2.86
1.90
2.40
3.96
6.17
8.63
10.95
12.84
14.04
14.35
13.66
11.95
9.30
5.89
1.90
-2.60
-7.61
-13.21
-19.41
-26.06
-32.68
-38.45
-42.37
-43.39
-40.75
-34.25
-24.34
-11.99
1.49
14.96
27.66
39.44
50.72
62.24
74.73
88.54
103.52
118.92
133.68
146.87
157.91
166.99
174.85
182.65
191.43
201.72
213.17
224.31
232.49
234.22
226.00
205.51
172.95
131.57
87.28
46.92
16.18
-2.13
-8.66
-6.54
0.11
7.64
13.56
16.27
14.62
7.60
-5.33
-23.77
-46.02
-69.25
-90.34
-106.70
-116.94
-121.06
-120.25
-116.24
-110.79
-105.26
-100.40
-96.47
-93.48
-91.45
-90.46
-90.52
-91.22
-91.68
-90.66
-87.09
-80.60
-71.75
-61.89
-52.47
-44.42
-37.73
-31.57
-24.79
-16.60
-6.97
3.39
13.43
22.35
29.93
36.56
42.84
49.13
55.30
60.80
65.13
68.15
70.02
70.88
70.27
67.07
59.96
48.41
33.36
17.27
3.23
-6.41
-10.90
-11.20
-9.02
-5.78
-1.89
2.99
9.07
15.74
21.36
23.92
21.96
15.27
4.74
-8.14
-21.98
-35.93
-49.46
-62.04
-72.73
-80.31
-83.69
-82.48
-77.27
-69.45
-60.63
-51.89
-43.39
-34.61
-24.97
-14.44
-3.74
6.02
14.00
20.07
24.83
28.97
32.81
35.99
37.97
38.57
38.21
37.71
37.59
37.72
37.42
36.11
33.93
31.67
30.21
29.61
28.87
26.33
20.73
12.01
1.58
-8.48
-16.50
-22.05
-26.01
-29.87
-34.82
-41.05
-47.87
-54.15
-59.02
-62.22
-63.96
-64.51
-63.79
-61.34
-56.64
-49.63
-40.99
-31.95
-23.80
-17.23
-12.16
-7.98
-4.08
-0.32
3.00
5.41
6.78
7.40
7.90
8.74
10.05
11.59
12.99
14.03
14.75
15.31
15.76
15.94
15.55
14.34
12.30
9.68
6.90
4.27
1.95
-0.09
-1.96
-3.71
-5.38
-6.94
-8.36
-9.68
-10.87
-11.87
-12.52
-12.75
-12.59
-12.31
-12.28
-12.90
-14.27
-16.20
-18.23
-19.83
-20.72
-21.01
-21.17
-21.83
-23.43
-25.96
-28.97
-31.71
-33.48
-33.92
-33.04
-31.11
-28.48
-25.33
-21.66
-17.43
-12.69
-7.67
-2.75
1.69
5.43
8.49
11.01
13.14
14.89
16.11
16.60
16.22
14.99
13.21
11.31
9.72
8.67
8.15
7.93
7.71
7.27
6.54
5.62
4.64
3.66
2.66
1.55
0.18
-1.52
-3.66
-6.25
-9.31
-12.81
-16.63
-20.60
-24.47
-27.95
-30.75
-32.62
-33.49
-33.36
-32.45
-31.02
-29.36
-27.70
-26.12
-24.62
-23.13
-21.60
-20.00
-18.42
-17.02
-16.01
-15.56
-15.72
-16.35
-17.14
-17.82
-18.24
-18.43
-18.55
-18.72
-18.92
-18.97
-18.70
-18.02
-17.09
-16.18
-15.62
-15.59
-16.05
-16.93
-18.10
-19.56
-21.31
-23.28
-25.18
-26.50
-26.68
-25.29
-22.32
-18.15
-13.53
-9.26
-5.95
-3.71
-2.32
-1.27
-0.10
1.40
3.14
4.79
6.00
6.53
6.39
5.81
5.06
4.32
3.61
2.85
1.98
1.05
0.21
-0.41
-0.83
-1.28
-2.05
-3.40
-5.33
-7.58
-9.76
-11.64
-13.18
-14.58
-16.18
-18.14
-20.41
-22.62
-24.24
-24.72
-23.70
-21.14
-17.35
-12.92
-8.53
-4.77
-1.88
0.18
1.71
3.05
4.42
5.78
6.97
7.83
8.27
8.33
8.20
7.97
7.72
7.41
6.99
6.53
6.16
6.05
6.26
6.68
7.02
6.98
6.32
5.03
3.35
1.58
-0.01
-1.38
-2.67
-4.18
-6.20
-8.82
-11.85
-14.86
-17.23
-18.34
-17.87
-15.77
-12.39
-8.24
-3.80
0.52
4.53
8.18
11.44
14.27
16.63
18.50
19.93
21.04
21.94
22.66
23.09
23.05
22.38
21.06
19.29
17.46
15.97
15.07
14.73
14.62
14.29
13.33
11.60
9.29
6.70
4.18
1.87
-0.23
-2.33
-4.59
-7.14
-10.00
-13.13
-16.48
-19.91
-23.15
-25.73
-27.17
-26.99
-24.95
-21.24
-16.28
-10.70
-5.04
0.31
5.19
9.58
13.50
17.02
20.08
22.58
24.35
25.32
25.52
25.15
24.54
23.94
23.48
23.01
22.36
21.39
20.17
19.02
18.21
17.85
17.68
17.28
16.15
14.10
11.23
7.94
4.72
1.87
-0.55
-2.77
-5.12
-7.92
-11.28
-15.05
-18.80
-21.99
-24.12
-24.85
-24.14
-22.15
-19.24
-15.77
-12.11
-8.55
-5.32
-2.60
-0.48
0.97
1.80
2.09
2.01
1.75
1.53
1.43
1.41
1.32
0.93
0.18
-0.78
-1.55
-1.64
-0.72
1.17
3.59
5.81
7.08
6.94
5.25
2.28
-1.49
-5.51
-9.33
-12.69
-15.51
-17.80
-19.63
-21.15
-22.48
-23.82
-25.32
-27.02
-28.68
-29.85
-29.93
-28.46
-25.33
-20.92
-15.86
-10.84
-6.30
-2.32
1.29
4.79
8.27
11.62
14.55
16.87
18.55
19.79
20.84
21.85
22.85
23.67
24.17
24.26
23.99
23.55
23.15
22.93
22.83
22.68
22.22
21.24
19.65
17.57
15.25
12.96
10.94
9.14
7.42
5.48
3.09
0.08
-3.53
-7.61
-11.95
-16.30
-20.35
-23.74
-26.08
-26.98
-26.21
-23.76
-19.90
-15.11
-9.90
-4.75
0.11
4.67
9.00
13.20
17.19
20.73
23.47
25.23
25.96
25.92
25.57
25.31
25.45
25.93
26.43
26.55
26.01
24.86
23.45
22.30
21.75
21.82
22.18
22.34
21.91
20.75
19.01
16.95
14.75
12.43
9.88
6.98
3.70
0.11
-3.69
-7.63
-11.67
-15.76
-19.72
-23.14
-25.51
-26.35
-25.39
-22.73
-18.77
-14.13
-9.43
-5.11
-1.34
1.98
5.05
8.10
11.15
14.08
16.58
18.42
19.48
19.89
19.93
19.92
20.09
20.47
20.88
21.04
20.81
20.16
19.28
18.42
17.71
17.14
16.48
15.46
13.89
11.81
9.47
7.23
5.33
3.76
2.31
0.65
-1.48
-4.16
-7.31
-10.71
-14.13
-17.33
-20.10
-22.14
-23.09
-22.60
-20.50
-16.88
-12.14
-6.85
-1.63
3.01
6.78
9.58
11.51
12.77
13.67
14.50
15.44
16.55
17.70
18.71
19.37
19.55
19.28
18.71
18.00
17.31
16.74
16.28
15.83
15.27
14.44
13.27
11.67
9.62
7.13
4.31
1.34
-1.55
-4.21
-6.59
-8.91
-11.51
-14.70
-18.56
-22.77
-26.63
-29.28
-29.99
-28.41
-24.66
-19.29
-13.08
-6.79
-0.97
4.13
8.48
12.24
15.50
18.26
20.46
21.97
22.79
23.03
22.93
22.66
22.32
21.90
21.31
20.55
19.65
18.74
17.91
17.16
16.36
15.30
13.76
11.66
9.04
6.12
3.22
0.65
-1.40
-3.00
-4.45
-6.25
-8.90
-12.65
-17.40
-22.67
-27.69
-31.60
-33.69
-33.59
-31.38
-27.54
-22.78
-17.81
-13.07
-8.70
-4.55
-0.38
3.98
8.49
12.91
16.92
20.22
22.63
24.11
24.77
24.81
24.46
23.95
23.42
22.99
22.65
22.33
21.91
21.30
20.39
19.12
17.45
15.34
12.86
10.13
7.29
4.51
1.85
-0.70
-3.33
-6.20
-9.57
-13.52
-17.96
-22.62
-26.95
-30.33
-32.15
-31.99
-29.75
-25.68
-20.26
-14.10
-7.68
-1.41
4.51
9.99
14.99
19.54
23.69
27.50
30.98
34.11
36.80
38.87
40.17
40.52
39.82
38.06
35.37
32.03
28.38
24.80
21.53
18.63
15.94
13.18
10.09
6.57
2.76
-1.05
-4.47
-7.26
-9.34
-10.90
-12.28
-13.88
-16.02
-18.87
-22.45
-26.52
-30.68
-34.35
-36.90
-37.73
-36.46
-33.08
-27.98
-21.86
-15.52
-9.66
-4.70
-0.78
2.22
4.56
6.45
8.10
9.59
10.92
12.04
12.86
13.32
13.39
13.19
12.81
12.40
11.99
11.54
10.97
10.22
9.25
8.08
6.73
5.14
3.32
1.30
-0.78
-2.76
-4.52
-6.07
-7.53
-9.11
-11.00
-13.31
-16.09
-19.41
-23.26
-27.56
-31.97
-35.93
-38.73
-39.77
-38.74
-35.72
-31.20
-25.80
-20.08
-14.46
-9.07
-3.94
0.95
5.55
9.71
13.24
16.07
18.28
20.10
21.79
23.49
25.13
26.45
27.17
27.19
26.66
25.92
25.33
25.09
25.11
25.13
24.78
23.79
22.02
19.47
16.26
12.64
8.88
5.27
2.00
-0.90
-3.64
-6.60
-10.21
-14.70
-19.95
-25.48
-30.52
-34.22
-35.93
-35.32
-32.49
-27.90
-22.22
-16.20
-10.44
-5.30
-0.87
2.94
6.37
9.60
12.69
15.55
17.96
19.77
20.92
21.52
21.71
21.66
21.46
21.14
20.67
20.10
19.50
18.95
18.47
17.92
17.05
15.66
13.59
10.97
8.02
5.02
2.17
-0.51
-3.16
-6.03
-9.30
-13.08
-17.19
-21.24
-24.60
-26.61
-26.76
-24.82
-21.02
-15.95
-10.39
-5.02
-0.28
3.80
7.37
10.66
13.73
16.42
18.53
19.91
20.64
20.93
21.05
21.16
21.20
21.07
20.66
20.02
19.32
18.77
18.42
18.13
17.65
16.68
15.05
12.77
9.99
6.91
3.77
0.73
-2.19
-5.11
-8.29
-12.00
-16.43
-21.44
-26.58
-31.13
-34.28
-35.43
-34.32
-31.12
-26.32
-20.62
-14.68
-9.00
-3.85
0.74
4.82
8.45
11.61
14.19
16.05
17.08
17.31
16.90
16.09
15.10
14.07
12.99
11.78
10.37
8.76
7.03
5.29
3.63
2.04
0.43
-1.36
-3.43
-5.79
-8.44
-11.30
-14.35
-17.53
-20.82
-24.24
-27.87
-31.89
-36.48
-41.76
-47.52
-53.18
-57.94
-61.04
-62.15
-61.50
-59.83
-58.06
-56.94
-56.75
-57.31
-58.15
-58.75
-58.72
-57.94
-56.58
-55.12
-54.23
-54.62
-56.82
-60.93
-66.61
-73.17
-79.88
-86.27
-92.34
-98.57
-105.75
-114.66
-125.74
-138.67
-152.18
-164.18
-172.33
-174.82
-170.99
-161.43
-147.43
-130.18
-110.24
-87.57
-62.15
-34.64
-6.61
19.91
43.26
62.78
78.88
92.48
104.22
114.04
121.29
125.27
125.91
124.00
120.94
118.21
116.78
116.83
117.83
118.91
119.30
118.70
117.20
115.20
113.07
110.99
108.96
106.84
104.52
101.89
98.87
95.35
91.26
86.59
81.39
75.82
70.06
64.22
58.25
52.01
45.24
37.73
29.30
19.89
9.51
-1.73
-13.50
-25.31
-36.46
-46.26
-54.12
-59.66
-62.81
-63.69
-62.77
-60.67
-58.26
-56.47
-56.06
-57.28
-59.50
-61.13
-59.85
-53.38
-40.18
-20.05
5.81
35.22
65.67
95.08
121.92
145.20
164.08
177.84
186.00
188.79
187.31
183.07
177.26
169.88
159.67
144.92
124.77
100.24
74.28
50.78
32.80
21.46
15.53
12.40
9.50
5.36
-0.07
-6.12
-12.08
-17.79
-23.42
-29.04
-34.18
-37.86
-39.13
-37.63
-33.93
-29.24
-24.90
-21.65
-19.38
-17.25
-14.21
-9.58
-3.42
3.44
9.88
14.87
18.02
19.74
21.02
23.04
26.61
31.91
38.45
45.37
51.77
56.98
60.64
62.59
62.79
61.33
58.53
54.86
50.97
47.45
44.64
42.46
40.36
37.57
33.41
27.82
21.77
17.27
16.78
22.10
33.30
48.11
62.60
72.50
74.86
68.98
56.27
39.26
20.45
1.72
-15.73
-31.19
-44.43
-55.85
-66.58
-78.32
-92.53
-109.76
-129.08
-148.57
-166.08
-180.18
-190.56
-197.91
-203.27
-207.31
-210.06
-210.79
-208.52
-202.43
-192.30
-178.76
-162.96
-146.26
-129.59
-113.40
-97.71
-82.60
-68.27
-55.07
-43.09
-31.93
-20.69
-8.44
5.23
19.90
34.42
47.45
58.05
65.98
71.67
75.75
78.78
80.96
82.28
82.66
82.08
80.63
78.26
74.76
69.79
63.04
54.52
44.63
34.10
23.73
14.20
5.83
-1.34
-7.45
-12.74
-17.37
-21.51
-25.26
-28.83
-32.42
-36.25
-40.46
-45.02
-49.75
-54.41
-58.75
-62.49
-65.43
-67.30
-67.90
-67.03
-64.57
-60.58
-55.25
-48.88
-41.82
-34.42
-26.97
-19.66
-12.63
-5.94
0.29
5.98
10.94
15.02
18.15
20.42
21.99
23.10
23.94
24.64
25.28
25.94
26.60
27.18
27.40
26.89
25.37
22.75
19.21
15.14
10.93
6.83
2.89
-1.01
-4.97
-9.07
-13.43
-18.30
-24.01
-30.88
-38.98
-47.89
-56.67
-64.06
-68.84
-70.25
-68.27
-63.59
-57.34
-50.67
-44.32
-38.49
-32.90
-27.08
-20.82
-14.35
-8.26
-3.22
0.36
2.51
3.69
4.43
5.16
5.98
6.88
7.87
9.16
11.09
13.89
17.37
20.94
23.84
25.50
25.92
25.64
25.34
25.34
25.34
24.65
22.74
19.78
16.68
14.73
14.83
17.07
20.63
24.32
27.10
28.47
28.52
27.64
26.40
25.40
25.28
26.67
29.76
33.93
37.51
38.11
33.46
22.43
5.56
-15.05
-36.45
-55.92
-71.51
-82.21
-87.61
-87.52
-81.83
-70.50
-53.82
-32.21
-6.26
23.41
55.87
89.58
121.99
149.89
170.21
181.29
183.89
181.37
178.93
181.85
193.62
214.41
240.67
266.22
284.42
290.78
284.60
269.22
250.34
233.30
220.84
212.08
203.66
191.76
174.28
151.66
126.23
100.66
76.50
53.95
32.53
12.22
-6.05
-20.60
-30.17
-34.93
-36.71
-38.29
-42.23
-49.78
-60.54
-72.94
-85.02
-95.25
-102.96
-108.23
-111.64
-113.79
-115.14
-115.73
-115.27
-113.27
-109.40
-103.69
-96.69
-89.44
-83.02
-78.25
-75.32
-73.83
-73.04
-72.28
-71.15
-69.50
-67.21
-64.04
-59.67
-53.91
-46.95
-39.44
-32.30
-26.27
-21.64
-18.24
-15.72
-13.95
-13.25
-14.27
-17.66
-23.77
-32.41
-43.01
-54.79
-67.01
-79.01
-90.20
-100.06
-108.14
-114.12
-117.98
-119.85
-120.09
-119.00
-116.81
-113.62
-109.42
-104.27
-98.21
-91.44
-84.15
-76.56
-68.82
-60.95
-52.76
-43.89
-33.96
-22.77
-10.50
2.32
14.98
26.79
37.39
46.66
54.63
61.26
66.49
70.17
72.33
73.14
72.94
72.07
70.61
68.53
65.66
61.97
57.65
53.04
48.56
44.37
40.50
36.76
33.01
29.25
25.62
22.23
19.02
15.66
11.59
6.26
-0.72
-9.36
-19.23
-29.51
-39.09
-46.83
-51.84
-53.73
-52.69
-49.38
-44.66
-39.21
-33.47
-27.57
-21.56
-15.58
-9.89
-4.77
-0.43
3.10
5.87
7.94
9.31
9.95
9.93
9.48
8.98
8.83
9.24
10.20
11.41
12.48
13.01
12.73
11.56
9.59
7.08
4.32
1.63
-0.77
-2.79
-4.50
-6.12
-7.91
-10.08
-12.69
-15.60
-18.42
-20.61
-21.65
-21.10
-18.78
-14.80
-9.48
-3.28
3.30
9.84
16.02
21.65
26.67
31.15
35.19
38.88
42.29
45.38
48.07
50.33
52.19
53.77
55.18
56.46
57.55
58.32
58.65
58.48
57.80
56.62
54.91
52.63
49.90
46.93
44.17
42.08
41.07
41.27
42.51
44.33
46.15
47.44
47.92
47.68
47.17
47.11
48.23
51.03
55.57
61.40
67.83
74.06
79.52
83.93
87.19
89.33
90.33
90.14
88.73
86.11
82.37
77.70
72.31
66.46
60.40
54.43
48.83
43.84
39.57
36.00
32.99
30.38
28.01
25.73
23.40
20.88
18.05
14.87
11.40
7.80
4.27
1.01
-1.80
-4.08
-5.71
-6.63
-6.87
-6.53
-5.83
-4.92
-3.77
-2.03
0.94
5.92
13.46
23.54
35.27
46.91
56.37
61.81
62.33
58.14
50.22
39.71
27.23
12.84
-3.84
-22.98
-44.29
-67.04
-90.36
-113.60
-136.25
-157.75
-176.99
-192.40
-202.25
-205.38
-201.87
-193.13
-181.55
-169.59
-158.99
-150.34
-143.30
-137.09
-131.16
-125.43
-120.08
-115.25
-110.66
-105.90
-100.71
-95.36
-90.61
-87.20
-85.38
-84.43
-83.07
-79.99
-74.61
-67.35
-59.41
-52.16
-46.40
-42.07
-38.22
-33.54
-26.88
-17.76
-6.44
6.16
18.81
30.40
40.13
47.68
53.15
56.95
59.59
61.52
62.93
63.76
63.79
62.71
60.33
56.64
51.80
46.19
40.31
34.78
30.17
26.90
25.10
24.52
24.70
25.08
25.30
25.16
24.64
23.66
22.06
19.60
16.14
11.85
7.16
2.73
-0.82
-3.10
-3.99
-3.66
-2.44
-0.76
0.98
2.32
2.87
2.29
0.31
-3.10
-7.76
-13.17
-18.71
-23.76
-27.93
-31.15
-33.74
-36.17
-38.75
-41.53
-44.22
-46.42
-47.92
-48.83
-49.51
-50.33
-51.47
-52.72
-53.77
-54.31
-54.29
-53.94
-53.54
-53.26
-53.08
-52.82
-52.38
-51.86
-51.55
-51.75
-52.60
-53.85
-54.99
-55.40
-54.70
-52.86
-50.20
-47.09
-43.72
-39.95
-35.49
-30.29
-24.75
-19.77
-16.19
-14.43
-14.03
-13.88
-12.77
-10.09
-6.11
-1.77
1.94
4.69
6.85
9.21
12.39
16.44
20.89
25.19
29.08
32.65
36.18
39.72
42.96
45.40
46.72
47.01
46.74
46.42
46.19
45.74
44.49
42.00
38.34
34.04
29.95
26.75
24.75
23.84
23.71
24.02
24.60
25.37
26.25
27.14
27.89
28.48
29.07
29.91
31.17
32.74
34.15
34.85
34.44
32.97
30.88
28.85
27.32
26.28
25.30
23.77
21.26
17.76
13.69
9.67
6.25
3.58
1.54
-0.16
-1.71
-2.98
-3.55
-2.91
-0.84
2.47
6.34
9.92
12.57
14.19
15.28
16.61
18.95
22.52
26.99
31.57
35.41
38.05
39.59
40.73
42.45
45.90
51.94
61.02
72.74
85.48
96.28
101.10
95.96
78.36
48.77
10.99
-28.58
-63.02
-87.00
-98.36
-98.27
-90.06
-77.70
-64.39
-52.10
-41.78
-33.89
-28.84
-26.85
-27.81
-30.99
-35.14
-38.74
-40.63
-40.27
-37.98
-34.76
-31.93
-30.61
-31.28
-33.67
-36.78
-39.46
-40.83
-40.64
-39.35
-37.72
-36.52
-36.02
-35.96
-35.74
-34.70
-32.49
-29.08
-24.81
-20.06
-15.28
-10.87
-7.25
-4.88
-4.17
-5.41
-8.53
-13.12
-18.35
-23.26
-27.04
-29.25
-29.96
-29.62
-28.66
-27.21
-24.83
-20.54
-13.22
-2.13
12.68
30.17
48.65
66.26
81.64
94.15
103.96
111.70
117.98
123.19
127.30
130.09
131.39
131.18
129.64
126.96
123.19
118.14
111.51
103.00
92.70
81.04
68.83
56.91
45.86
35.77
26.19
16.47
6.05
-5.15
-16.72
-27.84
-37.74
-45.99
-52.71
-58.50
-64.07
-70.02
-76.47
-83.15
-89.55
-95.25
-100.19
-104.67
-109.13
-113.89
-118.92
-123.86
-128.19
-131.52
-133.74
-134.92
-135.10
-134.28
-132.32
-129.20
-125.07
-120.26
-115.08
-109.53
-103.38
-96.32
-88.41
-80.22
-72.73
-66.93
-63.16
-61.07
-59.59
-57.60
-54.38
-49.84
-44.39
-38.55
-32.58
-26.39
-19.63
-12.06
-3.71
5.03
13.56
21.32
27.97
33.41
37.78
41.29
44.10
46.29
47.88
48.91
49.44
49.60
49.49
49.16
48.58
47.66
46.36
44.72
42.92
41.10
39.34
37.63
35.86
33.91
31.75
29.38
26.83
24.09
21.09
17.75
14.05
9.99
5.61
0.95
-3.92
-8.89
-13.71
-17.99
-21.30
-23.30
-23.85
-23.04
-21.15
-18.50
-15.43
-12.18
-8.91
-5.75
-2.77
-0.03
2.48
4.71
6.65
8.21
9.29
9.83
9.89
9.61
9.25
9.02
9.02
9.22
9.50
9.82
10.18
10.65
11.19
11.58
11.52
10.70
9.07
6.90
4.63
2.67
1.15
-0.07
-1.36
-3.00
-5.14
-7.69
-10.48
-13.32
-16.04
-18.48
-20.44
-21.64
-21.78
-20.69
-18.33
-14.91
-10.79
-6.37
-1.99
2.17
6.11
9.91
13.62
17.20
20.53
23.41
25.66
27.19
28.01
28.23
28.07
27.77
27.54
27.47
27.53
27.60
27.55
27.31
26.95
26.53
26.08
25.50
24.60
23.20
21.18
18.61
15.59
12.33
8.98
5.69
2.51
-0.52
-3.48
-6.55
-9.95
-13.97
-18.68
-24.03
-29.70
-35.22
-39.99
-43.43
-45.11
-44.79
-42.59
-38.85
-34.19
-29.19
-24.34
-19.78
-15.30
-10.55
-5.18
0.82
7.10
13.06
18.12
22.01
24.80
26.85
28.58
30.21
31.69
32.84
33.51
33.76
33.81
33.95
34.40
35.12
35.94
36.62
36.97
36.99
36.75
36.40
35.93
35.16
33.75
31.34
27.70
22.89
17.28
11.36
5.54
-0.06
-5.68
-11.72
-18.41
-25.60
-32.64
-38.61
-42.68
-44.41
-43.90
-41.64
-38.24
-34.21
-29.81
-25.17
-20.37
-15.54
-10.87
-6.59
-2.88
0.20
2.65
4.59
6.11
7.32
8.28
9.01
9.51
9.82
10.03
10.29
10.72
11.32
11.97
12.42
12.36
11.56
9.90
7.39
4.22
0.67
-2.95
-6.32
-9.27
-11.68
-13.58
-15.07
-16.29
-17.52
-19.07
-21.28
-24.32
-27.97
-31.63
-34.42
-35.49
-34.32
-30.90
-25.66
-19.19
-11.97
-4.23
4.01
12.72
21.69
30.55
38.78
46.01
52.14
57.37
62.08
66.67
71.30
75.83
79.89
83.00
84.85
85.30
84.48
82.58
79.77
76.11
71.60
66.25
60.14
53.54
46.71
39.95
33.48
27.43
21.86
16.71
11.85
7.05
2.12
-3.06
-8.45
-13.84
-18.90
-23.27
-26.61
-28.66
-29.22
-28.17
-25.51
-21.42
-16.28
-10.67
-5.22
-0.48
3.30
6.21
8.65
11.20
14.29
18.07
22.26
26.23
29.35
31.16
31.60
30.92
29.49
27.54
25.19
22.43
19.32
16.00
12.62
9.14
5.34
1.01
-3.76
-8.43
-12.23
-14.72
-16.34
-18.65
-23.80
-33.65
-48.88
-68.63
-90.97
-113.76
-135.53
-155.68
-174.17
-190.70
-204.33
-213.52
-216.67
-212.88
-202.32
-186.09
-165.65
-142.50
-117.91
-93.10
-69.39
-48.05
-30.09
-15.70
-4.28
5.41
14.63
24.18
34.14
44.11
53.55
62.07
69.57
76.03
81.32
85.12
87.07
87.03
85.18
82.12
78.54
75.09
72.05
69.43
67.01
64.49
61.56
57.70
52.20
44.17
32.95
18.61
2.28
-14.00
-27.98
-38.06
-44.03
-46.95
-48.69
-50.94
-54.48
-59.04
-63.56
-66.88
-68.18
-67.10
-63.52
-57.26
-47.86
-34.80
-17.79
3.16
27.57
54.72
83.73
113.66
143.39
171.65
197.08
218.44
235.05
246.79
254.20
258.13
259.47
259.01
257.38
255.10
252.50
249.64
246.14
241.29
234.25
224.32
211.18
194.93
176.08
155.40
133.86
112.53
92.45
74.49
59.07
46.14
35.20
25.64
16.95
8.89
1.40
-5.53
-11.99
-18.20
-24.32
-30.38
-36.17
-41.28
-45.29
-47.86
-48.91
-48.60
-47.35
-45.67
-44.06
-42.85
-42.15
-41.78
-41.49
-41.08
-40.49
-39.90
-39.54
-39.66
-40.37
-41.66
-43.40
-45.48
-47.83
-50.35
-52.94
-55.48
-57.91
-60.27
-62.77
-65.74
-69.48
-74.09
-79.28
-84.41
-88.67
-91.32
-91.97
-90.65
-87.76
-83.84
-79.44
-75.00
-70.83
-67.11
-63.96
-61.47
-59.63
-58.42
-57.77
-57.71
-58.27
-59.47
-61.26
-63.41
-65.61
-67.49
-68.83
-69.54
-69.72
-69.52
-69.06
-68.42
-67.56
-66.47
-65.10
-63.35
-61.05
-57.96
-53.90
-48.83
-42.99
-36.85
-30.95
-25.70
-21.22
-17.34
-13.74
-10.17
-6.56
-3.04
0.25
3.25
6.13
9.20
12.85
17.32
22.67
28.77
35.35
42.10
48.76
55.14
61.14
66.66
71.61
75.76
78.82
80.48
80.49
78.84
75.82
71.98
67.96
64.27
61.10
58.38
55.81
53.20
50.62
48.41
46.91
46.25
46.19
46.16
45.65
44.38
42.43
40.08
37.46
34.48
30.84
26.36
21.08
15.37
9.65
4.19
-0.96
-5.85
-10.33
-13.99
-16.22
-16.58
-15.02
-11.90
-7.81
-3.15
1.88
7.31
13.04
18.68
23.52
26.95
28.64
28.75
27.83
26.54
25.55
25.32
26.19
28.23
31.08
33.87
35.21
33.73
28.56
19.98
9.45
-0.65
-8.09
-11.84
-12.56
-12.56
-14.76
-21.39
-32.95
-47.99
-63.73
-77.21
-86.30
-90.00
-88.10
-80.67
-68.07
-51.36
-32.83
-15.89
-4.05
0.46
-2.20
-9.50
-17.68
-23.45
-25.19
-23.31
-19.56
-15.87
-13.53
-12.85
-13.62
-15.68
-19.57
-26.69
-38.86
-57.61
-83.17
-113.86
-146.06
-175.24
-197.32
-209.86
-212.55
-206.52
-193.36
-174.20
-149.49
-119.68
-86.01
-51.12
-18.61
8.01
26.58
37.17
41.86
43.80
45.70
48.87
52.82
55.86
56.20
52.84
46.05
37.12
27.83
19.87
14.73
13.60
17.37
26.13
38.66
52.19
63.03
67.98
65.80
58.17
49.09
43.03
42.71
47.73
55.12
61.10
63.39
62.19
59.51
57.35
56.19
54.77
51.12
43.97
33.46
20.67
6.72
-8.00
-23.68
-40.33
-57.12
-72.53
-85.20
-94.93
-102.98
-111.47
-122.35
-136.46
-153.38
-171.83
-190.24
-207.20
-221.58
-232.42
-239.06
-241.08
-238.43
-231.55
-221.21
-208.38
-193.90
-178.28
-161.53
-143.24
-122.86
-99.89
-74.33
-46.81
-18.52
9.03
34.45
56.89
76.25
93.12
108.43
122.90
136.78
149.68
160.82
169.32
174.53
176.04
173.68
167.39
157.33
144.05
128.58
112.29
96.64
82.52
70.07
58.58
46.98
34.35
20.49
5.97
-8.11
-20.57
-30.71
-38.47
-44.48
-49.67
-55.00
-60.97
-67.54
-74.15
-79.92
-83.99
-85.72
-84.88
-81.57
-76.27
-69.72
-62.92
-57.04
-53.23
-52.43
-55.01
-60.67
-68.40
-76.70
-83.91
-88.56
-89.65
-86.73
-79.94
-69.84
-57.30
-43.35
-29.08
-15.47
-3.31
6.90
15.06
21.33
26.08
29.75
32.62
34.85
36.42
37.27
37.30
36.48
34.73
31.90
27.86
22.54
16.06
8.86
1.72
-4.37
-8.45
-9.78
-8.14
-3.78
2.58
10.04
17.70
24.85
30.99
35.85
39.34
41.43
42.26
42.01
41.07
39.83
38.67
37.88
37.50
37.47
37.60
37.74
37.78
37.62
37.15
36.24
34.69
32.39
29.36
25.80
22.01
18.23
14.57
10.92
7.02
2.64
-2.43
-8.22
-14.58
-21.17
-27.40
-32.51
-35.65
-36.23
-34.03
-29.41
-23.09
-15.98
-8.78
-1.86
4.73
11.07
17.22
23.07
28.42
33.07
36.94
40.07
42.54
44.44
45.81
46.65
47.02
47.00
46.73
46.37
45.97
45.43
44.54
43.03
40.67
37.44
33.47
29.03
24.44
19.92
15.53
11.07
6.23
0.66
-5.77
-12.83
-19.84
-25.81
-29.68
-30.67
-28.59
-23.81
-17.18
-9.59
-1.78
5.83
13.10
19.94
26.32
32.12
37.25
41.66
45.37
48.38
50.66
52.17
52.86
52.80
52.14
51.09
49.82
48.46
47.08
45.65
44.08
42.27
40.09
37.46
34.36
30.88
27.18
23.44
19.78
16.12
12.23
7.73
2.42
-3.60
-9.74
-15.07
-18.52
-19.31
-17.22
-12.61
-6.36
0.59
7.50
13.98
19.99
25.65
31.02
36.05
40.56
44.33
47.21
49.15
50.24
50.61
50.49
50.08
49.64
49.30
49.10
48.90
48.45
47.47
45.74
43.22
39.99
36.30
32.36
28.35
24.31
20.11
15.51
10.28
4.22
-2.54
-9.59
-16.15
-21.30
-24.18
-24.31
-21.71
-16.86
-10.53
-3.54
3.45
10.08
16.16
21.68
26.65
31.05
34.85
37.99
40.41
42.04
42.86
42.89
42.24
41.09
39.69
38.25
36.86
35.45
33.78
31.60
28.70
25.09
20.98
16.67
12.42
8.38
4.49
0.55
-3.68
-8.46
-13.91
-19.91
-26.10
-31.76
-36.04
-38.14
-37.56
-34.31
-28.85
-21.96
-14.48
-7.11
-0.26
5.85
11.21
15.88
19.94
23.45
26.41
28.70
30.24
30.96
30.92
30.28
29.30
28.21
27.22
26.42
25.87
25.53
25.29
24.91
24.14
22.72
20.52
17.59
14.12
10.38
6.60
2.91
-0.73
-4.43
-8.39
-12.75
-17.59
-22.85
-28.25
-33.27
-37.21
-39.39
-39.31
-36.85
-32.34
-26.40
-19.81
-13.19
-6.87
-0.93
4.70
10.11
15.26
19.95
23.91
26.91
28.84
29.78
29.98
29.78
29.41
29.02
28.56
27.94
27.04
25.86
24.48
22.98
21.39
19.63
17.47
14.70
11.21
7.14
2.77
-1.54
-5.57
-9.29
-12.90
-16.65
-20.73
-25.10
-29.58
-33.83
-37.51
-40.33
-41.98
-42.22
-40.83
-37.73
-33.01
-27.01
-20.25
-13.31
-6.65
-0.53
5.02
10.13
14.94
19.46
23.54
26.98
29.64
31.51
32.73
33.48
33.86
33.89
33.49
32.67
31.52
30.22
28.96
27.78
26.58
25.13
23.20
20.65
17.48
13.84
9.98
6.14
2.52
-0.75
-3.67
-6.37
-9.08
-12.08
-15.61
-19.76
-24.28
-28.64
-32.04
-33.76
-33.38
-30.96
-27.02
-22.25
-17.26
-12.28
-7.26
-1.96
3.82
10.09
16.68
23.32
29.80
36.00
42.01
48.06
54.50
61.56
69.30
77.50
85.72
93.54
100.72
107.39
113.95
120.93
128.83
137.99
148.61
160.63
173.54
186.07
196.32
202.14
202.06
196.15
186.28
175.44
166.45
160.67
157.39
154.35
148.87
139.11
124.68
106.29
84.87
60.75
33.63
3.08
-30.50
-65.31
-98.23
-125.66
-144.51
-153.00
-150.85
-138.88
-118.61
-91.98
-61.50
-30.37
-2.29
19.16
31.62
34.61
29.72
19.89
8.43
-2.09
-10.33
-16.10
-19.94
-22.56
-24.56
-26.37
-28.36
-30.91
-34.35
-38.93
-44.60
-51.08
-57.84
-64.44
-70.66
-76.66
-82.82
-89.43
-96.43
-103.16
-108.58
-111.57
-111.33
-107.71
-101.22
-92.92
-84.03
-75.72
-68.83
-63.83
-60.80
-59.50
-59.55
-60.44
-61.72
-62.94
-63.78
-63.95
-63.27
-61.65
-59.11
-55.78
-51.90
-47.79
-43.82
-40.34
-37.64
-35.96
-35.37
-35.79
-37.06
-38.94
-41.22
-43.69
-46.17
-48.43
-50.24
-51.51
-52.29
-52.94
-53.89
-55.53
-57.90
-60.53
-62.57
-63.01
-61.14
-56.76
-50.36
-42.84
-35.24
-28.39
-22.66
-18.08
-14.46
-11.65
-9.66
-8.61
-8.51
-9.13
-9.92
-10.22
-9.55
-7.78
-5.29
-2.74
-0.77
0.23
0.24
-0.50
-1.71
-3.35
-5.52
-8.48
-12.29
-16.75
-21.39
-25.65
-29.13
-31.76
-33.80
-35.69
-37.90
-40.69
-44.08
-47.90
-51.78
-55.23
-57.65
-58.45
-57.15
-53.50
-47.66
-40.11
-31.66
-23.19
-15.46
-8.99
-3.95
-0.21
2.58
4.79
6.72
8.40
9.77
10.65
10.95
10.76
10.34
9.94
9.72
9.62
9.48
9.13
8.51
7.75
7.06
6.55
6.15
5.60
4.58
2.95
0.83
-1.32
-2.90
-3.51
-3.17
-2.39
-2.01
-2.79
-4.99
-8.27
-11.74
-14.42
-15.65
-15.25
-13.51
-10.78
-7.23
-2.55
3.79
12.25
22.81
34.65
46.24
55.67
61.14
61.51
56.45
46.59
33.21
17.98
2.67
-11.09
-22.09
-30.11
-36.39
-43.82
-55.95
-75.22
-101.08
-129.33
-153.28
-166.53
-165.87
-152.70
-132.15
-110.38
-91.70
-77.22
-65.45
-54.25
-42.71
-31.64
-22.72
-17.06
-14.30
-12.85
-10.93
-7.65
-3.59
-0.34
0.40
-2.21
-7.53
-13.68
-18.21
-19.17
-15.77
-8.72
0.27
9.19
16.58
21.97
25.81
29.03
32.52
36.59
40.98
44.97
47.75
48.85
48.25
46.36
43.86
41.40
39.47
38.21
37.51
37.07
36.58
35.83
34.69
33.17
31.33
29.23
26.94
24.50
21.98
19.38
16.70
13.90
10.91
7.68
4.19
0.48
-3.36
-7.27
-11.28
-15.45
-19.88
-24.60
-29.46
-34.09
-37.88
-40.13
-40.21
-37.86
-33.19
-26.80
-19.52
-12.20
-5.49
0.33
5.22
9.34
12.85
15.82
18.23
19.99
21.11
21.66
21.75
21.51
21.02
20.36
19.62
18.91
18.38
18.09
18.04
18.05
17.91
17.39
16.34
14.74
12.69
10.33
7.80
5.16
2.47
-0.27
-3.02
-5.72
-8.33
-10.84
-13.36
-16.06
-19.15
-22.82
-27.14
-32.02
-37.13
-41.95
-45.74
-47.74
-47.34
-44.36
-39.07
-32.22
-24.67
-17.20
-10.27
-4.04
1.51
6.42
10.64
14.06
16.62
18.36
19.47
20.21
20.80
21.39
22.00
22.62
23.17
23.63
23.96
24.19
24.31
24.32
24.14
23.68
22.77
21.31
19.23
16.56
13.43
10.01
6.51
3.06
-0.23
-3.31
-6.21
-9.03
-11.99
-15.34
-19.32
-23.91
-28.75
-33.08
-35.99
-36.66
-34.72
-30.43
-24.55
-17.99
-11.54
-5.62
-0.29
4.54
8.95
12.84
15.98
18.16
19.30
19.54
19.17
18.55
17.99
17.63
17.48
17.43
17.39
17.31
17.22
17.16
17.14
17.00
16.47
15.30
13.35
10.70
7.59
4.37
1.33
-1.38
-3.81
-6.14
-8.62
-11.49
-14.92
-18.92
-23.25
-27.45
-30.83
-32.67
-32.38
-29.73
-24.95
-18.66
-11.68
-4.80
1.49
6.99
11.74
15.85
19.31
22.01
23.79
24.61
24.62
24.11
23.45
22.87
22.46
22.09
21.61
20.93
20.09
19.19
18.35
17.51
16.53
15.19
13.36
11.01
8.23
5.20
2.08
-1.00
-3.99
-7.01
-10.31
-14.22
-18.98
-24.56
-30.55
-36.18
-40.54
-42.85
-42.71
-40.27
-36.12
-31.10
-26.04
-21.53
-17.78
-14.74
-12.16
-9.85
-7.73
-5.87
-4.37
-3.26
-2.37
-1.46
-0.36
0.98
2.39
3.64
4.54
5.07
5.33
5.44
5.42
5.14
4.39
2.94
0.60
-2.61
-6.48
-10.64
-14.64
-18.11
-20.90
-23.14
-25.26
-27.83
-31.25
-35.59
-40.47
-45.10
-48.51
-49.89
-48.74
-45.06
-39.33
-32.26
-24.67
-17.21
-10.31
-4.11
1.41
6.37
10.85
14.90
18.53
21.74
24.50
26.79
28.52
29.62
30.04
29.82
29.09
28.07
26.97
25.95
25.00
24.04
22.88
21.35
19.32
16.69
13.51
9.95
6.29
2.85
-0.18
-2.83
-5.46
-8.57
-12.67
-17.99
-24.37
-31.17
-37.48
-42.27
-44.68
-44.27
-41.15
-35.95
-29.61
-23.03
-16.81
-11.07
-5.61
-0.22
5.16
10.24
14.64
18.05
20.45
22.03
23.15
24.08
24.94
25.73
26.33
26.66
26.67
26.33
25.65
24.68
23.44
22.01
20.43
18.70
16.83
14.82
12.73
10.61
8.49
6.31
3.99
1.42
-1.45
-4.65
-8.18
-12.12
-16.50
-21.28
-26.16
-30.63
-33.97
-35.51
-34.85
-32.01
-27.39
-21.66
-15.46
-9.23
-3.19
2.59
8.06
13.08
17.38
20.72
22.98
24.26
24.81
25.00
25.16
25.50
26.05
26.74
27.39
27.84
27.97
27.73
27.19
26.46
25.64
24.76
23.75
22.49
20.87
18.85
16.41
13.60
10.46
7.06
3.52
-0.01
-3.44
-6.76
-10.11
-13.81
-18.15
-23.21
-28.76
-34.20
-38.70
-41.45
-41.88
-39.85
-35.60
-29.75
-23.07
-16.33
-10.08
-4.54
0.33
4.78
9.03
13.18
17.08
20.48
23.14
25.00
26.22
27.09
27.89
28.73
29.55
30.19
30.48
30.39
29.97
29.36
28.63
27.72
26.50
24.83
22.64
19.97
17.04
14.04
11.14
8.34
5.57
2.64
-0.58
-4.23
-8.36
-13.01
-18.12
-23.51
-28.73
-33.13
-35.98
-36.65
-34.86
-30.81
-25.07
-18.46
-11.71
-5.37
0.34
5.41
9.95
14.04
17.70
20.89
23.58
25.75
27.42
28.59
29.24
29.35
28.96
28.22
27.34
26.51
25.82
25.24
24.60
23.70
22.40
20.65
18.51
16.15
13.79
11.63
9.75
8.08
6.27
3.90
0.52
-4.04
-9.58
-15.54
-21.11
-25.54
-28.29
-29.18
-28.27
-25.83
-22.20
-17.74
-12.79
-7.71
-2.73
1.96
6.29
10.25
13.79
16.84
19.27
20.97
21.91
22.21
22.11
21.92
21.88
22.08
22.46
22.85
23.01
22.78
22.09
20.99
19.57
17.91
16.02
13.85
11.36
8.60
5.70
2.86
0.24
-2.19
-4.61
-7.37
-10.73
-14.75
-19.14
-23.32
-26.55
-28.21
-27.96
-25.87
-22.29
-17.74
-12.72
-7.53
-2.39
2.54
7.10
11.08
14.31
16.67
18.26
19.26
19.90
20.37
20.72
20.91
20.83
20.42
19.68
18.71
17.65
16.64
15.76
15.02
14.34
13.57
12.56
11.18
9.38
7.24
4.92
2.57
0.29
-1.94
-4.28
-6.95
-10.19
-14.10
-18.54
-23.14
-27.34
-30.47
-31.99
-31.59
-29.29
-25.43
-20.53
-15.13
-9.65
-4.36
0.66
5.31
9.53
13.20
16.21
18.49
20.09
21.11
21.72
22.06
22.18
22.13
21.91
21.53
21.04
20.49
19.94
19.35
18.64
17.70
16.38
14.58
12.26
9.52
6.52
3.47
0.58
-2.01
-4.26
-6.25
-8.22
-10.49
-13.39
-17.11
-21.53
-26.19
-30.31
-33.10
-33.98
-32.79
-29.80
-25.57
-20.63
-15.40
-10.08
-4.73
0.59
5.74
10.50
14.64
17.97
20.40
21.94
22.72
22.91
22.73
22.35
21.91
21.49
21.12
20.75
20.39
19.98
19.51
18.89
18.05
16.91
15.41
13.56
11.44
9.17
6.84
4.49
2.08
-0.38
-2.87
-5.32
-7.73
-10.21
-13.03
-16.49
-20.78
-25.70
-30.67
-34.88
-37.52
-38.04
-36.34
-32.75
-27.78
-22.04
-16.05
-10.20
-4.73
0.24
4.66
8.52
11.76
14.35
16.24
17.48
18.21
18.64
18.92
19.17
19.35
19.40
19.31
19.12
18.93
18.83
18.85
18.93
18.92
18.64
17.92
16.68
14.90
12.64
10.05
7.32
4.55
1.82
-0.89
-3.63
-6.44
-9.41
-12.67
-16.38
-20.71
-25.57
-30.57
-34.96
-37.87
-38.54
-36.74
-32.73
-27.21
-21.01
-14.78
-8.86
-3.33
1.82
6.51
10.48
13.45
15.27
16.02
16.05
15.83
15.74
15.89
16.20
16.42
16.36
15.98
15.41
14.86
14.51
14.41
14.44
14.38
14.00
13.11
11.67
9.75
7.47
5.01
2.48
-0.04
-2.48
-4.85
-7.13
-9.39
-11.77
-14.46
-17.71
-21.66
-26.18
-30.84
-34.93
-37.64
-38.31
-36.70
-33.04
-27.90
-21.97
-15.85
-9.88
-4.22
1.06
5.85
9.94
13.15
15.37
16.63
17.12
17.06
16.67
16.11
15.44
14.69
13.89
13.10
12.37
11.74
11.18
10.68
10.19
9.77
9.50
9.40
9.44
9.40
9.01
8.06
6.46
4.31
1.81
-0.86
-3.58
-6.32
-9.08
-11.92
-14.90
-18.17
-21.85
-25.94
-30.14
-33.90
-36.43
-37.07
-35.47
-31.80
-26.62
-20.68
-14.62
-8.84
-3.50
1.38
5.74
9.47
12.42
14.52
15.84
16.61
17.12
17.63
18.26
18.92
19.42
19.52
19.13
18.37
17.50
16.86
16.67
16.89
17.19
17.10
16.20
14.30
11.56
8.37
5.22
2.45
0.19
-1.70
-3.49
-5.49
-7.92
-10.98
-14.74
-19.15
-23.94
-28.58
-32.29
-34.31
-34.14
-31.80
-27.75
-22.79
-17.61
-12.64
-7.97
-3.49
0.90
5.11
8.90
11.98
14.15
15.41
15.93
16.00
15.91
15.86
15.97
16.17
16.32
16.26
15.93
15.36
14.69
14.03
13.38
12.60
11.47
9.83
7.64
5.05
2.30
-0.42
-3.02
-5.52
-8.05
-10.74
-13.75
-17.21
-21.25
-25.87
-30.93
-36.01
-40.49
-43.67
-44.94
-43.96
-40.80
-35.85
-29.76
-23.18
-16.65
-10.52
-4.91
0.15
4.71
8.72
12.11
14.80
16.77
18.09
18.88
19.36
19.62
19.73
19.69
19.48
19.07
18.51
17.89
17.29
16.78
16.30
15.76
14.95
13.74
12.02
9.84
7.32
4.64
1.91
-0.82
-3.57
-6.37
-9.26
-12.28
-15.52
-19.08
-23.04
-27.36
-31.72
-35.57
-38.22
-39.11
-37.97
-34.91
-30.43
-25.14
-19.59
-14.10
-8.78
-3.63
1.36
6.06
10.27
13.73
16.27
17.84
18.52
18.52
18.11
17.61
17.25
17.21
17.44
17.79
18.05
18.04
17.75
17.28
16.84
16.54
16.33
16.03
15.32
13.91
11.63
8.53
4.81
0.82
-3.10
-6.70
-9.91
-12.82
-15.69
-18.81
-22.44
-26.64
-31.24
-35.80
-39.67
-42.18
-42.80
-41.31
-37.90
-33.04
-27.35
-21.39
-15.51
-9.86
-4.41
0.90
6.08
11.05
15.62
19.53
22.58
24.64
25.75
26.18
26.24
26.27
26.46
26.84
27.33
27.78
28.09
28.22
28.13
27.81
27.26
26.49
25.52
24.37
23.00
21.34
19.27
16.75
13.84
10.69
7.46
4.23
0.98
-2.42
-6.13
-10.24
-14.74
-19.45
-24.05
-28.11
-31.13
-32.60
-32.18
-29.77
-25.56
-20.03
-13.84
-7.62
-1.84
3.23
7.58
11.28
14.44
17.11
19.28
20.92
21.99
22.55
22.71
22.58
22.28
21.93
21.66
21.58
21.76
22.21
22.82
23.36
23.56
23.19
22.15
20.51
18.49
16.33
14.24
12.26
10.30
8.19
5.76
2.94
-0.20
-3.56
-7.02
-10.53
-14.13
-17.93
-22.04
-26.44
-30.99
-35.32
-38.90
-41.18
-41.73
-40.36
-37.20
-32.63
-27.18
-21.30
-15.33
-9.48
-3.84
1.47
6.27
10.34
13.55
15.90
17.58
18.86
19.94
20.85
21.47
21.65
21.37
20.82
20.33
20.21
20.53
21.11
21.59
21.69
21.27
20.42
19.34
18.18
16.99
15.74
14.32
12.68
10.76
8.55
6.02
3.22
0.21
-2.93
-6.15
-9.48
-13.00
-16.82
-20.98
-25.42
-29.86
-33.96
-37.26
-39.37
-39.97
-38.97
-36.45
-32.70
-28.07
-22.93
-17.62
-12.36
-7.38
-2.80
1.23
4.66
7.46
9.63
11.21
12.26
12.92
13.35
13.74
14.22
14.85
15.59
16.39
17.23
18.11
19.07
20.09
21.04
21.74
22.03
21.83
21.22
20.34
19.30
18.13
16.73
14.99
12.82
10.28
7.47
4.57
1.74
-0.94
-3.48
-5.99
-8.65
-11.64
-15.10
-18.95
-22.93
-26.53
-29.13
-30.18
-29.33
-26.54
-22.10
-16.52
-10.39
-4.28
1.40
6.37
10.47
13.65
15.93
17.41
18.31
18.87
19.33
19.81
20.32
20.78
21.04
21.01
20.69
20.13
19.47
18.80
18.17
17.58
16.97
16.29
15.46
14.43
13.21
11.79
10.18
8.38
6.39
4.21
1.84
-0.67
-3.26
-5.88
-8.49
-11.09
-13.75
-16.53
-19.56
-22.93
-26.67
-30.73
-34.81
-38.47
-41.13
-42.30
-41.66
-39.22
-35.28
-30.30
-24.77
-19.06
-13.44
-8.10
-3.14
1.30
5.10
8.23
10.65
12.45
13.72
14.56
15.10
15.42
15.61
15.75
15.90
16.16
16.57
17.13
17.76
18.27
18.44
18.09
17.19
15.83
14.19
12.48
10.77
9.05
7.25
5.27
3.10
0.79
-1.56
-3.86
-6.06
-8.19
-10.35
-12.69
-15.42
-18.65
-22.35
-26.24
-29.87
-32.66
-34.12
-33.94
-32.07
-28.75
-24.38
-19.39
-14.18
-9.07
-4.22
0.26
4.31
7.88
10.88
13.19
14.69
15.35
15.26
14.65
13.83
13.09
12.64
12.49
12.54
12.60
12.52
12.22
11.73
11.13
10.48
9.84
9.17
8.37
7.31
5.86
3.93
1.48
-1.42
-4.60
-7.86
-10.99
-13.81
-16.26
-18.43
-20.56
-22.95
-25.88
-29.43
-33.41
-37.30
-40.37
-41.93
-41.57
-39.23
-35.27
-30.23
-24.68
-19.08
-13.68
-8.59
-3.85
0.49
4.39
7.77
10.52
12.56
13.88
14.59
14.91
15.09
15.33
15.75
16.33
16.94
17.49
17.89
18.15
18.28
18.28
18.16
17.89
17.45
16.87
16.11
15.11
13.80
12.12
10.14
7.97
5.75
3.56
1.38
-0.93
-3.52
-6.56
-10.10
-14.05
-18.17
-22.06
-25.17
-26.92
-26.87
-24.80
-20.89
-15.66
-9.82
-4.07
1.06
5.25
8.47
10.82
12.46
13.57
14.28
14.70
14.97
15.15
15.31
15.38
15.27
14.84
14.09
13.13
12.17
11.45
11.10
11.07
11.13
10.97
10.32
9.05
7.19
4.92
2.44
-0.08
-2.51
-4.85
-7.28
-10.02
-13.33
-17.40
-22.17
-27.30
-32.22
-36.21
-38.67
-39.24
-37.89
-34.87
-30.61
-25.54
-20.00
-14.28
-8.55
-3.02
2.07
6.52
10.15
12.92
14.89
16.18
16.95
17.31
17.31
16.94
16.21
15.15
13.84
12.39
10.93
9.56
8.37
7.36
6.49
5.63
4.62
3.32
1.64
-0.41
-2.73
-5.17
-7.61
-10.03
-12.51
-15.23
-18.39
-22.12
-26.41
-31.03
-35.55
-39.45
-42.19
-43.37
-42.78
-40.49
-36.72
-31.83
-26.17
-20.07
-13.83
-7.72
-1.92
3.38
8.10
12.20
15.64
18.43
20.54
22.05
23.08
23.77
24.20
24.36
24.19
23.59
22.61
21.40
20.18
19.14
18.28
17.43
16.34
14.83
12.83
10.44
7.84
5.21
2.63
0.12
-2.37
-4.94
-7.70
-10.75
-14.19
-18.09
-22.43
-27.05
-31.53
-35.29
-37.73
-38.36
-37.08
-34.13
-29.96
-25.12
-19.97
-14.71
-9.40
-4.08
1.09
5.90
10.10
13.54
16.17
18.06
19.37
20.26
20.89
21.39
21.83
22.22
22.47
22.50
22.27
21.81
21.21
20.58
19.95
19.29
18.53
17.61
16.53
15.35
14.13
12.87
11.49
9.90
8.03
5.97
3.87
1.86
-0.04
-2.02
-4.38
-7.32
-10.83
-14.57
-17.90
-20.14
-20.77
-19.61
-16.79
-12.68
-7.67
-2.14
3.67
9.54
15.22
20.45
24.95
28.48
30.95
32.36
32.84
32.54
31.67
30.43
29.03
27.65
26.45
25.49
24.72
23.96
23.03
21.77
20.08
18.07
15.86
13.62
11.48
9.47
7.58
5.71
3.72
1.45
-1.21
-4.29
-7.68
-11.15
-14.41
-17.28
-19.78
-22.19
-24.93
-28.34
-32.49
-37.00
-41.19
-44.25
-45.51
-44.64
-41.73
-37.15
-31.40
-24.96
-18.21
-11.45
-4.96
1.00
6.26
10.75
14.49
17.63
20.25
22.47
24.29
25.70
26.65
27.17
27.36
27.39
27.47
27.75
28.24
28.80
29.17
29.10
28.47
27.30
25.74
23.96
22.01
19.82
17.26
14.22
10.75
7.05
3.32
-0.25
-3.61
-6.82
-9.97
-13.13
-16.33
-19.59
-22.97
-26.58
-30.50
-34.68
-38.82
-42.39
-44.76
-45.41
-44.10
-40.94
-36.32
-30.75
-24.74
-18.67
-12.80
-7.31
-2.28
2.19
6.09
9.38
12.07
14.14
15.61
16.53
17.02
17.21
17.24
17.21
17.16
17.07
16.92
16.69
16.40
16.03
15.55
14.87
13.92
12.64
11.06
9.21
7.17
5.00
2.70
0.27
-2.31
-5.01
-7.78
-10.54
-13.15
-15.50
-17.45
-18.98
-20.14
-21.14
-22.21
-23.63
-25.53
-27.86
-30.35
-32.59
-34.09
-34.38
-33.16
-30.35
-26.13
-20.89
-15.13
-9.29
-3.70
1.52
6.34
10.77
14.75
18.22
21.07
23.27
24.84
25.87
26.49
26.80
26.90
26.89
26.86
26.87
26.94
27.02
27.04
26.93
26.67
26.27
25.78
25.24
24.66
23.95
23.04
21.83
20.34
18.60
16.73
14.76
12.65
10.27
7.51
4.37
1.00
-2.42
-5.79
-9.21
-12.82
-16.71
-20.61
-23.91
-25.81
-25.69
-23.37
-19.28
-14.20
-9.00
-4.29
-0.29
3.13
6.16
8.88
11.24
13.06
14.25
14.86
15.04
15.07
15.15
15.35
15.66
15.99
16.27
16.48
16.63
16.78
16.98
17.22
17.45
17.55
17.39
16.87
15.96
14.70
13.24
11.70
10.21
8.83
7.59
6.48
5.51
4.68
3.92
3.13
2.18
1.05
-0.09
-0.82
-0.58
1.23
4.99
10.75
18.21
26.84
36.03
45.27
54.31
63.11
71.88
80.87
90.29
100.06
109.81
118.93
126.77
132.89
137.25
140.21
142.39
144.39
146.66
149.35
152.43
155.74
159.17
162.60
165.90
168.89
171.36
173.19
174.47
175.54
176.92
178.97
181.48
183.47
183.20
178.71
168.51
152.22
130.65
105.44
78.38
50.84
23.53
-3.25
-29.27
-54.07
-77.14
-98.18
-117.41
-135.48
-153.04
-170.29
-186.80
-201.64
-213.93
-223.27
-229.91
-234.47
-237.58
-239.56
-240.43
-240.04
-238.31
-235.30
-231.20
-226.24
-220.76
-215.26
-210.37
-206.64
-204.26
-202.83
-201.46
-199.26
-195.74
-191.13
-186.28
-182.26
-179.78
-178.95
-179.18
-179.59
-179.41
-178.44
-177.08
-176.09
-176.04
-176.82
-177.52
-176.65
-172.91
-165.75
-155.64
-143.68
-130.79
-117.03
-101.49
-82.83
-60.17
-33.71
-4.64
25.41
55.14
83.90
111.52
137.83
162.26
183.80
201.33
213.85
220.87
222.31
218.50
210.22
198.68
185.44
172.13
160.10
150.24
143.00
138.46
136.49
136.73
138.56
141.19
143.94
146.51
149.00
151.59
154.06
155.51
154.42
149.21
138.91
123.55
104.12
82.26
59.80
38.39
19.42
3.87
-7.71
-15.21
-18.99
-19.73
-18.11
-14.74
-10.19
-5.37
-1.75
-1.23
-5.59
-15.63
-30.51
-47.76
-64.03
-76.50
-83.97
-87.33
-88.83
-90.79
-94.36
-99.04
-103.30
-105.73
-106.14
-105.74
-106.61
-110.52
-117.88
-127.65
-137.91
-146.99
-154.21
-159.98
-165.20
-170.52
-176.12
-181.88
-188.01
-195.28
-204.59
-216.00
-228.12
-238.19
-243.03
-240.63
-231.02
-216.28
-199.43
-182.81
-167.08
-151.06
-132.65
-110.15
-83.40
-54.13
-25.54
-1.08
16.71
26.98
30.76
30.21
27.78
25.26
23.66
23.47
25.16
29.43
36.83
47.18
59.15
70.32
78.13
81.04
79.29
74.86
70.61
68.93
70.65
74.80
79.23
81.77
81.37
78.56
75.08
72.96
73.61
77.17
82.58
88.18
92.33
93.95
92.72
88.90
83.12
76.13
68.76
61.74
55.62
50.58
46.44
42.71
38.84
34.51
29.77
24.96
20.44
16.40
12.78
9.35
6.06
3.08
0.79
-0.55
-1.00
-1.08
-1.50
-2.82
-5.18
-8.15
-11.05
-13.18
-14.21
-14.12
-13.14
-11.54
-9.50
-7.15
-4.62
-2.09
0.34
2.72
5.39
8.79
13.26
18.76
24.78
30.47
34.90
37.42
37.74
35.94
32.19
26.66
19.37
10.23
-0.88
-14.11
-29.56
-47.17
-66.51
-86.51
-105.57
-121.78
-133.56
-140.20
-142.06
-140.37
-136.70
-132.51
-128.76
-125.81
-123.37
-120.48
-115.64
-107.12
-93.54
-74.49
-50.74
-23.85
4.50
33.11
61.08
87.26
109.61
125.35
132.01
128.67
116.95
100.65
84.44
72.04
65.04
62.82
63.39
64.71
65.43
65.18
64.10
62.32
59.76
56.11
51.17
45.04
38.25
31.58
25.74
21.15
17.82
15.60
14.47
14.91
17.87
24.39
34.90
48.61
63.39
76.23
84.28
85.74
80.38
69.33
54.44
37.63
20.53
4.48
-9.37
-19.98
-26.66
-29.39
-28.94
-26.68
-24.04
-22.03
-21.02
-20.81
-20.96
-21.11
-21.07
-20.80
-20.34
-19.66
-18.72
-17.53
-16.15
-14.65
-13.12
-11.62
-10.19
-8.87
-7.73
-6.81
-6.09
-5.54
-5.09
-4.75
-4.68
-5.06
-6.12
-7.99
-10.63
-13.86
-17.44
-21.16
-24.91
-28.64
-32.17
-35.19
-37.17
-37.45
-35.55
-31.25
-24.68
-16.32
-6.80
3.21
13.10
22.37
30.60
37.50
42.93
46.83
49.27
50.38
50.38
49.57
48.32
47.06
46.12
45.64
45.51
45.47
45.25
44.74
43.97
43.14
42.38
41.64
40.71
39.33
37.35
34.83
32.10
29.60
27.67
26.46
25.80
25.32
24.60
23.35
21.48
19.13
16.68
14.56
13.22
12.99
14.04
16.31
19.50
23.27
27.24
31.19
35.00
38.59
41.85
44.60
46.59
47.67
47.80
47.14
45.97
44.62
43.42
42.63
42.39
42.71
43.53
44.69
45.89
46.70
46.50
44.57
40.26
33.20
23.53
11.74
-1.31
-14.78
-27.91
-40.02
-50.51
-58.74
-64.22
-66.79
-66.83
-65.20
-63.01
-61.20
-60.19
-59.80
-59.41
-58.23
-55.69
-51.59
-46.14
-39.81
-33.10
-26.43
-19.98
-13.81
-7.89
-2.20
3.23
8.33
13.07
17.48
21.61
25.53
29.27
32.76
35.90
38.58
40.72
42.26
43.21
43.63
43.56
43.09
42.24
40.93
39.02
36.36
32.78
28.20
22.64
16.24
9.25
1.98
-5.14
-11.68
-17.27
-21.63
-24.65
-26.44
-27.24
-27.40
-27.23
-26.92
-26.50
-25.85
-24.80
-23.25
-21.19
-18.81
-16.40
-14.24
-12.53
-11.39
-10.82
-10.82
-11.39
-12.56
-14.36
-16.77
-19.76
-23.29
-27.33
-31.81
-36.56
-41.30
-45.60
-48.98
-51.00
-51.33
-49.85
-46.66
-42.10
-36.73
-31.19
-26.05
-21.63
-17.89
-14.53
-11.16
-7.54
-3.71
0.05
3.41
6.15
8.27
9.95
11.50
13.20
15.35
18.19
21.85
26.27
31.12
35.89
40.03
43.18
45.29
46.62
47.57
48.50
49.63
50.99
52.51
54.07
55.63
57.15
58.68
60.27
62.00
63.98
66.27
68.88
71.71
74.69
77.78
81.02
84.55
88.50
92.96
97.89
103.12
108.39
113.34
117.48
120.28
121.29
120.21
117.11
112.34
106.42
99.92
93.26
86.73
80.45
74.47
68.74
63.18
57.73
52.39
47.38
43.09
39.93
38.14
37.61
37.83
38.17
38.10
37.41
36.22
34.80
33.40
32.09
30.77
29.29
27.43
25.05
22.03
18.27
13.78
8.59
2.74
-3.78
-11.09
-19.33
-28.45
-38.08
-47.42
-55.54
-61.64
-65.47
-67.39
-68.14
-68.48
-68.74
-68.82
-68.35
-67.05
-64.95
-62.38
-59.72
-57.19
-54.73
-52.12
-49.20
-46.02
-42.89
-40.12
-37.96
-36.34
-35.06
-33.87
-32.65
-31.55
-30.88
-30.99
-32.04
-33.87
-36.05
-37.99
-39.25
-39.67
-39.45
-39.03
-38.90
-39.35
-40.42
-41.86
-43.26
-44.16
-44.15
-42.91
-40.25
-36.06
-30.44
-23.67
-16.17
-8.49
-1.10
5.59
11.36
16.07
19.62
21.92
22.92
22.68
21.42
19.56
17.48
15.52
13.74
12.04
10.13
7.72
4.64
0.95
-3.12
-7.17
-10.75
-13.62
-15.76
-17.50
-19.29
-21.56
-24.41
-27.54
-30.41
-32.37
-33.02
-32.32
-30.64
-28.69
-27.29
-27.19
-28.85
-32.35
-37.29
-42.86
-48.02
-51.69
-53.01
-51.56
-47.42
-41.16
-33.65
-25.83
-18.59
-12.55
-8.14
-5.53
-4.75
-5.65
-7.95
-11.23
-15.02
-18.86
-22.43
-25.55
-28.19
-30.40
-32.23
-33.73
-34.86
-35.53
-35.67
-35.31
-34.55
-33.60
-32.64
-31.73
-30.78
-29.54
-27.74
-25.29
-22.31
-19.23
-16.50
-14.49
-13.26
-12.59
-12.07
-11.34
-10.14
-8.45
-6.32
-3.78
-0.80
2.69
6.68
11.06
15.58
19.97
24.08
27.82
31.15
33.92
35.83
36.55
35.87
33.81
30.76
27.24
23.81
20.80
18.24
15.93
13.57
11.01
8.26
5.56
3.18
1.27
-0.15
-1.29
-2.42
-3.76
-5.45
-7.47
-9.70
-12.02
-14.31
-16.52
-18.72
-21.02
-23.57
-26.50
-29.86
-33.63
-37.63
-41.54
-44.94
-47.31
-48.23
-47.50
-45.21
-41.71
-37.42
-32.62
-27.27
-21.11
-13.82
-5.25
4.33
14.30
23.84
32.14
38.69
43.37
46.49
48.63
50.44
52.39
54.58
56.66
58.03
58.06
56.37
52.93
47.95
41.75
34.56
26.54
17.89
9.03
0.61
-6.67
-12.33
-16.31
-18.96
-20.88
-22.55
-24.27
-26.15
-28.24
-30.73
-33.85
-37.77
-42.34
-47.00
-51.00
-53.61
-54.44
-53.47
-51.03
-47.49
-43.15
-38.13
-32.50
-26.48
-20.45
-14.88
-10.14
-6.41
-3.54
-1.18
1.03
3.36
5.97
8.91
12.24
16.06
20.45
25.53
31.38
38.01
45.36
53.20
61.17
68.79
75.56
81.17
85.66
89.41
93.01
97.03
101.70
106.85
111.88
116.08
118.86
119.96
119.47
117.65
114.74
110.85
106.04
100.45
94.39
88.31
82.59
77.44
72.82
68.64
64.80
61.41
58.72
56.99
56.22
56.09
55.89
54.79
52.14
47.73
41.87
35.26
28.65
22.45
16.50
10.20
2.82
-6.08
-16.38
-27.45
-38.50
-48.86
-58.22
-66.60
-74.08
-80.74
-86.58
-91.75
-96.61
-101.81
-107.98
-115.43
-123.93
-132.79
-141.22
-148.75
-155.51
-162.12
-169.29
-177.42
-186.27
-195.08
-202.79
-208.47
-211.59
-212.03
-210.04
-206.08
-200.78
-194.74
-188.41
-181.80
-174.39
-165.31
-153.81
-139.73
-123.71
-107.00
-90.98
-76.72
-64.77
-55.32
-48.36
-43.82
-41.44
-40.49
-39.81
-38.01
-34.00
-27.36
-18.51
-8.46
1.56
10.50
17.70
22.87
26.09
27.75
28.47
28.88
29.45
30.32
31.24
31.72
31.22
29.39
26.25
22.16
17.86
14.29
12.44
13.01
16.18
21.43
27.56
33.08
36.64
37.52
35.84
32.42
28.39
24.76
22.17
20.81
20.58
21.24
22.54
24.24
26.13
28.05
29.91
31.71
33.41
34.95
36.14
36.75
36.55
35.47
33.61
31.17
28.36
25.28
21.98
18.51
14.98
11.63
8.70
6.31
4.40
2.67
0.70
-1.86
-5.24
-9.37
-13.99
-18.71
-23.09
-26.69
-29.14
-30.12
-29.44
-27.05
-23.10
-17.88
-11.77
-5.14
1.75
8.69
15.53
22.15
28.39
34.08
39.10
43.37
46.89
49.75
52.00
53.74
55.03
56.00
56.78
57.50
58.22
58.93
59.50
59.77
59.58
58.86
57.59
55.77
53.38
50.42
46.95
43.15
39.24
35.48
32.02
28.83
25.77
22.63
19.22
15.41
11.18
6.62
2.02
-2.18
-5.42
-7.13
-6.98
-5.07
-1.89
1.79
5.24
7.97
9.88
11.14
11.99
12.65
13.18
13.64
14.13
14.85
16.04
17.76
19.89
22.09
24.06
25.63
26.95
28.29
29.91
31.88
34.00
35.97
37.55
38.68
39.49
40.15
40.80
41.48
42.08
42.44
42.45
42.07
41.35
40.41
39.48
38.72
38.24
37.93
37.47
36.42
34.34
31.00
26.43
21.02
15.38
10.18
6.01
3.23
1.94
2.04
3.31
5.56
8.62
12.34
16.47
20.63
24.30
26.93
28.12
27.70
25.85
22.94
19.45
15.78
12.17
8.65
5.14
1.49
-2.36
-6.38
-10.48
-14.56
-18.60
-22.64
-26.71
-30.79
-34.75
-38.44
-41.76
-44.76
-47.64
-50.66
-53.99
-57.61
-61.31
-64.83
-67.95
-70.65
-73.08
-75.46
-77.93
-80.48
-82.83
-84.58
-85.26
-84.47
-82.05
-78.03
-72.67
-66.27
-59.21
-51.72
-44.01
-36.25
-28.62
-21.36
-14.71
-8.83
-3.74
0.72
4.92
9.18
13.78
18.75
24.00
29.39
34.79
40.21
45.62
50.89
55.73
59.75
62.62
64.27
64.93
65.05
65.10
65.36
65.83
66.25
66.30
65.71
64.39
62.40
59.90
57.04
53.94
50.65
47.17
43.46
39.38
34.76
29.37
23.13
16.15
8.91
2.20
-3.05
-6.14
-6.81
-5.40
-2.70
0.44
3.31
5.61
7.29
8.37
8.75
8.20
6.54
3.89
0.75
-2.13
-4.08
-4.75
-4.22
-2.91
-1.24
0.52
2.37
4.36
6.53
8.71
10.68
12.24
13.38
14.19
14.82
15.29
15.48
15.26
14.64
13.83
13.18
12.96
13.21
13.64
13.82
13.41
12.30
10.74
9.13
7.92
7.34
7.39
7.82
8.31
8.54
8.33
7.68
6.70
5.55
4.38
3.30
2.42
1.81
1.52
1.52
1.65
1.67
1.36
0.65
-0.38
-1.56
-2.77
-4.07
-5.67
-7.76
-10.40
-13.42
-16.51
-19.43
-22.13
-24.81
-27.80
-31.36
-35.65
-40.60
-46.08
-51.86
-57.73
-63.31
-68.11
-71.52
-73.04
-72.49
-70.11
-66.52
-62.45
-58.44
-54.66
-50.86
-46.55
-41.22
-34.62
-26.72
-17.85
-8.50
0.78
9.51
17.35
24.14
29.85
34.49
38.10
40.68
42.29
43.03
43.15
42.95
42.62
42.25
41.78
41.08
40.09
38.88
37.61
36.48
35.66
35.17
34.96
34.89
34.74
34.35
33.57
32.31
30.55
28.33
25.84
23.31
21.04
19.32
18.27
17.88
17.91
18.05
17.89
17.15
15.71
13.65
11.28
9.02
7.24
6.25
6.08
6.57
7.43
8.37
9.23
10.04
10.94
12.06
13.45
15.07
16.80
18.65
20.73
23.25
26.43
30.21
34.36
38.38
41.78
44.19
45.46
45.67
45.05
43.84
42.28
40.49
38.55
36.40
33.88
30.72
26.68
21.63
15.60
8.81
1.50
-6.10
-13.85
-21.62
-29.19
-36.33
-42.73
-48.25
-52.97
-57.16
-61.16
-65.17
-69.08
-72.55
-75.14
-76.49
-76.49
-75.16
-72.68
-69.23
-65.04
-60.37
-55.59
-51.14
-47.33
-44.31
-42.00
-40.14
-38.43
-36.64
-34.59
-32.15
-29.22
-25.77
-21.90
-17.84
-13.91
-10.33
-7.17
-4.28
-1.41
1.63
4.87
8.21
11.52
14.74
17.94
21.19
24.47
27.56
30.06
31.46
31.24
28.94
24.25
17.12
7.85
-2.80
-13.62
-23.21
-30.40
-34.61
-36.01
-35.36
-33.63
-31.57
-29.46
-27.21
-24.63
-21.77
-19.00
-16.95
-16.18
-16.88
-18.84
-21.47
-24.07
-26.12
-27.39
-27.87
-27.70
-26.98
-25.67
-23.63
-20.70
-16.85
-12.22
-7.09
-1.85
3.15
7.53
10.92
12.92
13.15
11.38
7.72
2.63
-3.11
-8.68
-13.56
-17.61
-21.08
-24.37
-27.70
-30.97
-33.77
-35.60
-36.12
-35.22
-33.05
-29.85
-25.82
-21.13
-15.90
-10.34
-4.75
0.48
4.98
8.49
10.91
12.33
13.02
13.36
13.66
14.13
14.79
15.43
15.76
15.54
14.72
13.46
11.99
10.54
9.15
7.78
6.31
4.71
3.07
1.56
0.32
-0.65
-1.52
-2.54
-3.92
-5.77
-8.04
-10.61
-13.38
-16.31
-19.31
-22.26
-24.92
-27.00
-28.32
-28.87
-28.74
-28.01
-26.56
-23.99
-19.82
-13.76
-5.92
3.06
12.25
20.74
27.88
33.41
37.44
40.29
42.36
44.08
45.78
47.71
49.92
52.35
54.76
56.89
58.59
59.85
60.87
61.90
63.17
64.79
66.60
68.22
69.09
68.74
66.89
63.76
59.96
56.39
53.90
52.96
53.52
55.01
56.67
57.80
58.03
57.34
55.91
53.88
51.30
48.17
44.58
40.83
37.31
34.36
31.99
29.85
27.42
24.21
20.15
15.52
10.89
6.78
3.44
0.76
-1.54
-3.77
-6.04
-8.17
-9.85
-10.79
-10.85
-10.15
-9.01
-7.83
-6.93
-6.53
-6.68
-7.32
-8.39
-9.83
-11.60
-13.72
-16.24
-19.32
-23.24
-28.33
-34.78
-42.46
-50.72
-58.59
-64.99
-69.22
-71.24
-71.62
-71.35
-71.31
-71.98
-73.29
-74.82
-75.99
-76.26
-75.16
-72.23
-67.15
-59.88
-50.82
-40.82
-30.91
-21.89
-14.07
-7.21
-0.83
5.41
11.56
17.32
22.38
26.62
30.21
33.48
36.72
40.10
43.66
47.40
51.32
55.43
59.72
64.11
68.46
72.65
76.56
80.10
83.12
85.53
87.26
88.45
89.41
90.62
92.60
95.83
100.65
107.23
115.56
125.43
136.39
147.71
158.53
167.96
175.31
180.24
182.75
183.14
181.75
178.82
174.38
168.34
160.63
151.43
141.13
130.28
119.26
108.12
96.65
84.45
71.34
57.36
42.78
27.81
12.32
-4.17
-22.38
-42.83
-65.58
-90.10
-115.36
-140.08
-162.97
-182.95
-199.17
-211.18
-218.90
-222.71
-223.26
-221.31
-217.53
-212.31
-205.84
-198.18
-189.50
-180.13
-170.55
-161.26
-152.60
-144.71
-137.43
-130.47
-123.45
-116.12
-108.41
-100.41
-92.30
-84.28
-76.50
-69.17
-62.58
-57.21
-53.60
-52.16
-52.90
-55.38
-58.76
-62.09
-64.62
-66.04
-66.49
-66.41
-66.24
-66.20
-66.19
-65.76
-64.29
-61.16
-55.95
-48.64
-39.79
-30.52
-22.36
-16.95
-15.56
-18.52
-24.95
-32.82
-39.35
-41.98
-39.07
-30.46
-17.37
-1.75
14.52
30.43
45.98
61.90
78.89
97.06
115.67
133.34
148.55
160.23
167.98
172.01
172.87
171.05
166.62
159.16
147.80
131.45
108.94
79.49
43.28
2.08
-40.38
-78.72
-107.07
-120.83
-118.03
-99.82
-69.80
-32.61
7.36
46.68
82.71
113.27
136.62
151.84
159.46
161.59
161.41
161.88
164.67
169.55
174.69
177.49
175.55
167.47
153.12
133.67
111.15
87.90
65.88
46.31
29.63
15.72
4.38
-4.47
-10.71
-14.36
-15.82
-15.90
-15.66
-15.97
-17.28
-19.53
-22.33
-25.32
-28.38
-31.63
-35.23
-39.19
-43.20
-46.74
-49.21
-50.16
-49.34
-46.77
-42.78
-37.91
-32.96
-28.78
-26.02
-24.80
-24.59
-24.33
-22.88
-19.58
-14.53
-8.62
-3.15
0.66
2.05
0.96
-1.99
-5.53
-7.97
-7.54
-3.04
5.42
16.00
25.31
29.28
24.52
9.66
-14.07
-43.15
-73.00
-99.47
-120.00
-134.03
-142.53
-147.11
-149.18
-149.50
-148.25
-145.42
-141.13
-135.67
-129.33
-122.11
-113.71
-103.70
-91.98
-78.97
-65.51
-52.55
-40.81
-30.49
-21.38
-13.04
-5.11
2.57
9.90
16.64
22.54
27.39
31.02
33.29
34.00
32.98
30.11
25.50
19.47
12.54
5.32
-1.67
-8.03
-13.59
-18.36
-22.60
-26.87
-32.01
-38.98
-48.26
-59.30
-70.06
-77.34
-77.87
-69.68
-53.24
-31.42
-8.56
11.26
25.59
34.11
38.17
39.72
40.45
41.37
43.21
46.68
52.68
61.91
74.45
89.41
105.11
119.69
131.72
140.76
147.33
152.61
157.67
162.84
167.32
169.43
167.30
159.73
146.76
129.66
110.19
89.86
69.20
47.83
24.85
-0.44
-28.13
-57.53
-87.42
-116.31
-142.64
-164.98
-182.22
-193.91
-200.39
-202.79
-202.62
-201.23
-199.44
-197.51
-195.35
-192.77
-189.67
-185.95
-181.39
-175.65
-168.51
-160.07
-150.80
-141.42
-132.59
-124.61
-117.42
-110.68
-104.14
-97.60
-91.02
-84.38
-77.56
-70.48
-63.17
-55.87
-48.99
-42.93
-37.86
-33.65
-29.88
-26.03
-21.70
-16.75
-11.30
-5.67
-0.21
4.80
9.21
12.97
16.06
18.52
20.42
21.86
23.02
24.06
25.09
26.06
26.84
27.23
27.04
26.27
24.99
23.43
21.77
20.21
18.86
17.78
16.98
16.38
15.82
15.10
14.07
12.69
11.07
9.41
7.89
6.53
5.18
3.61
1.67
-0.56
-2.73
-4.30
-4.70
-3.60
-0.99
2.80
7.21
11.67
15.73
19.20
22.08
24.55
26.72
28.65
30.25
31.36
31.82
31.57
30.72
29.43
27.90
26.21
24.40
22.39
20.09
17.48
14.55
11.41
8.05
4.53
0.88
-2.77
-6.22
-9.19
-11.44
-12.91
-13.75
-14.32
-14.99
-16.05
-17.47
-19.00
-20.25
-20.85
-20.58
-19.40
-17.35
-14.53
-11.05
-6.96
-2.34
2.71
8.08
13.50
18.61
22.87
25.89
27.66
28.85
30.57
33.73
38.37
43.10
45.41
42.44
32.11
13.93
-11.01
-40.41
-71.50
-101.28
-126.62
-144.29
-151.46
-146.57
-130.27
-105.64
-77.29
-49.76
-25.90
-6.21
10.69
26.57
42.22
56.96
69.19
77.53
81.73
82.75
81.94
80.11
77.01
71.60
63.01
51.23
37.55
24.13
13.27
6.64
4.82
7.23
12.30
17.85
21.63
22.08
18.72
12.35
4.56
-3.19
-10.27
-17.13
-24.75
-33.79
-43.87
-53.53
-60.92
-64.61
-64.20
-60.33
-54.32
-47.46
-40.75
-34.78
-29.91
-26.41
-24.36
-23.55
-23.38
-22.93
-21.13
-17.20
-10.87
-2.40
7.40
17.59
27.22
35.64
42.51
47.73
51.40
53.63
54.61
54.52
53.59
51.96
49.71
46.77
43.06
38.60
33.59
28.48
23.76
19.85
16.91
14.80
13.15
11.49
9.44
6.80
3.61
0.14
-3.17
-5.85
-7.59
-8.38
-8.59
-8.79
-9.62
-11.42
-14.14
-17.28
-20.09
-21.81
-21.90
-20.25
-17.06
-12.80
-7.98
-3.02
1.76
6.23
10.25
13.77
16.74
19.18
21.11
22.58
23.59
24.12
24.18
23.81
23.14
22.32
21.51
20.81
20.27
19.81
19.28
18.49
17.19
15.27
12.73
9.79
6.75
3.90
1.37
-0.88
-3.04
-5.36
-8.00
-11.02
-14.37
-17.87
-21.21
-23.90
-25.33
-24.97
-22.53
-18.16
-12.44
-6.17
-0.11
5.26
9.82
13.67
16.97
19.73
21.84
23.17
23.65
23.36
22.49
21.26
19.87
18.52
17.38
16.56
16.10
15.88
15.64
15.07
13.98
12.34
10.32
8.17
6.08
4.06
2.03
-0.11
-2.43
-4.94
-7.60
-10.50
-13.68
-17.12
-20.52
-23.37
-24.93
-24.60
-22.12
-17.72
-12.11
-6.14
-0.61
4.05
7.76
10.70
13.16
15.30
17.16
18.53
19.20
18.99
17.96
16.37
14.66
13.28
12.49
12.31
12.49
12.73
12.75
12.44
11.84
11.03
10.04
8.87
7.51
5.95
4.31
2.67
1.04
-0.69
-2.75
-5.35
-8.56
-12.17
-15.73
-18.60
-20.16
-19.96
-17.88
-14.22
-9.54
-4.63
-0.13
3.56
6.42
8.70
10.67
12.51
14.19
15.51
16.27
16.38
15.94
15.18
14.33
13.50
12.75
11.97
11.15
10.27
9.39
8.53
7.67
6.72
5.57
4.16
2.45
0.54
-1.46
-3.44
-5.34
-7.25
-9.35
-11.87
-14.93
-18.40
-21.84
-24.55
-25.83
-25.18
-22.55
-18.30
-13.14
-7.80
-2.84
1.47
5.10
8.17
10.84
13.20
15.28
16.99
18.25
18.94
19.01
18.52
17.61
16.49
15.36
14.40
13.59
12.88
12.15
11.29
10.18
8.78
7.10
5.16
3.09
1.02
-0.90
-2.63
-4.25
-5.95
-7.99
-10.61
-13.95
-17.93
-22.20
-26.13
-28.99
-30.16
-29.30
-26.55
-22.39
-17.50
-12.48
-7.66
-3.10
1.30
5.57
9.63
13.25
16.21
18.40
19.85
20.73
21.21
21.38
21.28
20.90
20.29
19.60
19.01
18.62
18.42
18.21
17.74
16.78
15.24
13.19
10.73
8.05
5.27
2.55
-0.01
-2.31
-4.36
-6.32
-8.40
-10.88
-13.92
-17.53
-21.48
-25.31
-28.43
-30.20
-30.15
-28.08
-24.21
-19.09
-13.42
-7.79
-2.56
2.27
6.83
11.21
15.33
18.87
21.55
23.21
23.97
24.16
24.17
24.28
24.55
24.84
24.88
24.47
23.58
22.37
21.11
20.04
19.21
18.49
17.61
16.29
14.40
12.03
9.34
6.55
3.76
1.01
-1.69
-4.28
-6.69
-8.84
-10.83
-12.97
-15.62
-19.08
-23.29
-27.80
-31.77
-34.31
-34.72
-32.74
-28.60
-22.89
-16.38
-9.73
-3.44
2.24
7.24
11.54
15.17
18.10
20.36
21.95
22.94
23.47
23.73
23.86
23.93
23.90
23.68
23.16
22.36
21.38
20.42
19.60
18.96
18.38
17.69
16.75
15.51
14.08
12.54
10.98
9.30
7.37
5.09
2.43
-0.47
-3.46
-6.36
-9.17
-11.96
-14.96
-18.39
-22.34
-26.65
-30.81
-34.08
-35.67
-35.02
-32.06
-27.21
-21.24
-14.95
-8.90
-3.26
1.98
6.88
11.31
15.02
17.74
19.41
20.22
20.57
20.84
21.22
21.67
22.00
22.09
21.93
21.71
21.67
21.95
22.50
23.07
23.33
22.95
21.81
20.01
17.85
15.72
13.88
12.40
11.09
9.58
7.56
4.87
1.64
-1.85
-5.22
-8.28
-10.95
-13.40
-15.93
-18.81
-22.23
-26.12
-30.20
-33.97
-36.86
-38.34
-38.10
-36.06
-32.39
-27.46
-21.69
-15.63
-9.72
-4.42
0.01
3.52
6.28
8.61
10.81
13.07
15.32
17.36
18.92
19.86
20.26
20.37
20.52
20.89
21.51
22.22
22.85
23.23
23.29
23.04
22.46
21.52
20.17
18.40
16.26
13.91
11.50
9.14
6.84
4.50
2.04
-0.61
-3.40
-6.24
-8.97
-11.54
-14.01
-16.56
-19.38
-22.50
-25.69
-28.45
-30.09
-29.96
-27.65
-23.23
-17.15
-10.23
-3.33
2.83
7.83
11.65
14.44
16.47
17.91
18.89
19.48
19.78
20.03
20.43
21.14
22.10
23.04
23.59
23.45
22.50
20.89
19.01
17.22
15.77
14.65
13.65
12.47
10.80
8.58
5.93
3.15
0.52
-1.76
-3.74
-5.63
-7.67
-10.07
-12.87
-16.02
-19.40
-22.91
-26.45
-29.84
-32.72
-34.58
-34.88
-33.26
-29.71
-24.63
-18.70
-12.61
-6.87
-1.66
3.09
7.49
11.56
15.10
17.85
19.55
20.18
20.00
19.51
19.27
19.58
20.44
21.54
22.40
22.66
22.16
21.02
19.51
17.90
16.33
14.84
13.37
11.86
10.32
8.73
7.07
5.20
2.99
0.35
-2.61
-5.68
-8.54
-11.04
-13.27
-15.61
-18.57
-22.43
-27.09
-31.89
-35.85
-37.99
-37.69
-34.88
-30.02
-23.90
-17.40
-11.25
-5.94
-1.66
1.64
4.18
6.26
8.16
10.03
11.89
13.67
15.29
16.70
17.87
18.83
19.56
20.06
20.35
20.50
20.65
20.89
21.24
21.52
21.52
21.01
19.92
18.32
16.41
14.40
12.38
10.28
7.94
5.22
2.09
-1.33
-4.80
-8.10
-11.15
-14.08
-17.18
-20.74
-24.92
-29.54
-34.08
-37.71
-39.64
-39.30
-36.60
-31.92
-25.99
-19.59
-13.32
-7.50
-2.19
2.58
6.82
10.44
13.38
15.73
17.69
19.51
21.25
22.81
23.92
24.36
24.08
23.36
22.64
22.27
22.36
22.64
22.74
22.24
21.03
19.22
17.05
14.77
12.45
10.01
7.32
4.33
1.11
-2.05
-4.88
-7.23
-9.16
-11.00
-13.12
-15.84
-19.30
-23.39
-27.83
-32.26
-36.27
-39.45
-41.34
-41.55
-39.80
-36.09
-30.71
-24.22
-17.32
-10.63
-4.64
0.39
4.44
7.69
10.42
12.92
15.40
17.85
20.13
22.00
23.28
23.95
24.14
24.06
23.86
23.53
23.03
22.26
21.23
20.03
18.82
17.68
16.51
15.16
13.41
11.16
8.51
5.73
3.13
0.97
-0.66
-1.94
-3.20
-4.82
-7.05
-10.01
-13.61
-17.63
-21.84
-25.97
-29.75
-32.78
-34.60
-34.72
-32.82
-28.88
-23.25
-16.62
-9.77
-3.31
2.44
7.47
11.97
16.13
19.99
23.37
25.99
27.66
28.32
28.17
27.59
26.98
26.63
26.60
26.74
26.74
26.38
25.55
24.36
23.05
21.83
20.82
19.91
18.87
17.43
15.47
13.02
10.28
7.54
4.96
2.59
0.30
-2.13
-4.88
-8.07
-11.73
-15.80
-20.24
-24.99
-29.87
-34.57
-38.53
-41.05
-41.53
-39.61
-35.46
-29.65
-23.05
-16.47
-10.40
-4.94
0.07
4.88
9.57
13.95
17.70
20.54
22.34
23.24
23.53
23.59
23.65
23.84
24.08
24.28
24.27
24.04
23.60
23.07
22.55
21.98
21.22
20.08
18.46
16.48
14.42
12.57
11.05
9.71
8.17
6.07
3.23
-0.15
-3.67
-6.89
-9.59
-11.89
-14.12
-16.71
-20.01
-24.10
-28.82
-33.74
-38.28
-41.70
-43.39
-42.92
-40.24
-35.65
-29.71
-23.04
-16.15
-9.38
-2.96
2.95
8.19
12.63
16.26
19.16
21.47
23.34
24.80
25.83
26.36
26.45
26.25
26.00
25.90
25.94
25.98
25.75
25.09
23.93
22.42
20.71
18.95
17.22
15.51
13.86
12.24
10.63
8.91
6.93
4.58
1.86
-1.07
-3.99
-6.73
-9.26
-11.68
-14.20
-17.01
-20.25
-24.02
-28.31
-32.98
-37.57
-41.41
-43.67
-43.64
-41.06
-36.22
-29.88
-22.99
-16.37
-10.45
-5.29
-0.70
3.56
7.57
11.23
14.33
16.71
18.38
19.50
20.32
21.05
21.77
22.41
22.79
22.83
22.56
22.17
21.87
21.80
21.86
21.86
21.52
20.70
19.38
17.67
15.78
13.90
12.14
10.44
8.72
6.81
4.61
2.14
-0.47
-3.00
-5.35
-7.53
-9.78
-12.33
-15.36
-18.91
-22.84
-26.95
-31.00
-34.71
-37.71
-39.62
-40.07
-38.89
-36.21
-32.35
-27.78
-22.86
-17.80
-12.70
-7.63
-2.75
1.70
5.44
8.23
9.94
10.69
10.70
10.41
10.25
10.56
11.51
12.95
14.66
16.30
17.66
18.66
19.27
19.43
19.08
18.14
16.70
14.98
13.31
11.99
11.11
10.54
9.99
9.14
7.76
5.76
3.22
0.32
-2.74
-5.73
-8.55
-11.17
-13.78
-16.59
-19.87
-23.73
-28.04
-32.43
-36.29
-39.01
-40.03
-39.08
-36.20
-31.73
-26.25
-20.41
-14.80
-9.77
-5.51
-1.98
0.92
3.32
5.31
6.95
8.31
9.46
10.49
11.49
12.48
13.45
14.33
15.03
15.55
15.94
16.27
16.61
16.94
17.21
17.33
17.29
17.11
16.82
16.40
