1678194017.00
64.000000
-0.00
-0.00
-0.00
-0.00
-0.00
-0.00
-0.00
-0.00
-0.00
-0.00
0.00
0.01
0.01
-0.00
-0.03
-0.05
-0.05
0.00
0.13
0.36
0.66
1.01
1.37
1.72
2.06
2.40
2.79
3.24
3.80
4.42
5.06
5.66
6.20
6.68
7.15
7.68
8.31
9.14
10.09
11.04
11.88
12.56
13.14
13.76
14.65
15.96
17.91
20.32
22.90
25.38
27.58
29.57
31.68
34.32
37.81
42.54
48.15
54.10
59.83
64.97
69.58
74.14
79.34
85.71
93.76
103.00
112.62
121.73
129.77
136.75
143.30
150.75
157.77
166.64
177.95
191.79
206.97
220.57
228.25
225.36
208.53
176.87
132.76
80.05
23.07
-34.94
-92.44
-149.16
-205.23
-260.37
-313.74
-363.87
-409.83
-450.91
-486.50
-515.74
-537.23
-549.22
-549.96
-538.37
-514.21
-478.67
-433.88
-382.45
-327.02
-269.84
-212.63
-156.66
-102.95
-52.37
-5.90
35.58
71.43
101.35
125.50
144.38
158.69
169.15
176.37
180.75
182.57
182.07
179.51
175.23
169.65
163.18
156.15
148.81
141.30
133.69
126.02
118.33
110.69
103.16
95.80
88.68
81.83
75.25
68.95
62.95
57.25
51.86
46.78
42.03
37.59
33.45
29.61
26.07
22.81
19.83
17.11
14.67
12.48
10.54
8.83
7.35
6.07
4.97
4.05
3.27
2.62
2.09
1.65
1.30
1.01
0.79
0.61
0.47
0.37
0.29
0.23
0.19
0.16
0.15
0.14
0.15
0.17
0.19
0.22
0.25
0.29
0.34
0.38
0.42
0.47
0.52
0.57
0.62
0.67
0.73
0.79
0.86
0.93
1.01
1.10
1.20
1.31
1.44
1.58
1.73
1.91
2.10
2.32
2.56
2.82
3.11
3.44
3.79
4.17
4.59
5.05
5.54
6.07
6.65
7.26
7.92
8.62
9.37
10.17
11.01
11.90
12.82
13.80
14.84
15.94
17.10
18.33
19.61
20.91
22.20
23.40
24.42
25.12
25.41
25.11
24.15
22.44
19.98
16.77
12.90
8.54
3.88
-0.84
-5.41
-9.59
-13.19
-16.09
-18.21
-19.52
-20.05
-19.91
-19.24
-18.15
-16.77
-15.22
-13.54
-11.79
-10.02
-8.19
-6.34
-4.51
-2.71
-0.93
0.87
2.75
4.76
6.99
9.48
12.11
14.78
17.44
20.07
22.67
25.28
27.99
30.89
34.09
37.36
40.58
43.66
46.62
49.56
52.71
56.29
60.52
65.60
71.08
76.55
81.76
86.56
91.01
95.34
99.88
104.86
110.39
115.66
119.95
122.61
123.24
121.70
117.97
111.72
101.73
90.65
78.58
65.05
49.49
31.74
12.16
-8.46
-29.13
-49.03
-67.71
-85.86
-104.26
-123.78
-145.29
-169.45
-196.20
-224.26
-250.87
-271.98
-283.95
-284.26
-272.71
-251.66
-225.19
-197.58
-171.86
-149.20
-129.34
-111.83
-96.48
-83.62
-73.66
-66.58
-61.63
-57.47
-52.92
-47.45
-41.45
-35.96
-32.02
-30.20
-30.38
-31.90
-33.80
-35.05
-34.74
-32.26
-27.35
-20.09
-11.07
-1.12
8.86
18.24
26.65
33.96
40.08
44.75
47.67
48.69
48.02
46.24
44.10
42.27
41.07
40.44
40.02
39.33
38.03
35.99
33.33
30.47
27.93
26.12
25.22
25.00
24.91
24.27
22.58
19.67
15.79
11.46
7.26
3.52
0.21
-2.99
-6.50
-10.70
-15.64
-21.18
-26.92
-32.31
-36.73
-39.53
-40.09
-38.01
-33.17
-25.85
-16.68
-6.57
3.57
13.04
21.34
28.23
33.58
37.33
39.47
40.11
39.51
38.07
36.26
34.52
33.10
32.00
31.06
30.08
28.91
27.51
25.95
24.32
22.64
20.86
18.89
16.65
14.11
11.27
8.21
4.95
1.47
-2.26
-6.35
-10.89
-15.93
-21.37
-26.91
-31.94
-35.67
-37.24
-35.98
-31.67
-24.57
-15.44
-5.23
5.09
14.78
23.28
30.18
35.19
38.09
38.88
37.80
35.44
32.49
29.56
26.97
24.71
22.55
20.28
17.91
15.64
13.83
12.65
12.07
11.75
11.19
9.99
7.88
4.93
1.36
-2.53
-6.50
-10.54
-14.78
-19.54
-25.15
-31.82
-39.46
-47.56
-55.29
-61.50
-65.09
-65.22
-61.53
-54.29
-44.28
-32.57
-20.26
-8.28
2.79
12.58
20.89
27.60
32.69
36.25
38.62
40.28
41.73
43.27
44.90
46.33
47.24
47.35
46.68
45.46
44.05
42.71
41.47
40.08
38.09
35.00
30.46
24.42
17.17
9.22
1.21
-6.36
-13.23
-19.43
-25.27
-31.18
-37.63
-44.87
-52.82
-60.88
-67.98
-72.77
-74.00
-71.01
-63.88
-53.47
-41.07
-27.89
-14.85
-2.37
9.29
19.91
29.07
36.26
41.13
43.73
44.56
44.35
43.75
43.06
42.22
40.96
39.17
37.00
34.87
33.22
32.25
31.85
31.49
30.57
28.56
25.24
20.74
15.43
9.82
4.33
-0.81
-5.51
-9.91
-14.20
-18.58
-23.29
-28.57
-34.61
-41.45
-48.75
-55.78
-61.40
-64.34
-63.63
-58.87
-50.44
-39.36
-26.92
-14.42
-2.78
7.45
16.04
22.88
27.95
31.29
33.18
34.13
34.91
36.23
38.44
41.35
44.24
46.14
46.29
44.45
41.00
36.67
32.18
27.96
24.00
20.03
15.79
11.18
6.28
1.25
-3.76
-8.71
-13.59
-18.44
-23.29
-28.16
-33.12
-38.20
-43.39
-48.45
-52.82
-55.62
-55.86
-52.70
-45.76
-35.31
-22.24
-7.84
6.53
19.67
30.75
39.30
45.24
48.66
49.86
49.23
47.28
44.45
41.17
37.78
34.52
31.57
29.14
27.39
26.41
26.16
26.42
26.78
26.69
25.69
23.51
20.12
15.76
10.81
5.62
0.46
-4.65
-9.81
-15.27
-21.28
-27.96
-35.12
-42.19
-48.24
-52.08
-52.59
-49.09
-41.61
-30.98
-18.53
-5.79
6.04
16.23
24.59
31.17
36.05
39.30
40.94
41.16
40.31
38.86
37.20
35.45
33.53
31.22
28.42
25.22
21.94
18.88
16.16
13.59
10.77
7.29
2.91
-2.25
-7.76
-13.06
-17.72
-21.65
-25.11
-28.63
-32.85
-38.16
-44.66
-51.90
-58.97
-64.63
-67.63
-66.97
-62.30
-53.97
-42.91
-30.33
-17.42
-5.02
6.36
16.49
25.14
32.16
37.40
40.81
42.56
42.94
42.37
41.22
39.79
38.26
36.66
35.00
33.29
31.57
29.90
28.37
26.98
25.60
24.05
22.11
19.65
16.68
13.30
9.69
5.96
2.16
-1.72
-5.65
-9.59
-13.49
-17.34
-21.13
-24.79
-28.00
-29.99
-29.59
-25.38
-16.07
-0.87
20.20
46.34
76.00
107.21
137.71
165.34
188.28
205.44
216.73
223.19
226.79
229.97
235.05
243.56
255.72
270.30
284.80
296.15
301.60
299.67
290.65
276.55
260.37
245.08
232.71
223.85
217.72
212.62
206.56
197.83
185.36
168.93
149.09
127.10
104.51
82.83
63.22
46.23
31.83
19.58
8.83
-1.06
-10.59
-20.14
-29.86
-39.91
-50.40
-61.51
-73.42
-86.36
-100.52
-115.90
-132.51
-150.21
-168.81
-188.02
-207.66
-227.74
-248.75
-271.83
-298.21
-328.50
-361.58
-394.37
-422.30
-440.81
-447.22
-441.78
-427.53
-408.95
-390.15
-373.57
-359.61
-347.48
-336.20
-325.24
-314.29
-302.85
-289.79
-273.89
-254.73
-233.57
-213.30
-197.20
-187.31
-183.28
-182.57
-181.85
-178.94
-173.88
-168.44
-164.53
-162.46
-160.32
-154.70
-142.44
-122.14
-94.63
-62.34
-27.97
6.50
40.16
72.82
104.31
134.02
160.83
183.46
200.91
212.88
219.83
222.90
223.51
222.99
222.31
221.82
221.33
220.34
218.35
215.15
211.05
206.62
202.47
198.94
195.89
192.82
189.14
184.52
179.09
173.34
167.86
162.78
157.63
151.29
142.46
130.24
114.67
96.82
78.52
61.80
48.23
38.80
33.74
32.70
34.96
39.44
44.69
49.15
51.40
50.46
46.04
38.36
27.90
15.12
0.29
-16.31
-34.15
-52.27
-69.27
-83.84
-95.09
-102.98
-108.18
-111.81
-114.90
-117.98
-120.93
-123.17
-124.01
-123.04
-120.29
-116.21
-111.36
-106.17
-100.76
-94.96
-88.50
-81.15
-73.01
-64.51
-56.19
-48.63
-42.17
-36.87
-32.54
-28.87
-25.43
-21.87
-17.86
-13.20
-7.83
-1.88
4.38
10.62
16.57
22.00
26.70
30.33
32.51
32.89
31.43
28.53
25.12
22.35
21.19
22.16
25.01
29.08
33.54
37.93
42.33
47.12
52.58
58.42
63.65
66.90
66.94
62.99
54.84
42.59
26.40
6.65
-16.15
-40.66
-64.88
-86.54
-104.13
-117.34
-126.95
-134.11
-139.62
-143.80
-146.57
-148.06
-149.10
-150.94
-154.51
-159.47
-164.02
-165.78
-163.66
-158.37
-152.21
-147.85
-147.03
-149.80
-154.66
-159.48
-162.60
-164.57
-166.15
-167.30
-167.25
-165.70
-163.64
-162.81
-164.71
-169.35
-177.57
-188.18
-198.39
-205.45
-208.53
-208.89
-208.17
-206.66
-202.89
-198.88
-196.04
-194.46
-193.36
-192.46
-192.04
-191.53
-189.05
-182.24
-175.32
-172.93
-177.34
-187.65
-201.63
-217.24
-232.93
-247.73
-226.25
-154.71
-46.37
67.47
160.37
222.80
258.03
274.32
279.50
277.15
266.38
245.64
216.78
185.33
157.40
137.12
126.39
125.79
133.21
142.14
147.50
148.37
147.75
149.59
156.42
168.93
186.56
208.36
231.24
253.13
274.11
295.27
316.57
335.85
349.89
356.16
354.06
344.03
328.05
309.08
290.00
272.59
257.49
244.96
235.22
228.06
221.77
213.21
198.92
176.62
146.57
111.86
77.51
48.52
27.51
13.93
4.58
-4.19
-14.33
-25.12
-33.62
-36.71
-32.86
-22.98
-9.79
3.50
14.51
22.25
26.71
28.24
27.00
23.13
17.11
10.17
4.09
0.57
0.34
2.75
6.07
8.38
8.59
7.10
5.59
6.25
10.66
19.06
30.20
41.89
51.82
58.32
60.69
59.14
54.72
49.08
44.27
42.32
44.77
52.15
63.50
76.83
89.63
99.86
106.55
109.69
109.90
108.00
104.73
100.76
96.88
94.12
93.31
94.71
97.30
98.81
96.99
90.28
78.28
61.84
42.77
23.41
6.40
-5.97
-12.27
-11.50
-3.48
10.63
28.44
46.98
63.37
75.87
83.42
85.44
82.69
76.92
70.44
65.73
64.97
67.00
71.86
81.42
93.25
103.28
108.49
107.08
98.75
84.21
64.70
41.60
15.38
-14.65
-48.95
-87.45
-129.68
-174.50
-219.86
-262.81
-299.45
-326.27
-341.21
-343.85
-335.69
-319.73
-299.35
-277.00
-253.57
-228.67
-201.89
-174.31
-148.69
-129.31
-120.76
-125.79
-143.53
-168.94
-193.98
-210.65
-214.11
-204.36
-185.97
-165.89
-150.50
-143.62
-145.75
-154.63
-166.51
-177.03
-182.19
-179.03
-166.66
-146.61
-122.47
-98.49
-77.80
-61.24
-47.42
-33.78
-17.99
0.98
22.68
45.54
67.39
86.10
99.81
107.43
109.00
105.73
99.85
93.89
90.11
89.82
93.21
99.36
106.58
112.82
116.18
115.52
110.55
102.01
91.27
79.88
69.06
59.40
50.92
43.19
35.67
27.95
20.11
12.82
7.22
4.63
6.20
12.42
22.93
36.61
51.91
67.30
81.66
94.50
106.01
116.79
127.59
138.89
150.69
162.38
172.84
180.82
185.41
186.45
184.68
181.63
179.05
178.37
180.12
183.82
187.94
190.36
188.89
181.96
169.33
152.71
135.83
123.37
119.23
124.23
134.76
143.28
140.58
119.22
76.34
14.52
-59.62
-138.25
-214.92
-285.62
-348.15
-400.72
-441.12
-467.12
-477.55
-473.08
-456.11
-429.89
-397.55
-361.63
-324.54
-288.86
-257.19
-231.28
-211.09
-194.58
-178.86
-161.87
-143.46
-125.01
-108.00
-92.74
-78.14
-62.74
-45.96
-28.58
-12.02
3.01
17.44
33.60
53.72
78.14
104.61
128.98
147.22
157.21
159.75
157.84
155.24
154.87
157.83
163.49
170.30
176.96
183.21
189.96
198.66
210.28
224.08
237.14
244.79
242.04
225.51
195.05
154.20
108.97
65.58
28.36
-1.40
-24.82
-43.84
-59.54
-71.62
-79.11
-81.64
-80.37
-77.73
-76.43
-78.15
-82.97
-89.54
-95.91
-100.45
-102.48
-102.43
-101.46
-100.96
-102.10
-105.39
-110.51
-116.40
-121.44
-124.06
-123.07
-118.03
-109.27
-97.63
-84.11
-69.58
-54.65
-39.86
-25.74
-12.93
-2.04
6.50
12.60
16.60
19.10
20.82
22.26
23.60
24.71
25.31
25.18
24.30
22.92
21.37
19.98
18.96
18.24
17.61
16.73
15.31
13.23
10.55
7.54
4.58
1.94
-0.33
-2.46
-4.87
-8.04
-12.36
-17.80
-24.05
-30.40
-35.91
-39.50
-40.13
-37.07
-30.15
-19.98
-7.76
4.94
16.68
26.60
34.42
40.45
45.10
48.64
51.14
52.48
52.58
51.43
49.10
45.68
41.30
36.05
30.24
24.32
18.78
14.03
10.20
7.14
4.41
1.55
-1.80
-5.59
-9.54
-13.02
-15.41
-16.24
-15.38
-13.25
-10.66
-8.64
-8.08
-9.28
-11.74
-14.20
-15.03
-12.87
-7.11
1.83
12.66
23.80
33.86
42.03
48.06
52.13
54.47
55.20
54.36
52.10
48.70
44.75
40.91
37.73
35.44
33.93
32.84
31.81
30.63
29.38
28.29
27.66
27.61
28.13
29.01
30.02
30.98
31.83
32.58
33.21
33.67
33.84
33.49
32.31
30.00
26.36
21.46
15.72
9.89
4.81
1.16
-0.77
-1.21
-0.69
0.26
1.38
2.76
4.61
6.94
9.39
11.23
11.79
10.74
8.31
5.20
2.23
-0.04
-1.48
-2.34
-3.04
-3.84
-4.79
-5.74
-6.51
-7.04
-7.41
-7.80
-8.36
-9.11
-10.03
-11.06
-12.20
-13.63
-15.59
-18.31
-21.87
-26.07
-30.51
-34.53
-37.42
-38.59
-37.65
-34.49
-29.35
-22.73
-15.30
-7.78
-0.82
5.11
9.75
13.06
15.10
16.06
16.18
15.61
14.51
12.99
11.09
8.86
6.41
3.91
1.56
-0.47
-2.09
-3.40
-4.61
-5.93
-7.58
-9.60
-11.97
-14.68
-17.72
-21.14
-25.04
-29.52
-34.49
-39.70
-44.72
-48.89
-51.46
-51.68
-49.09
-43.61
-35.65
-25.93
-15.37
-4.75
5.33
14.50
22.54
29.26
34.53
38.17
40.17
40.59
39.61
37.48
34.46
30.85
26.94
23.05
19.43
16.23
13.40
10.68
7.81
4.55
0.85
-3.12
-7.03
-10.60
-13.66
-16.24
-18.51
-20.70
-23.04
-25.64
-28.55
-31.57
-34.34
-36.25
-36.68
-35.12
-31.41
-25.86
-19.18
-12.19
-5.52
0.52
6.02
11.21
16.15
20.66
24.27
26.37
26.52
24.62
20.99
16.36
11.68
7.93
5.87
5.80
7.47
10.13
12.69
14.16
13.87
11.75
8.35
4.48
0.89
-2.02
-4.42
-6.89
-10.24
-15.11
-21.78
-29.97
-38.84
-47.21
-53.76
-57.37
-57.39
-53.78
-47.07
-38.21
-28.35
-18.53
-9.59
-2.06
3.83
7.99
10.52
11.62
11.53
10.55
8.93
6.89
4.59
2.15
-0.27
-2.59
-4.75
-6.81
-8.99
-11.57
-14.79
-18.78
-23.37
-28.18
-32.69
-36.45
-39.28
-41.37
-43.41
-46.23
-50.74
-57.55
-66.72
-77.71
-89.36
-100.08
-108.15
-112.23
-111.54
-106.24
-97.27
-86.06
-73.96
-61.87
-49.96
-37.70
-24.25
-8.84
8.57
27.16
44.97
59.61
69.13
72.88
72.01
68.89
66.03
64.77
64.75
64.38
61.91
56.59
49.07
41.05
34.40
30.45
29.71
32.07
36.73
42.23
46.47
47.27
43.31
35.23
26.07
20.53
23.05
35.75
57.30
83.50
108.82
128.64
140.51
144.33
141.79
134.85
124.96
112.90
99.26
84.89
70.97
58.52
47.85
38.63
29.41
18.23
3.50
-14.96
-35.55
-55.36
-71.39
-81.83
-85.69
-84.11
-79.73
-75.27
-71.99
-69.10
-64.54
-56.28
-43.17
-22.39
7.88
47.71
94.93
145.48
194.22
235.93
266.69
285.09
296.66
307.71
321.67
337.39
350.52
356.80
354.24
343.90
328.94
318.04
316.78
324.88
336.83
346.03
348.88
345.99
340.72
308.85
240.01
140.61
31.67
-66.22
-143.63
-200.87
-241.93
-268.50
-285.92
-292.50
-287.61
-274.38
-259.79
-251.75
-256.20
-274.29
-304.48
-342.93
-379.16
-402.31
-404.23
-382.04
-338.46
-280.78
-219.05
-163.51
-121.71
-93.48
-74.83
-61.16
-49.80
-40.58
-34.71
-33.37
-36.89
-44.34
-52.54
-58.66
-61.37
-61.14
-59.29
-57.18
-55.87
-56.36
-59.61
-65.74
-74.25
-83.84
-92.46
-97.61
-96.95
-89.32
-75.22
-57.21
-39.35
-26.13
-20.95
-24.66
-35.37
-49.10
-61.39
-68.63
-68.94
-62.56
-51.29
-37.59
-24.02
-12.96
-6.26
-4.69
-6.95
-9.72
-9.00
-1.88
11.91
30.03
48.51
65.12
77.62
85.87
92.31
99.54
108.27
117.02
123.76
127.09
126.77
123.27
117.08
108.71
98.15
86.10
72.34
57.48
42.47
28.05
14.29
0.08
-15.66
-33.82
-54.16
-74.78
-92.32
-103.38
-106.38
-98.19
-80.74
-58.59
-37.13
-20.27
-9.38
-3.50
-1.01
-0.87
-2.90
-7.68
-12.72
-15.36
-14.04
-9.50
-4.22
-1.06
-1.88
-6.60
-13.97
-21.70
-27.75
-30.93
-30.56
-26.34
-18.53
-8.39
1.88
9.43
11.61
8.19
0.65
-8.03
-14.26
-15.25
-10.16
-0.09
12.32
24.26
33.65
39.43
41.72
41.32
39.22
36.25
33.14
30.42
28.48
27.75
28.25
29.71
31.61
33.15
33.54
32.13
28.67
23.33
16.69
9.42
2.21
-4.52
-10.64
-16.32
-21.85
-27.47
-33.33
-39.15
-44.55
-48.89
-51.43
-51.41
-48.24
-41.76
-32.26
-20.41
-7.22
6.27
19.15
30.65
40.17
47.24
51.51
52.72
50.91
46.41
39.89
32.28
24.53
17.47
11.60
7.07
3.75
1.40
-0.27
-1.59
-2.89
-4.53
-6.96
-10.43
-14.95
-20.17
-25.54
-30.53
-34.77
-38.28
-41.33
-44.24
-47.21
-50.19
-52.81
-54.47
-54.54
-52.49
-48.11
-41.55
-33.36
-24.42
-15.72
-8.17
-2.39
1.30
2.99
3.06
1.93
0.13
-1.91
-3.73
-4.99
-5.40
-4.90
-3.66
-2.15
-0.96
-0.66
-1.50
-3.41
-6.10
-9.14
-12.21
-15.08
-17.78
-20.39
-23.07
-26.04
-29.51
-33.69
-38.59
-43.97
-49.11
-53.01
-54.49
-52.68
-47.31
-38.88
-28.49
-17.54
-7.22
1.63
8.72
14.08
17.88
20.28
21.35
21.23
20.21
18.70
17.29
16.42
16.23
16.46
16.48
15.64
13.49
10.08
5.96
2.04
-0.79
-2.02
-1.66
-0.34
0.96
1.26
-0.17
-3.51
-8.46
-14.29
-20.03
-24.66
-27.22
-27.02
-23.76
-17.65
-9.38
0.03
9.40
17.80
24.66
29.80
33.32
35.39
36.11
35.56
33.81
31.10
27.81
24.43
21.34
18.76
16.62
14.73
12.86
10.90
8.86
6.86
5.02
3.38
1.87
0.31
-1.60
-4.12
-7.49
-11.74
-16.70
-21.92
-26.73
-30.28
-31.76
-30.57
-26.52
-19.95
-11.67
-2.80
5.47
12.14
16.63
18.83
19.10
18.08
16.51
14.98
13.74
12.68
11.46
9.70
7.33
4.64
2.21
0.66
0.34
1.02
1.97
2.18
0.78
-2.51
-7.11
-11.69
-14.70
-15.01
-12.56
-8.50
-4.77
-3.35
-5.30
-10.07
-15.32
-17.23
-11.04
7.91
43.04
94.94
160.15
231.01
297.15
348.23
377.32
382.89
368.85
342.32
310.50
278.22
247.18
216.77
185.73
153.15
118.61
81.77
42.25
0.09
-43.51
-85.79
-123.07
-152.09
-171.26
-181.32
-184.91
-185.41
-185.79
-187.80
-191.68
-196.39
-199.92
-199.88
-194.14
-181.51
-162.12
-137.35
-109.42
-80.47
-51.90
-24.08
3.56
31.87
61.19
90.56
117.71
139.59
153.34
157.56
152.85
141.64
127.25
112.62
99.52
88.28
78.34
68.80
58.97
48.58
37.76
27.06
17.45
10.09
5.97
5.54
8.25
12.67
16.92
19.30
18.83
15.39
9.52
2.04
-6.42
-15.52
-25.27
-35.84
-47.53
-60.66
-75.50
-91.98
-109.41
-126.33
-140.79
-150.89
-155.49
-154.57
-149.30
-141.44
-132.61
-123.86
-115.57
-107.81
-100.66
-94.36
-89.33
-85.68
-83.00
-80.20
-75.57
-67.07
-52.90
-31.99
-4.66
27.20
60.50
91.83
118.56
139.72
156.00
169.03
180.09
189.14
194.72
194.26
184.86
164.00
130.40
85.06
31.95
-21.97
-67.75
-96.82
-103.72
-88.06
-54.87
-12.79
28.73
61.95
82.28
88.23
80.85
62.86
37.99
10.18
-16.79
-40.05
-58.27
-71.88
-82.52
-92.25
-102.65
-114.19
-126.52
-138.31
-147.56
-152.53
-152.42
-147.59
-139.11
-128.13
-115.18
-101.03
-85.85
-69.30
-50.88
-30.58
-9.05
12.30
31.19
44.86
49.55
42.92
25.65
1.64
-23.26
-43.32
-54.88
-57.68
-48.65
-29.61
-6.35
14.60
29.58
38.02
40.54
37.73
29.29
17.14
3.31
-9.65
-19.53
-25.47
-28.47
-30.70
-32.18
-32.95
-31.94
-28.52
-22.30
-13.24
-1.88
10.70
23.23
34.66
44.12
51.35
55.79
57.21
55.83
52.28
47.34
41.71
36.07
30.81
26.42
23.05
20.78
19.58
19.22
19.18
18.70
17.08
13.73
8.67
2.22
-5.11
-12.83
-20.71
-28.88
-37.62
-46.97
-56.56
-65.32
-71.76
-74.48
-72.57
-65.97
-55.56
-42.86
-29.52
-16.94
-5.94
3.27
10.80
16.85
21.43
24.39
25.52
24.83
22.69
19.83
17.12
15.21
14.31
14.06
13.74
12.64
10.40
7.07
3.09
-1.04
-5.02
-8.90
-13.02
-17.78
-23.42
-29.93
-36.98
-43.96
-50.15
-54.77
-57.22
-57.17
-54.68
-50.16
-44.30
-37.85
-31.50
-25.67
-20.46
-15.70
-11.03
-6.12
-0.75
4.93
10.54
15.56
19.56
22.32
23.85
24.25
23.59
21.85
18.96
14.93
9.93
4.39
-1.21
-6.40
-10.90
-14.69
-18.00
-21.30
-25.06
-29.54
-34.65
-39.75
-43.82
-45.69
-44.48
-39.86
-32.14
-22.25
-11.35
-0.52
9.40
17.90
24.74
29.75
32.86
34.08
33.71
32.27
30.48
29.03
28.37
28.56
29.19
29.76
29.77
28.98
27.50
25.66
23.78
22.07
20.50
18.93
17.12
14.84
11.92
8.16
3.42
-2.33
-8.92
-15.78
-21.94
-26.16
-27.24
-24.44
-17.79
-8.16
3.00
14.12
23.91
31.71
37.45
41.40
43.97
45.46
46.01
45.75
44.82
43.52
42.17
41.06
40.24
39.57
38.71
37.39
35.46
33.02
30.38
27.85
25.62
23.67
21.82
19.81
17.45
14.62
11.23
7.20
2.40
-3.22
-9.41
-15.52
-20.45
-23.01
-22.25
-17.93
-10.63
-1.65
7.48
15.52
21.76
26.15
29.05
30.83
31.80
32.04
31.62
30.64
29.34
27.95
26.76
25.98
25.65
25.69
25.87
25.83
25.21
23.82
21.77
19.43
17.25
15.54
14.30
13.13
11.54
9.03
5.36
0.48
-5.41
-11.95
-18.56
-24.39
-28.42
-29.77
-27.87
-22.82
-15.33
-6.52
2.45
10.64
17.45
22.60
26.07
27.97
28.57
28.16
27.11
25.76
24.41
23.25
22.38
21.79
21.30
20.62
19.48
17.61
14.96
11.56
7.66
3.56
-0.46
-4.16
-7.44
-10.30
-12.89
-15.46
-18.27
-21.56
-25.41
-29.69
-33.95
-37.48
-39.44
-39.05
-35.79
-29.72
-21.46
-12.13
-2.97
4.91
10.87
14.78
16.92
17.75
17.68
17.00
15.84
14.29
12.52
10.78
9.32
8.37
7.99
8.00
8.07
7.86
7.13
5.86
4.19
2.37
0.55
-1.22
-3.08
-5.21
-7.78
-10.83
-14.27
-17.88
-21.38
-24.32
-26.17
-26.32
-24.24
-19.75
-13.15
-5.24
2.87
10.15
15.87
19.70
21.70
22.12
21.16
19.02
15.98
12.44
8.96
6.15
4.40
3.74
3.77
3.94
3.70
2.82
1.45
-0.10
-1.50
-2.68
-3.72
-4.88
-6.35
-8.22
-10.51
-13.18
-16.26
-19.83
-23.84
-27.97
-31.53
-33.62
-33.51
-31.00
-26.30
-20.13
-13.41
-7.13
-1.97
1.75
3.99
4.85
4.46
3.22
1.58
-0.16
-1.90
-3.73
-5.77
-8.17
-11.00
-14.38
-17.57
-19.97
-21.43
-22.43
-23.62
-25.18
-26.80
-27.87
-27.98
-25.53
-19.62
-10.74
-0.84
7.71
13.36
15.71
15.38
13.36
13.35
18.55
30.34
47.57
67.75
88.65
108.77
127.38
144.17
162.81
187.22
219.73
259.80
304.95
352.52
400.32
446.88
469.03
450.07
386.99
294.17
193.40
101.41
25.65
-33.17
-77.01
-108.68
-127.65
-133.85
-128.65
-117.62
-106.90
-100.67
-100.53
-105.34
-112.49
-116.36
-112.38
-99.27
-80.13
-61.35
-47.09
-40.55
-42.46
-51.39
-63.13
-73.72
-81.12
-86.09
-91.92
-101.16
-114.73
-131.82
-151.07
-170.62
-189.04
-205.45
-219.82
-233.93
-248.51
-262.91
-275.33
-284.06
-287.80
-286.09
-279.17
-268.54
-258.34
-251.30
-247.55
-244.74
-239.83
-230.44
-215.82
-196.73
-161.55
-109.01
-47.19
11.61
59.10
93.83
118.62
135.72
149.88
164.19
178.48
192.80
207.90
224.83
242.33
258.12
269.97
276.81
278.20
272.62
259.87
241.41
219.99
198.38
178.73
162.00
148.31
137.00
126.73
117.60
111.34
110.02
114.24
122.37
130.79
135.25
131.86
118.04
93.66
60.98
23.88
-13.28
-46.58
-73.16
-91.53
-101.77
-105.29
-104.11
-100.21
-95.20
-90.13
-85.45
-81.16
-76.87
-72.02
-66.03
-58.44
-49.09
-38.31
-26.82
-15.70
-6.28
0.12
2.42
0.13
-6.41
-16.01
-26.80
-36.86
-44.77
-49.93
-52.65
-53.76
-54.20
-54.74
-55.90
-58.02
-61.40
-66.13
-72.07
-78.58
-84.54
-88.77
-90.34
-88.93
-85.06
-79.82
-74.51
-70.09
-66.95
-64.84
-63.14
-61.28
-59.07
-56.83
-55.21
-54.86
-56.19
-59.27
-64.02
-70.24
-77.65
-85.62
-93.03
-98.42
-100.25
-97.47
-89.92
-78.46
-64.85
-51.23
-39.85
-32.53
-30.37
-33.54
-41.20
-51.62
-62.52
-71.43
-76.00
-74.29
-64.77
-46.41
-19.04
16.34
57.30
100.04
139.90
172.17
193.04
200.48
194.60
177.62
153.31
125.92
99.21
75.54
55.63
38.89
24.19
10.67
-1.93
-13.15
-22.35
-29.04
-33.15
-34.98
-35.05
-34.08
-33.07
-33.30
-35.99
-41.64
-49.29
-56.24
-58.58
-52.50
-35.74
-8.60
26.16
64.42
102.32
137.42
168.96
197.12
221.95
242.37
256.13
260.67
254.37
237.65
213.38
186.13
160.79
140.96
127.92
120.90
117.90
116.85
116.38
115.83
114.94
113.09
109.03
100.80
86.60
65.58
38.28
6.31
-28.09
-62.47
-94.40
-121.63
-142.64
-156.25
-161.90
-159.96
-152.03
-140.71
-128.76
-118.19
-109.69
-103.96
-100.37
-97.15
-92.16
-84.18
-73.65
-62.26
-52.18
-45.10
-44.26
-50.61
-62.11
-75.02
-86.45
-96.11
-105.79
-117.80
-133.31
-155.88
-185.82
-219.60
-251.68
-277.95
-297.59
-311.89
-322.49
-330.17
-340.57
-357.12
-379.17
-402.58
-422.72
-436.97
-444.53
-445.86
-407.91
-318.61
-191.92
-59.62
51.53
131.83
184.20
216.55
236.74
251.14
258.56
258.22
252.50
245.24
241.94
244.93
253.97
267.81
285.62
302.23
313.88
319.73
321.48
321.10
319.05
315.38
306.80
292.79
271.56
242.91
208.76
172.26
136.18
101.52
68.17
35.84
5.13
-24.33
-52.26
-77.40
-98.08
-112.98
-121.87
-125.25
-123.85
-117.91
-108.24
-95.73
-81.28
-65.86
-50.64
-37.03
-26.14
-18.33
-12.47
-6.45
2.32
16.04
35.43
59.25
84.32
106.40
121.62
127.71
124.42
113.19
96.20
75.48
52.34
27.43
1.21
-25.64
-51.97
-76.32
-97.29
-113.80
-125.18
-131.23
-132.15
-128.49
-121.13
-111.19
-99.82
-88.00
-76.48
-65.78
-56.33
-48.39
-42.07
-37.13
-33.01
-28.96
-24.39
-19.21
-13.73
-8.64
-4.61
-2.09
-1.20
-1.86
-3.91
-7.14
-11.37
-16.32
-21.72
-27.37
-33.30
-39.80
-47.28
-56.09
-66.27
-77.52
-89.14
-100.26
-109.89
-117.22
-121.64
-123.00
-121.60
-118.23
-113.97
-109.95
-107.07
-105.73
-105.85
-107.02
-108.77
-110.75
-112.82
-115.07
-117.71
-120.74
-123.85
-126.24
-126.75
-124.26
-117.99
-107.86
-94.37
-78.42
-61.00
-42.96
-24.94
-7.43
9.39
25.66
42.14
59.99
80.49
104.46
131.90
161.74
192.29
221.60
248.00
270.39
288.31
301.85
311.44
317.69
321.05
321.80
319.83
314.77
306.16
293.68
277.36
257.71
235.69
212.46
189.16
166.61
145.24
124.97
105.49
86.44
67.50
48.55
29.53
10.60
-8.10
-26.30
-43.61
-59.62
-73.87
-85.94
-95.31
-101.43
-103.67
-101.54
-94.96
-84.53
-71.49
-57.59
-44.59
-33.91
-26.32
-21.82
-19.90
-19.77
-20.67
-21.83
-22.65
-22.55
-21.05
-17.96
-13.50
-8.38
-3.57
0.02
1.89
2.06
0.99
-0.71
-2.62
-4.59
-6.80
-9.53
-13.12
-17.85
-23.76
-30.59
-37.64
-43.95
-48.43
-50.20
-48.90
-44.68
-38.19
-30.27
-21.74
-13.19
-5.09
2.38
9.08
15.01
20.22
24.83
29.00
32.92
36.76
40.61
44.43
47.96
50.74
52.30
52.37
50.91
48.28
45.00
41.51
37.96
34.01
29.01
22.19
12.95
1.17
-12.72
-27.72
-42.33
-54.89
-63.85
-68.13
-67.42
-62.19
-53.52
-42.74
-31.04
-19.27
-8.01
2.37
11.52
19.11
24.86
28.69
30.80
31.53
31.20
29.98
27.76
24.17
18.65
10.62
-0.39
-14.51
-31.49
-50.58
-70.69
-90.60
-109.22
-125.87
-140.25
-152.40
-162.34
-169.85
-174.39
-175.26
-171.85
-164.03
-152.31
-137.65
-121.19
-103.93
-86.50
-69.09
-51.76
-34.48
-17.51
-1.19
14.08
28.23
41.60
54.99
69.40
85.69
104.14
124.39
145.49
166.16
185.23
201.93
215.88
227.02
235.33
240.65
242.63
240.87
235.16
225.68
212.95
197.73
180.81
162.77
144.13
125.41
107.31
90.74
76.51
65.16
56.59
49.99
44.18
37.95
30.45
21.43
11.02
-0.40
-12.46
-24.89
-37.36
-49.37
-60.28
-69.41
-76.36
-81.16
-84.37
-86.76
-89.09
-91.80
-94.97
-98.42
-102.02
-105.82
-110.08
-115.10
-121.03
-127.78
-134.93
-141.96
-148.43
-154.05
-158.63
-162.10
-164.36
-165.39
-165.36
-164.56
-163.41
-162.16
-160.89
-159.35
-157.16
-153.91
-149.40
-143.59
-136.62
-128.62
-119.63
-109.62
-98.46
-86.12
-72.66
-58.28
-43.37
-28.46
-14.12
-0.85
11.18
22.03
32.15
42.21
52.94
65.01
78.87
94.64
112.08
130.58
149.23
166.88
182.29
194.56
203.38
209.28
213.56
217.93
223.96
232.38
242.77
253.61
262.65
267.58
266.60
258.89
244.94
226.58
206.76
188.95
176.28
170.55
171.60
177.20
183.54
186.39
182.27
169.32
147.70
119.32
87.00
53.69
21.81
-6.99
-31.71
-51.83
-67.21
-78.10
-85.20
-89.71
-93.16
-97.23
-103.45
-112.75
-125.56
-141.61
-159.84
-178.28
-194.30
-205.14
-208.87
-205.00
-194.12
-177.97
-158.80
-138.66
-119.03
-100.87
-84.91
-71.77
-61.64
-52.63
-41.84
-26.36
-4.81
21.73
49.88
75.08
93.70
104.65
111.51
119.30
131.62
148.52
166.55
180.67
186.65
182.63
169.15
150.59
131.28
114.15
100.42
90.86
86.61
88.90
97.88
99.84
85.12
51.28
5.34
-41.46
-80.07
-106.24
-119.95
-123.17
-120.80
-114.36
-104.48
-91.90
-78.18
-65.09
-54.15
-46.69
-43.53
-45.61
-51.88
-61.03
-71.55
-81.87
-90.57
-96.59
-99.73
-100.96
-102.14
-103.96
-106.70
-110.28
-114.74
-120.44
-128.05
-138.26
-151.47
-167.33
-183.73
-197.72
-206.14
-206.60
-198.33
-182.42
-161.69
-139.72
-119.66
-102.78
-88.37
-74.43
-58.93
-41.06
-21.66
-2.66
14.09
27.89
39.55
50.63
62.18
73.75
83.20
87.65
84.87
74.25
56.88
34.96
11.04
-12.17
-31.71
-44.13
-46.06
-35.50
-13.05
17.35
49.40
76.52
94.02
100.49
97.38
87.56
73.89
58.35
42.51
28.29
18.44
15.99
22.94
38.74
59.73
79.77
92.00
91.30
76.11
49.23
17.12
-12.00
-30.67
-34.28
-22.24
2.05
32.60
62.72
86.84
101.52
105.70
100.01
86.00
65.63
41.10
15.09
-9.35
-29.12
-41.83
-46.50
-43.80
-35.71
-24.69
-12.78
-1.21
9.57
19.27
27.28
32.41
33.27
28.72
18.52
3.50
-14.50
-33.28
-50.70
-65.05
-75.12
-80.10
-79.59
-73.72
-63.41
-50.29
-36.46
-23.83
-13.72
-6.53
-2.10
-0.16
-0.61
-3.42
-8.22
-13.79
-18.11
-18.92
-14.67
-5.22
8.12
23.32
38.46
52.31
64.07
72.63
75.99
71.25
55.79
28.87
-6.85
-45.12
-77.37
-95.20
-93.19
-70.78
-32.53
13.33
57.39
91.46
110.39
112.67
100.11
76.90
48.68
21.33
0.10
-11.36
-11.50
-1.02
17.58
40.61
64.13
84.81
100.66
111.51
118.99
125.76
134.35
145.71
158.45
169.16
173.76
169.21
154.76
132.20
105.05
77.14
51.52
29.86
12.68
-0.24
-9.08
-13.80
-13.93
-9.10
0.58
13.99
28.84
42.07
50.60
52.15
45.78
31.89
12.05
-11.73
-37.36
-63.11
-87.94
-111.63
-134.50
-156.85
-178.12
-196.34
-208.36
-210.74
-201.17
-179.44
-147.55
-109.22
-68.99
-31.42
-0.41
21.07
31.57
31.60
23.73
12.08
1.06
-6.21
-9.10
-9.81
-12.46
-21.27
-38.55
-63.10
-90.00
-111.94
-121.64
-114.58
-90.80
-54.93
-14.45
22.89
51.46
68.87
75.72
74.43
68.01
59.38
51.02
45.21
43.75
47.67
56.68
69.03
81.75
91.62
96.15
94.29
86.49
74.22
59.30
43.17
26.66
9.97
-7.27
-25.71
-46.04
-68.61
-93.16
-118.68
-143.53
-165.99
-184.83
-199.64
-210.77
-218.75
-223.95
-226.42
-226.26
-224.06
-221.16
-219.46
-221.03
-227.18
-237.98
-252.01
-266.95
-280.33
-290.32
-296.38
-299.42
-301.85
-305.95
-312.41
-319.28
-322.13
-315.34
-294.14
-256.47
-204.05
-142.96
-80.85
-24.35
22.74
59.63
87.57
108.56
124.72
138.15
149.46
159.44
169.14
179.26
189.12
196.17
196.99
189.29
173.23
149.56
120.68
89.76
59.71
32.29
7.70
-14.76
-35.10
-40.05
-20.56
24.12
84.37
146.02
198.62
237.91
264.16
280.01
288.21
288.76
281.04
265.36
243.30
218.02
193.53
171.22
151.62
134.32
116.85
96.72
72.46
43.68
11.81
-20.62
-50.42
-73.93
-88.26
-93.45
-92.11
-84.30
-73.22
-61.91
-51.85
-42.61
-32.19
-18.68
-2.17
15.51
31.97
45.05
54.45
61.09
65.86
68.69
68.34
62.86
51.13
33.86
13.07
-8.22
-27.27
-42.43
-53.14
-59.04
-59.43
-52.96
-38.16
-14.90
14.85
46.57
73.97
91.00
94.29
84.53
66.38
46.55
30.64
21.11
15.64
10.08
0.12
-15.70
-35.08
-54.14
-69.94
-82.20
-92.13
-101.01
-108.82
-114.04
-114.69
-109.75
-100.66
-88.61
-75.50
-62.90
-51.47
-40.82
-29.65
-16.93
-2.52
12.67
27.32
40.17
50.98
61.06
70.07
79.73
92.10
108.42
128.11
148.37
164.45
171.31
165.46
146.49
117.85
85.17
54.21
29.10
11.36
0.23
-6.03
-9.13
-10.17
-9.67
-8.23
-6.86
-6.58
-8.00
-11.21
-15.82
-21.38
-27.71
-34.64
-41.97
-49.06
-54.78
-57.91
-57.74
-54.47
-49.25
-43.70
-39.23
-36.65
-36.08
-37.18
-39.47
-42.55
-46.22
-50.42
-55.06
-59.92
-64.57
-68.35
-70.33
-69.47
-64.79
-55.88
-43.05
-27.49
-10.98
4.69
18.29
29.46
38.64
46.59
53.84
60.37
65.74
69.49
71.51
72.32
72.79
73.71
75.33
77.28
78.68
78.51
75.89
70.29
61.68
50.65
38.35
26.28
15.88
7.78
1.21
-5.83
-15.86
-30.77
-50.82
-74.24
-97.82
-118.11
-132.73
-141.27
-145.35
-147.75
-150.97
-155.98
-161.69
-165.32
-163.62
-154.16
-136.11
-110.35
-78.92
-44.24
-8.41
27.03
61.15
93.42
123.58
151.58
177.48
201.32
222.94
241.98
257.94
270.44
279.17
283.92
284.45
280.57
272.08
258.98
241.52
220.17
195.59
168.50
139.57
109.25
77.78
45.24
11.85
-21.65
-53.95
-83.15
-107.19
-124.48
-134.37
-137.55
-135.96
-132.32
-129.57
-130.15
-135.32
-144.78
-156.60
-167.68
-174.67
-175.04
-167.83
-153.69
-134.35
-111.74
-87.46
-62.65
-38.37
-15.90
3.26
17.71
26.87
31.27
32.45
32.13
31.31
29.85
26.56
20.16
10.28
-1.99
-14.37
-24.20
-29.70
-30.58
-28.05
-24.13
-20.65
-18.60
-17.91
-17.79
-17.27
-15.57
-12.35
-7.61
-1.81
4.36
9.89
13.74
15.14
13.89
10.64
6.80
4.16
4.39
8.52
16.72
28.21
41.53
54.93
66.77
75.84
81.52
83.68
82.75
79.35
74.18
67.86
60.78
53.23
45.41
37.68
30.51
24.42
19.65
16.04
12.96
9.55
5.16
-0.35
-6.50
-12.41
-17.26
-20.60
-22.37
-22.90
-22.62
-22.14
-22.23
-23.83
-27.77
-34.33
-42.99
-52.53
-61.48
-68.81
-74.18
-77.85
-80.16
-80.91
-79.27
-74.11
-64.60
-50.71
-33.44
-14.41
4.54
21.96
36.97
49.12
58.14
63.78
65.91
64.80
61.25
56.59
52.31
49.41
47.93
46.82
44.47
39.67
32.24
23.05
13.68
5.53
-0.65
-5.17
-9.29
-14.79
-22.88
-34.22
-48.79
-65.95
-84.37
-101.94
-116.28
-125.40
-128.55
-125.53
-117.42
-106.55
-96.03
-88.55
-85.24
-85.31
-86.78
-87.32
-83.50
-72.82
-54.83
-31.73
-7.30
14.79
32.55
45.90
56.43
68.43
86.25
112.59
147.48
189.09
235.07
283.01
329.94
359.70
357.82
319.55
255.25
184.03
122.27
77.39
48.77
31.24
19.08
10.29
5.30
4.94
8.25
12.50
14.36
12.43
5.76
-5.04
-16.90
-26.62
-32.28
-34.21
-34.31
-35.34
-39.07
-46.36
-56.94
-68.94
-80.18
-89.37
-97.07
-101.11
-101.57
-99.01
-94.19
-87.93
-80.74
-73.23
-66.19
-60.53
-56.80
-55.29
-55.24
-55.29
-54.07
-50.77
-45.56
-39.61
-34.73
-32.55
-34.36
-40.19
-49.16
-59.88
-71.16
-82.40
-93.43
-104.25
-114.61
-124.30
-132.89
-140.14
-145.86
-149.83
-151.46
-149.58
-142.86
-130.24
-111.56
-87.53
-59.70
-30.36
-2.32
21.50
38.54
47.50
48.86
45.19
40.83
41.00
50.62
72.85
107.89
152.22
198.85
238.64
263.39
268.71
255.73
230.50
201.38
175.65
157.03
145.08
136.13
126.01
111.72
91.79
65.91
34.47
-1.07
-37.86
-71.69
-98.84
-116.58
-124.10
-123.13
-117.44
-111.49
-108.69
-110.09
-114.19
-118.87
-121.53
-120.12
-113.88
-103.64
-91.23
-78.70
-67.48
-52.44
-31.67
-7.44
15.09
31.81
42.16
48.55
53.83
59.49
64.64
65.87
59.77
45.33
24.68
0.96
-21.19
-38.07
-47.72
-49.93
-46.40
-39.17
-29.46
-17.89
-5.17
7.53
18.53
26.28
29.99
30.72
29.66
28.62
29.35
32.64
37.99
43.38
46.15
43.99
35.62
21.45
3.68
-14.45
-30.11
-41.73
-49.62
-55.52
-61.72
-70.00
-80.54
-91.48
-99.55
-101.39
-95.05
-81.15
-62.71
-44.00
-28.87
-19.66
-16.71
-19.06
-25.36
-34.43
-45.29
-56.75
-67.30
-75.24
-79.17
-78.49
-73.35
-64.62
-53.58
-41.62
-30.17
-20.41
-12.85
-7.13
-1.99
4.08
12.04
21.72
31.90
41.15
48.68
54.82
60.66
67.24
74.72
82.21
88.29
91.83
92.49
90.78
87.55
83.46
78.58
72.34
63.82
52.05
36.53
17.54
-3.59
-24.53
-42.21
-53.37
-55.23
-46.21
-26.49
1.80
34.69
66.97
93.17
108.93
112.11
103.48
86.37
65.47
45.11
27.60
12.56
-2.57
-20.93
-44.38
-72.05
-100.24
-123.89
-138.44
-141.83
-134.93
-121.01
-103.97
-86.95
-71.61
-58.43
-47.47
-38.94
-33.15
-30.15
-29.37
-29.79
-30.44
-30.88
-31.27
-31.98
-32.81
-32.69
-29.96
-23.23
-12.27
1.59
15.92
27.92
35.50
37.83
35.48
30.11
23.91
18.99
16.90
18.20
22.48
28.59
35.12
40.98
45.60
49.01
51.54
53.53
55.17
56.65
58.22
60.16
62.55
65.05
66.89
67.08
64.90
60.26
53.73
46.37
39.25
33.04
27.87
23.36
18.94
14.07
8.43
2.01
-5.01
-12.29
-19.23
-25.12
-29.14
-30.59
-29.02
-24.52
-17.66
-9.37
-0.66
7.60
14.91
21.12
26.22
30.32
33.46
35.68
37.03
37.58
37.40
36.57
35.12
33.06
30.50
27.67
24.87
22.39
20.38
18.71
17.08
15.10
12.50
9.24
5.54
1.76
-1.81
-4.97
-7.70
-10.11
-12.41
-14.90
-17.96
-22.00
-27.27
-33.68
-40.70
-47.36
-52.47
-55.03
-54.45
-50.73
-44.34
-36.01
-26.51
-16.48
-6.45
3.12
11.71
18.87
24.29
27.78
29.42
29.52
28.49
26.82
24.97
23.35
22.21
21.62
21.43
21.29
20.75
19.37
16.89
13.41
9.31
5.25
1.87
-0.44
-1.66
-2.17
-2.62
-3.74
-6.10
-10.01
-15.48
-22.15
-29.34
-36.05
-41.09
-43.37
-42.13
-37.25
-29.25
-19.23
-8.51
1.65
10.36
17.21
22.12
25.29
27.00
27.54
27.20
26.29
25.12
23.98
23.07
22.48
22.16
22.03
22.03
22.07
22.07
21.86
21.09
19.39
16.39
12.01
6.51
0.46
-5.38
-10.38
-14.22
-17.01
-19.23
-21.49
-24.32
-27.89
-31.83
-35.34
-37.34
-36.82
-33.23
-26.60
-17.57
-7.16
3.57
13.79
23.00
30.97
37.52
42.39
45.23
45.72
43.82
39.86
34.65
29.25
24.64
21.47
19.88
19.55
19.97
20.56
20.89
20.59
19.38
17.00
13.36
8.63
3.24
-2.11
-6.87
-10.67
-13.57
-15.96
-18.38
-21.29
-24.88
-28.97
-32.98
-36.01
-37.12
-35.58
-31.04
-23.77
-14.38
-3.80
7.01
17.27
26.35
33.79
39.28
42.65
43.96
43.44
41.51
38.64
35.26
31.68
28.17
24.92
22.12
19.87
18.17
16.85
15.65
14.30
12.55
10.27
7.42
3.93
-0.26
-5.28
-11.19
-17.94
-25.23
-32.60
-39.46
-45.17
-49.14
-50.86
-49.98
-46.34
-40.00
-31.39
-21.17
-10.22
0.54
10.27
18.37
24.50
28.65
31.02
31.99
31.87
30.79
28.75
25.56
21.17
15.67
9.41
2.95
-3.20
-8.62
-13.14
-16.82
-19.90
-22.71
-25.59
-28.73
-32.20
-35.94
-39.88
-44.04
-48.48
-53.21
-58.10
-62.78
-66.83
-69.84
-71.62
-72.12
-71.24
-68.81
-64.62
-58.54
-50.84
-42.10
-33.05
-24.35
-16.31
-8.96
-2.30
3.62
8.52
12.12
14.35
15.64
16.80
18.95
23.01
29.59
38.65
49.79
62.24
75.06
87.30
98.12
106.87
113.19
117.15
119.20
120.00
120.21
120.17
119.76
118.39
115.30
109.91
102.01
91.88
80.17
67.83
55.97
45.77
38.34
34.49
34.38
37.47
42.52
47.90
52.13
54.31
54.38
52.87
50.71
48.84
47.80
47.78
48.53
49.49
49.91
49.10
46.64
42.47
36.81
30.07
22.63
14.60
5.93
-3.51
-13.72
-24.51
-35.55
-46.58
-57.38
-67.81
-77.68
-86.64
-94.27
-100.26
-104.71
-108.12
-111.25
-114.65
-118.31
-121.54
-123.13
-121.88
-117.06
-108.74
-97.69
-85.12
-72.25
-59.94
-48.60
-38.25
-28.83
-20.28
-12.59
-5.80
0.10
5.11
9.31
12.73
15.45
17.46
18.74
19.28
19.06
18.12
16.49
14.32
11.79
9.07
6.22
3.26
0.14
-3.17
-6.53
-9.70
-12.37
-14.34
-15.58
-16.35
-17.14
-18.54
-21.05
-24.85
-29.84
-35.49
-40.95
-45.31
-47.72
-47.68
-45.10
-40.29
-33.91
-26.65
-19.21
-12.12
-5.69
-0.08
4.72
8.82
12.38
15.52
18.33
20.91
23.31
25.56
27.68
29.63
31.32
32.60
33.38
33.61
33.28
32.50
31.39
30.15
28.92
27.76
26.59
25.23
23.55
21.59
19.55
17.71
16.12
14.49
12.23
8.76
3.79
-2.48
-9.34
-15.86
-21.17
-24.61
-25.96
-25.27
-22.79
-18.96
-14.26
-9.18
-4.12
0.65
5.04
9.06
12.78
16.27
19.48
22.28
24.47
25.79
26.08
25.35
23.69
21.36
18.62
15.62
12.35
8.61
4.08
-1.51
-8.20
-15.68
-23.30
-30.23
-35.74
-39.43
-41.29
-41.65
-40.93
-39.44
-37.45
-35.21
-33.20
-32.06
-32.49
-34.86
-38.94
-43.84
-48.15
-50.51
-50.05
-46.65
-41.04
-34.47
-28.34
-23.84
-21.67
-21.88
-24.06
-27.47
-31.34
-35.01
-38.05
-40.30
-41.81
-42.80
-43.54
-44.21
-44.76
-44.88
-44.00
-41.53
-37.23
-31.46
-25.27
-20.05
-16.96
-16.32
-17.30
-18.25
-17.41
-13.78
-7.72
-0.92
4.21
5.61
2.48
-4.27
-12.38
-19.08
-22.16
-20.54
-14.57
-5.59
4.78
15.13
24.52
32.47
38.83
43.52
46.48
47.70
47.37
45.84
43.57
41.06
38.66
36.52
34.62
32.87
31.17
29.57
28.26
27.41
27.04
26.87
26.35
24.83
21.90
17.59
12.43
7.24
2.84
-0.31
-2.30
-3.77
-5.61
-8.60
-13.16
-19.06
-25.48
-31.19
-34.98
-35.93
-33.68
-28.49
-21.11
-12.49
-3.62
4.66
11.76
17.35
21.35
23.86
25.11
25.39
25.00
24.16
23.07
21.86
20.64
19.48
18.52
17.84
17.42
17.16
16.78
15.99
14.52
12.26
9.32
5.93
2.34
-1.21
-4.61
-7.83
-10.96
-14.13
-17.59
-21.67
-26.58
-32.26
-38.27
-43.75
-47.64
-48.97
-47.16
-42.12
-34.24
-24.27
-13.17
-1.81
9.08
18.95
27.51
34.57
40.06
43.88
45.97
46.38
45.34
43.21
40.55
37.86
35.47
33.44
31.63
29.80
27.74
25.40
22.86
20.24
17.56
14.75
11.65
8.15
4.28
0.29
-3.54
-6.97
-10.03
-12.92
-16.01
-19.62
-23.91
-28.83
-34.03
-38.96
-42.83
-44.84
-44.32
-40.91
-34.69
-26.26
-16.54
-6.58
2.76
10.90
17.60
22.83
26.68
29.25
30.67
31.16
31.06
30.77
30.64
30.87
31.39
31.96
32.29
32.25
31.80
31.09
30.22
29.19
27.82
25.83
22.94
18.98
14.02
8.37
2.44
-3.34
-8.72
-13.71
-18.58
-23.70
-29.38
-35.65
-42.17
-48.22
-52.80
-54.93
-53.84
-49.32
-41.72
-31.96
-21.24
-10.78
-1.48
6.16
12.02
16.25
19.08
20.72
21.42
21.36
20.80
20.00
19.21
18.63
18.39
18.47
18.80
19.22
19.51
19.51
19.05
17.98
16.18
13.65
10.49
7.01
3.59
0.57
-1.92
-4.11
-6.53
-9.82
-14.46
-20.48
-27.32
-33.88
-38.84
-41.04
-39.80
-35.16
-27.82
-18.95
-9.76
-1.27
6.00
11.80
16.22
19.41
21.56
22.81
23.32
23.26
22.78
22.07
21.17
20.11
18.80
17.18
15.18
12.82
10.20
7.44
4.68
1.94
-0.81
-3.76
-7.11
-11.08
-15.80
-21.27
-27.23
-33.22
-38.44
-41.94
-42.82
-40.56
-35.21
-27.50
-18.60
-9.69
-1.60
5.28
10.90
15.31
18.41
19.94
19.69
17.74
14.49
10.63
6.89
3.89
2.11
1.89
3.33
6.16
9.61
12.56
14.00
13.50
11.44
8.86
6.90
6.18
6.57
7.38
7.79
7.30
5.79
3.27
-0.31
-5.16
-11.31
-18.28
-24.96
-29.86
-31.71
-30.01
-25.30
-18.83
-12.16
-6.48
-2.29
0.59
2.64
4.30
5.62
6.26
5.64
3.32
-0.78
-6.17
-11.78
-16.17
-17.85
-15.74
-9.43
0.67
13.33
26.82
39.29
48.97
54.58
55.50
51.90
44.70
35.33
25.38
16.12
8.31
2.12
-2.61
-6.07
-8.24
-8.92
-7.97
-5.46
-1.83
2.27
6.26
9.70
12.56
15.05
17.43
19.78
21.96
23.67
24.66
24.77
24.15
23.14
22.13
21.40
20.99
20.75
20.37
19.56
18.13
16.09
13.55
10.63
7.42
3.93
0.12
-3.99
-8.30
-12.64
-16.90
-21.06
-25.32
-29.90
-34.93
-40.29
-45.50
-49.79
-52.22
-52.06
-48.99
-43.32
-35.78
-27.41
-19.20
-11.83
-5.56
-0.36
3.88
7.22
9.56
10.82
11.03
10.45
9.53
8.78
8.54
8.94
9.89
11.14
12.45
13.60
14.33
14.41
13.63
11.92
9.37
6.22
2.71
-0.96
-4.70
-8.57
-12.62
-16.99
-21.74
-26.89
-32.24
-37.31
-41.29
-43.20
-42.32
-38.39
-31.87
-23.75
-15.17
-7.17
-0.29
5.32
9.74
13.11
15.49
16.87
17.22
16.65
15.36
13.70
12.01
10.60
9.68
9.31
9.46
10.01
10.82
11.69
12.43
12.73
12.24
10.69
8.00
4.35
0.14
-4.15
-8.19
-11.97
-15.81
-20.01
-24.67
-29.47
-33.64
-36.21
-36.30
-33.52
-27.99
-20.39
-11.70
-2.94
5.05
11.78
17.13
21.32
24.64
27.28
29.27
30.46
30.76
30.20
29.06
27.66
26.21
24.62
22.62
19.78
15.91
11.06
5.63
0.03
-5.41
-10.57
-15.48
-20.21
-24.82
-29.27
-33.48
-37.42
-41.11
-44.61
-47.95
-50.99
-53.43
-54.82
-54.70
-52.71
-48.69
-42.70
-34.93
-25.72
-15.51
-4.83
5.72
15.49
23.91
30.58
35.41
38.50
40.20
40.90
41.02
40.83
40.43
39.78
38.74
37.26
35.43
33.38
31.28
29.08
26.59
23.45
19.40
14.39
8.68
2.81
-2.65
-7.18
-10.59
-13.04
-15.01
-17.08
-19.79
-23.32
-27.47
-31.64
-35.03
-36.79
-36.27
-33.17
-27.55
-19.83
-10.75
-1.21
7.92
16.00
22.57
27.46
30.68
32.40
32.88
32.45
31.45
30.14
28.61
26.74
24.33
21.25
17.57
13.54
9.56
5.92
2.67
-0.36
-3.49
-6.92
-10.71
-14.65
-18.55
-22.25
-25.77
-29.26
-32.92
-36.84
-40.97
-45.15
-49.21
-53.02
-56.50
-59.57
-62.00
-63.35
-63.04
-60.44
-55.12
-46.96
-36.32
-24.02
-11.18
1.03
11.65
20.23
26.81
31.95
36.36
40.76
45.55
50.78
56.25
61.57
66.53
71.19
76.13
82.55
92.17
106.82
127.71
154.41
184.19
212.07
231.97
238.44
228.47
202.58
164.78
121.33
78.82
42.43
14.73
-4.67
-18.59
-31.08
-46.17
-66.52
-92.61
-122.62
-153.21
-180.55
-201.60
-214.76
-219.85
-217.77
-209.85
-197.37
-181.30
-162.33
-140.93
-117.62
-93.12
-68.43
-44.78
-23.43
-5.40
8.93
19.98
28.95
37.59
47.77
60.99
77.93
98.05
119.56
139.64
155.05
163.26
163.46
157.06
147.30
137.83
131.26
127.86
125.61
121.42
112.85
99.44
82.85
65.99
51.53
40.86
34.06
30.37
28.89
28.81
29.07
27.97
23.48
14.11
-0.01
-16.72
-32.35
-43.00
-46.08
-41.17
-29.84
-14.88
0.74
14.38
23.98
28.08
25.96
17.77
4.73
-11.18
-27.68
-42.74
-54.90
-63.36
-67.99
-69.10
-67.46
-64.11
-60.27
-56.98
-55.13
-55.49
-59.20
-67.79
-82.64
-103.78
-128.71
-152.23
-167.66
-169.03
-153.41
-122.26
-80.78
-36.31
3.91
34.23
51.22
53.83
43.59
25.15
5.92
-5.52
-2.38
17.40
49.89
86.59
118.01
137.55
143.87
140.62
133.93
129.21
129.10
133.12
138.88
143.61
145.38
143.41
137.93
129.72
119.67
108.42
96.15
82.51
67.11
49.89
31.50
13.31
-3.12
-16.59
-26.70
-33.96
-39.36
-43.74
-47.56
-50.88
-53.79
-56.75
-60.75
-66.97
-76.22
-88.37
-102.19
-115.64
-126.45
-132.98
-134.58
-131.69
-125.46
-117.15
-107.57
-96.95
-85.14
-72.09
-58.19
-44.42
-32.02
-22.04
-14.97
-10.61
-8.31
-7.46
-7.62
-8.71
-10.69
-13.43
-16.54
-19.53
-22.11
-24.24
-26.14
-28.08
-30.23
-32.52
-34.93
-37.53
-40.53
-44.26
-48.96
-54.67
-61.23
-68.32
-75.57
-82.62
-89.14
-94.81
-99.35
-102.63
-104.69
-105.71
-105.96
-105.70
-105.29
-105.11
-105.57
-106.85
-108.63
-110.07
-109.88
-106.81
-100.06
-89.62
-76.26
-61.20
-45.74
-30.98
-17.70
-6.42
2.46
8.78
12.55
14.18
14.39
14.04
13.88
14.24
14.93
15.43
15.09
13.60
11.09
8.20
5.75
4.42
4.37
5.25
6.31
6.69
5.82
3.47
-0.02
-3.99
-7.65
-10.26
-11.33
-10.73
-8.75
-6.10
-3.80
-2.90
-4.29
-8.18
-13.99
-20.29
-25.26
-27.14
-24.83
-18.29
-8.40
3.35
15.41
26.52
36.04
43.84
50.19
55.59
60.56
65.47
70.33
74.80
78.19
79.78
79.05
75.92
70.92
65.00
59.30
54.94
52.56
52.29
53.54
55.47
57.10
57.77
57.18
55.45
52.79
49.34
45.11
40.05
34.13
27.36
19.74
11.20
1.60
-9.02
-20.18
-30.87
-39.67
-45.18
-46.53
-43.73
-37.53
-29.19
-19.98
-10.84
-2.23
5.69
12.88
19.12
24.00
27.06
27.98
26.81
24.00
20.31
16.57
13.41
11.10
9.57
8.49
7.51
6.43
5.20
3.81
2.25
0.36
-2.12
-5.39
-9.39
-13.80
-18.02
-21.47
-23.83
-25.21
-26.09
-27.14
-28.91
-31.58
-34.73
-37.48
-38.58
-36.79
-31.17
-21.44
-8.06
7.83
24.63
40.77
55.08
67.11
76.98
85.04
91.49
96.25
98.96
99.23
96.87
92.04
85.28
77.45
69.56
62.75
57.97
55.56
54.81
53.98
50.64
42.60
28.67
8.93
-15.02
-40.63
-65.28
-86.95
-104.51
-117.73
-127.00
-133.12
-137.61
-141.80
-146.46
-151.66
-156.94
-161.32
-163.67
-162.90
-158.52
-151.71
-144.22
-137.84
-133.91
-133.03
-134.73
-137.82
-140.60
-141.33
-139.66
-135.11
-126.90
-114.31
-97.33
-77.04
-55.48
-34.79
-9.44
22.51
59.88
98.59
133.55
160.36
176.33
180.75
175.46
164.73
152.84
143.60
138.62
137.62
137.53
135.31
129.20
119.27
107.06
93.90
80.98
68.99
58.57
50.61
46.61
48.09
54.79
65.26
76.88
86.77
92.45
92.46
86.33
74.72
59.08
41.55
25.08
13.65
10.93
18.69
35.90
59.09
83.61
105.11
120.73
124.46
113.73
91.07
62.81
34.98
10.64
-9.72
-26.53
-39.92
-49.61
-54.39
-53.43
-47.06
-36.82
-24.74
-12.83
-3.09
3.40
5.97
5.02
1.65
-2.77
-6.95
-9.81
-11.07
-11.22
-11.49
-13.28
-16.96
-21.94
-27.07
-31.53
-33.87
-33.80
-31.97
-29.65
-28.27
-28.45
-29.98
-32.01
-33.54
-33.90
-33.20
-32.19
-31.80
-32.76
-35.13
-38.20
-40.93
-42.49
-42.56
-41.67
-40.75
-40.69
-42.02
-44.64
-47.83
-50.42
-51.20
-49.20
-44.12
-36.32
-26.72
-16.44
-6.50
2.58
10.69
17.96
24.43
29.86
33.80
35.83
35.86
34.24
31.67
28.94
26.66
25.14
24.26
23.70
23.12
22.23
20.88
18.98
16.45
13.16
9.03
4.08
-1.45
-7.24
-12.93
-18.32
-23.44
-28.51
-33.80
-39.42
-45.23
-50.68
-54.88
-56.80
-55.58
-50.75
-42.52
-31.72
-19.55
-7.33
3.97
13.72
21.70
27.89
32.38
35.30
36.80
37.12
36.55
35.43
34.02
32.59
31.33
30.40
29.91
29.86
30.11
30.42
30.51
30.06
28.74
26.36
22.79
18.08
12.45
6.34
0.25
-5.43
-10.58
-15.45
-20.53
-26.33
-33.05
-40.30
-47.17
-52.37
-54.65
-53.16
-47.72
-38.91
-27.87
-15.99
-4.56
5.54
13.88
20.47
25.49
29.12
31.48
32.61
32.65
31.91
30.77
29.52
28.22
26.66
24.53
21.65
18.19
14.58
11.35
8.72
6.54
4.29
1.29
-2.83
-7.98
-13.58
-18.82
-22.96
-25.67
-27.12
-27.92
-28.81
-30.46
-33.20
-36.94
-41.15
-44.96
-47.26
-46.98
-43.20
-35.56
-24.41
-10.81
3.60
16.97
27.61
34.29
36.46
34.26
28.46
20.28
11.18
2.63
-4.05
-7.78
-7.81
-3.90
3.65
13.80
24.84
34.74
41.64
44.37
42.83
37.92
31.20
24.39
18.81
14.95
12.39
9.94
6.11
-0.38
-10.17
-23.00
-37.76
-52.88
-66.64
-77.52
-84.26
-86.07
-82.65
-74.33
-62.12
-47.56
-32.35
-17.94
-5.07
6.33
17.10
28.45
41.40
56.28
72.45
88.40
102.28
112.59
118.67
120.75
119.70
116.54
111.99
106.43
100.08
93.26
86.45
80.11
74.59
69.85
65.68
61.89
58.41
55.15
51.67
47.24
41.00
32.54
22.38
11.92
2.87
-3.64
-7.66
-10.36
-13.37
-17.68
-23.03
-28.02
-30.98
-31.00
-28.55
-25.28
-23.20
-23.67
-26.86
-32.01
-37.98
-44.08
-50.25
-56.90
-64.37
-72.48
-80.49
-87.42
-92.39
-94.99
-95.40
-94.22
-92.27
-90.34
-89.01
-88.32
-87.81
-86.69
-84.24
-80.28
-75.27
-70.20
-66.06
-63.36
-61.86
-60.61
-58.15
-53.00
-44.07
-31.17
-15.13
2.19
18.39
31.07
38.46
39.82
35.46
26.62
15.19
3.45
-6.39
-12.71
-14.99
-13.97
-11.11
-7.53
-3.26
2.83
12.11
24.87
39.59
53.19
62.35
64.89
60.69
51.62
40.71
31.37
26.67
29.11
40.28
60.43
87.81
118.55
147.16
167.85
176.07
169.98
150.82
122.59
90.76
60.85
37.11
22.00
16.33
19.66
30.78
47.79
67.87
87.36
102.26
109.55
108.27
99.98
87.96
75.38
63.74
52.43
39.61
23.97
6.06
-11.50
-25.38
-33.37
-35.67
-34.79
-34.25
-36.81
-43.29
-52.55
-62.41
-70.82
-76.71
-80.26
-82.55
-84.98
-88.72
-94.46
-102.34
-111.93
-122.18
-131.65
-138.67
-141.79
-140.06
-133.38
-122.54
-109.04
-94.68
-80.55
-67.09
-54.28
-42.19
-31.38
-22.92
-17.90
-16.87
-19.20
-22.20
-22.58
-18.04
-8.50
3.70
14.85
21.44
21.27
14.17
3.04
-7.45
-12.30
-7.61
8.81
37.15
75.23
118.37
160.06
194.82
219.51
234.24
242.03
247.54
255.21
267.29
282.95
288.14
270.72
227.50
167.53
106.46
56.84
22.95
1.86
-12.47
-24.42
-37.34
-51.83
-68.12
-87.09
-109.80
-136.29
-164.79
-192.36
-207.56
-202.09
-174.89
-133.63
-89.41
-50.94
-21.74
-1.48
11.24
17.00
14.16
3.39
-13.59
-33.51
-53.16
-70.95
-87.40
-104.47
-124.11
-147.93
-170.94
-188.69
-196.91
-192.77
-175.86
-148.51
-115.23
-81.76
-54.23
-36.73
-31.05
-35.27
-44.86
-54.80
-61.74
-64.97
-65.69
-65.61
-64.77
-61.81
-54.30
-40.78
-22.16
-1.61
17.00
30.94
39.48
43.85
45.83
47.17
48.98
51.63
54.94
58.33
60.89
61.64
59.87
55.16
47.68
38.05
27.04
15.54
4.60
-4.40
-10.09
-11.42
-8.34
-1.81
6.60
15.58
24.79
34.85
46.87
61.47
78.03
94.60
108.39
116.93
119.00
115.12
107.22
97.67
88.07
78.57
67.94
54.45
37.07
16.34
-5.63
-26.02
-42.47
-54.18
-62.25
-69.26
-78.31
-91.76
-110.15
-131.71
-152.38
-166.53
-168.27
-153.22
-119.98
-71.26
-13.98
41.88
85.96
111.08
116.17
107.53
96.79
96.53
114.88
151.72
198.51
241.84
269.00
272.93
254.01
218.21
173.30
125.46
78.23
33.77
-5.40
-35.92
-55.22
-63.69
-65.59
-67.44
-74.62
-88.36
-104.99
-118.29
-123.26
-118.72
-107.39
-93.38
-79.37
-65.27
-49.20
-29.57
-6.92
15.99
35.46
48.47
53.51
50.38
39.36
20.94
-3.92
-33.14
-63.33
-90.31
-110.30
-121.21
-123.12
-118.00
-108.75
-98.20
-88.49
-80.90
-75.80
-72.93
-71.53
-70.45
-68.63
-65.48
-61.30
-57.14
-54.34
-53.69
-55.10
-57.53
-59.61
-60.34
-59.54
-57.90
-56.58
-56.62
-58.55
-62.12
-66.49
-70.38
-72.56
-72.15
-68.84
-62.92
-55.08
-46.15
-36.79
-27.47
-18.40
-9.68
-1.40
6.41
13.71
20.57
27.09
33.31
39.09
44.08
47.77
49.72
49.74
48.05
45.27
42.14
39.32
37.06
35.15
33.09
30.30
26.40
21.29
15.19
8.52
1.74
-4.77
-10.70
-15.96
-20.59
-24.77
-28.78
-32.88
-37.17
-41.32
-44.56
-45.70
-43.54
-37.34
-27.24
-14.37
-0.61
12.14
22.63
30.69
37.00
42.58
48.07
53.43
57.97
60.94
61.93
61.17
59.30
57.13
55.10
53.26
51.33
48.90
45.70
41.62
36.74
31.27
25.46
19.49
13.46
7.35
1.07
-5.49
-12.31
-19.26
-26.21
-33.04
-39.58
-45.46
-50.00
-52.16
-50.85
-45.44
-36.10
-23.99
-10.86
1.57
12.15
20.57
27.15
32.42
36.67
39.73
41.21
40.84
38.80
35.79
32.81
30.72
29.92
30.18
30.78
30.75
29.27
25.93
20.74
14.09
6.54
-1.32
-8.89
-15.57
-20.70
-23.75
-24.65
-23.95
-22.74
-22.33
-23.58
-26.42
-29.84
-32.18
-31.89
-28.04
-20.65
-10.48
1.39
13.92
26.38
38.21
48.92
57.85
64.30
67.72
67.96
65.47
61.15
56.08
51.26
47.35
44.59
43.00
42.34
42.33
42.56
42.62
42.17
41.00
39.15
36.84
34.32
31.74
29.04
25.98
22.19
17.36
11.25
3.95
-4.12
-12.07
-18.78
-23.21
-24.65
-23.04
-18.90
-13.10
-6.53
0.15
6.57
12.51
17.86
22.43
26.00
28.40
29.64
29.92
29.64
29.20
28.95
28.90
28.87
28.59
27.92
26.98
26.08
25.50
25.33
25.44
25.58
25.80
26.47
28.17
31.23
35.32
39.30
41.65
41.20
37.59
31.46
24.07
16.71
10.30
5.29
2.03
1.03
2.94
8.18
16.39
26.18
35.36
41.68
43.57
40.68
33.79
24.45
14.33
4.65
-4.00
-11.57
-18.27
-24.23
-29.45
-33.80
-37.08
-39.12
-39.76
-38.84
-36.41
-32.73
-28.33
-23.92
-19.95
-16.37
-12.60
-7.88
-1.78
5.30
12.15
17.34
19.89
19.91
18.65
17.89
19.07
22.61
27.82
33.27
37.65
40.29
41.37
41.57
41.61
41.78
41.88
41.48
40.30
38.38
36.13
34.26
33.67
35.50
41.34
53.37
74.14
105.78
148.65
199.99
253.49
300.26
331.06
339.41
323.74
287.73
238.61
184.21
130.31
79.84
33.79
-6.90
-40.09
-63.10
-74.81
-77.54
-76.98
-79.86
-90.33
-107.73
-126.81
-140.73
-144.93
-139.75
-129.94
-121.85
-119.90
-124.64
-133.18
-141.45
-146.65
-148.47
-148.51
-148.72
-150.10
-152.33
-154.11
-154.14
-151.79
-147.22
-141.19
-134.52
-127.69
-120.89
-114.19
-107.72
-101.73
-96.48
-91.98
-87.94
-83.80
-79.01
-73.34
-66.96
-60.36
-53.99
-47.83
-41.29
-33.51
-23.68
-11.59
2.13
16.22
29.20
39.80
47.24
51.24
51.89
49.56
44.78
38.35
31.20
24.25
18.20
13.37
9.72
6.99
4.83
3.04
1.53
0.28
-0.66
-1.25
-1.33
-0.76
0.48
2.25
4.07
5.35
5.58
4.59
2.62
0.29
-1.68
-2.73
-2.56
-1.27
0.71
2.67
3.82
3.43
1.07
-3.31
-9.22
-15.81
-22.08
-27.03
-29.95
-30.43
-28.51
-24.60
-19.45
-14.04
-9.25
-5.66
-3.38
-2.11
-1.38
-0.76
-0.08
0.62
1.25
1.80
2.31
2.80
3.18
3.29
3.03
2.51
2.02
1.76
1.69
1.37
0.19
-2.29
-6.02
-10.46
-14.86
-18.62
-21.59
-24.01
-26.27
-28.52
-30.56
-31.96
-32.38
-31.71
-30.15
-27.97
-25.24
-21.74
-17.15
-11.32
-4.49
2.76
9.64
15.51
20.17
23.80
26.84
29.86
33.32
37.55
42.65
48.47
54.58
60.38
65.20
68.68
70.88
72.24
73.48
75.10
77.27
79.57
81.15
81.00
78.20
72.33
63.64
53.12
42.31
32.92
26.28
22.85
22.04
22.55
22.92
22.23
20.61
19.14
19.39
22.74
29.76
40.05
52.34
65.09
76.97
87.19
95.66
102.83
109.51
116.49
124.42
133.64
144.26
156.10
168.56
180.50
190.29
195.93
195.64
188.42
174.30
154.44
130.46
103.66
74.34
42.01
6.35
-31.69
-69.38
-103.01
-129.64
-148.94
-163.60
-178.13
-196.45
-219.78
-245.88
-270.20
-288.24
-297.51
-298.34
-293.10
-284.55
-274.62
-264.03
-252.66
-240.25
-226.67
-211.88
-195.80
-178.23
-158.89
-137.81
-115.47
-92.85
-71.28
-52.25
-37.13
-26.95
-22.09
-22.03
-25.16
-28.89
-30.32
-27.18
-18.61
-5.33
10.76
27.49
43.11
56.54
67.34
75.39
80.68
83.35
83.80
82.66
80.48
77.27
72.38
64.77
53.54
38.52
20.46
0.90
-18.09
-34.30
-45.70
-51.02
-50.17
-44.38
-35.73
-26.26
-17.16
-8.25
1.34
12.30
24.09
34.78
41.87
43.48
39.31
30.71
19.80
8.45
-2.28
-12.06
-20.75
-27.94
-32.85
-34.83
-33.91
-30.89
-27.18
-24.20
-22.87
-23.36
-25.20
-27.61
-29.85
-31.42
-32.21
-32.35
-32.12
-31.72
-31.21
-30.31
-28.64
-25.77
-21.52
-16.00
-9.66
-3.15
2.87
7.91
11.68
14.19
15.60
16.22
16.42
16.57
16.99
17.95
19.48
21.39
23.26
24.55
24.83
23.86
21.69
18.64
15.12
11.46
7.84
4.27
0.63
-3.25
-7.48
-12.13
-17.17
-22.54
-28.01
-33.23
-37.62
-40.46
-41.02
-38.77
-33.61
-26.03
-16.93
-7.39
1.74
9.93
17.07
23.30
28.75
33.50
37.54
40.83
43.40
45.34
46.78
47.83
48.61
49.24
49.82
50.45
51.06
51.44
51.30
50.34
48.41
45.59
42.09
38.15
33.90
29.32
24.34
18.85
12.88
6.47
-0.30
-7.34
-14.51
-21.46
-27.52
-31.69
-32.99
-30.66
-24.63
-15.49
-4.41
7.15
17.99
27.32
34.85
40.61
44.75
47.31
48.30
47.76
45.98
43.49
41.00
39.10
38.15
38.15
38.84
39.83
40.74
41.23
41.01
39.82
37.52
34.12
29.83
24.94
19.75
14.54
9.45
4.53
-0.22
-4.96
-9.85
-15.07
-20.60
-26.03
-30.63
-33.44
-33.64
-30.86
-25.30
-17.66
-8.83
0.29
9.04
16.94
23.64
28.88
32.54
34.60
35.25
34.75
33.36
31.29
28.60
25.37
21.75
18.11
14.88
12.51
11.24
11.00
11.47
12.11
12.39
11.86
10.28
7.58
3.91
-0.45
-5.09
-9.66
-13.96
-18.11
-22.49
-27.59
-33.75
-40.81
-47.99
-54.00
-57.42
-57.14
-52.72
-44.43
-33.16
-20.12
-6.54
6.44
17.89
27.05
33.42
36.88
37.75
36.73
34.78
32.72
31.08
29.90
28.84
27.51
25.62
23.21
20.54
17.89
15.37
12.84
9.98
6.57
2.58
-1.68
-5.80
-9.40
-12.36
-14.90
-17.57
-20.98
-25.57
-31.41
-38.11
-44.87
-50.73
-54.75
-56.30
-55.02
-50.96
-44.50
-36.30
-27.29
-18.47
-10.59
-3.82
2.33
8.91
17.01
27.12
38.83
50.84
61.42
69.09
73.12
73.53
70.96
66.03
59.23
50.89
41.55
32.28
24.68
20.46
20.59
24.65
30.69
35.80
37.36
34.04
26.37
16.26
6.02
-2.75
-9.61
-15.11
-19.97
-24.31
-27.47
-28.34
-26.03
-20.48
-12.62
-4.03
3.78
9.84
13.98
16.64
18.54
20.06
21.17
21.50
20.71
18.77
16.15
13.68
12.20
12.20
13.67
16.15
18.89
21.18
22.48
22.48
21.10
18.37
14.47
9.70
4.49
-0.53
-4.78
-7.85
-9.78
-10.99
-12.20
-14.15
-17.25
-21.42
-26.15
-30.66
-34.08
-35.68
-34.96
-31.66
-25.81
-17.78
-8.27
1.77
11.30
19.42
25.56
29.62
31.79
32.40
31.77
30.04
27.24
23.42
18.85
14.06
9.70
6.37
4.40
3.73
3.95
4.50
4.90
4.82
4.11
2.73
0.63
-2.29
-6.10
-10.69
-15.78
-20.95
-25.75
-29.98
-33.75
-37.42
-41.28
-45.28
-48.86
-51.09
-51.01
-48.02
-42.24
-34.37
-25.49
-16.65
-8.62
-1.77
3.77
7.99
10.83
12.25
12.29
11.15
9.19
6.84
4.52
2.47
0.82
-0.45
-1.39
-2.02
-2.33
-2.31
-2.05
-1.76
-1.68
-2.12
-3.21
-4.95
-7.21
-9.72
-12.30
-14.89
-17.64
-20.72
-24.26
-28.08
-31.74
-34.57
-35.86
-35.12
-32.17
-27.28
-20.97
-13.93
-6.72
0.25
6.74
12.59
17.65
21.73
24.59
26.08
26.19
25.08
23.04
20.42
17.56
14.72
12.07
9.69
7.59
5.72
3.95
2.12
0.12
-2.03
-4.20
-6.13
-7.60
-8.48
-8.89
-9.14
-9.63
-10.71
-12.48
-14.77
-17.08
-18.78
-19.24
-17.99
-14.83
-9.92
-3.73
3.08
9.85
16.07
21.51
26.20
30.34
34.12
37.54
40.48
42.64
43.71
43.54
42.13
39.63
36.22
32.02
27.16
21.85
16.54
11.85
8.50
6.98
7.30
8.89
10.75
11.77
11.17
8.72
4.71
-0.17
-5.23
-9.92
-14.06
-17.69
-20.93
-23.74
-25.83
-26.71
-25.92
-23.26
-18.95
-13.44
-7.29
-0.93
5.40
11.44
16.76
20.74
22.77
22.49
20.17
16.48
12.30
8.25
4.52
0.94
-2.64
-6.03
-8.68
-9.87
-9.18
-6.85
-3.92
-1.94
-2.56
-6.97
-15.48
-27.36
-40.93
-53.98
-64.36
-70.66
-72.59
-71.03
-67.66
-64.27
-62.14
-61.54
-61.94
-62.25
-61.36
-58.55
-53.48
-46.26
-37.25
-27.01
-16.37
-6.41
1.56
6.34
7.20
4.26
-1.45
-8.30
-14.64
-19.36
-22.13
-23.32
-23.49
-23.10
-22.23
-20.75
-18.52
-15.73
-12.83
-10.50
-9.30
-9.58
-11.31
-14.11
-17.40
-20.53
-22.97
-24.48
-25.15
-25.29
-25.26
-25.20
-24.95
-24.19
-22.56
-19.89
-16.23
-11.75
-6.67
-1.18
4.54
10.23
15.55
20.07
23.50
25.71
26.84
27.16
26.95
26.40
25.62
24.66
23.63
22.62
21.77
21.11
20.58
20.04
19.36
18.47
17.28
15.76
13.79
11.25
8.07
4.24
-0.09
-4.68
-9.30
-13.74
-17.86
-21.51
-24.45
-26.28
-26.56
-24.90
-21.21
-15.71
-8.97
-1.66
5.54
12.10
17.71
22.19
25.52
27.77
29.12
29.82
30.14
30.32
30.48
30.66
30.80
30.75
30.34
29.41
27.86
25.68
22.95
19.86
16.52
12.97
9.16
5.09
0.83
-3.36
-7.19
-10.47
-13.29
-16.08
-19.39
-23.62
-28.77
-34.30
-39.23
-42.43
-42.94
-40.30
-34.67
-26.73
-17.53
-8.19
0.37
7.55
13.19
17.42
20.58
22.98
24.79
25.98
26.44
26.11
25.08
23.61
22.00
20.49
19.12
17.85
16.58
15.27
13.89
12.41
10.74
8.69
6.12
3.02
-0.41
-3.80
-6.80
-9.30
-11.52
-13.91
-17.00
-21.08
-25.98
-31.08
-35.41
-37.94
-37.89
-34.88
-29.09
-21.11
-11.80
-2.10
7.15
15.36
22.17
27.43
31.17
33.42
34.28
33.86
32.31
29.81
26.63
23.00
19.22
15.51
12.07
8.97
6.24
3.85
1.77
-0.09
-1.80
-3.47
-5.31
-7.51
-10.24
-13.47
-17.02
-20.60
-23.96
-27.06
-30.01
-32.98
-35.94
-38.47
-39.79
-39.01
-35.47
-29.05
-20.25
-10.12
0.18
9.62
17.58
23.87
28.56
31.79
33.71
34.41
33.99
32.64
30.66
28.42
26.29
24.54
23.25
22.31
21.49
20.49
19.06
17.05
14.47
11.36
7.91
4.30
0.74
-2.60
-5.58
-8.19
-10.54
-12.81
-15.19
-17.80
-20.56
-23.10
-24.84
-25.07
-23.11
-18.63
-11.63
-2.67
7.36
17.45
26.65
34.30
40.11
44.04
46.24
46.90
46.14
44.10
40.97
37.06
32.88
29.02
26.03
24.19
23.49
23.53
23.74
23.53
22.53
20.65
18.03
14.97
11.71
8.35
4.88
1.21
-2.77
-7.18
-12.27
-18.26
-25.26
-33.09
-41.12
-48.32
-53.54
-55.83
-54.69
-50.22
-43.01
-33.92
-23.90
-13.86
-4.56
3.38
9.61
14.03
16.83
18.43
19.34
20.04
20.90
22.08
23.58
25.28
27.04
28.80
30.63
32.67
35.00
37.62
40.27
42.53
43.91
44.04
42.71
39.82
35.45
29.82
23.28
16.39
9.83
4.27
0.15
-2.36
-3.41
-3.35
-2.53
-1.21
0.50
2.58
5.01
7.71
10.50
13.02
14.87
15.67
15.13
13.17
9.85
5.40
0.09
-5.86
-12.11
-18.27
-23.83
-28.33
-31.45
-33.17
-33.81
-33.81
-33.53
-33.10
-32.46
-31.46
-30.10
-28.49
-26.73
-24.85
-22.72
-20.25
-17.63
-15.55
-15.02
-16.92
-21.53
-28.20
-35.61
-42.16
-46.71
-48.79
-48.53
-46.39
-42.72
-37.70
-31.53
-24.67
-17.91
-12.17
-8.08
-5.76
-4.69
-4.02
-2.97
-1.14
1.27
3.77
5.81
7.17
8.04
8.86
10.03
11.65
13.49
15.15
16.29
16.70
16.39
15.37
13.69
11.59
9.68
8.97
10.73
15.84
24.31
35.03
46.02
55.07
60.52
61.71
59.07
53.69
46.77
39.16
31.17
22.79
13.85
4.33
-5.67
-15.98
-26.54
-37.34
-48.30
-59.02
-68.66
-76.18
-80.56
-81.26
-78.44
-72.91
-65.96
-58.98
-53.15
-49.15
-47.07
-46.50
-46.72
-47.01
-46.95
-46.54
-46.05
-45.85
-46.14
-46.84
-47.70
-48.47
-48.98
-49.16
-48.91
-47.99
-46.09
-42.91
-38.41
-32.85
-26.78
-20.82
-15.30
-10.20
-5.10
0.52
6.98
14.23
21.81
29.15
35.80
41.65
46.81
51.45
55.52
58.71
60.56
60.75
59.25
56.32
52.45
47.99
43.15
37.88
32.14
25.95
19.53
13.19
7.17
1.60
-3.59
-8.60
-13.64
-18.87
-24.22
-29.45
-34.12
-37.62
-39.31
-38.66
-35.40
-29.72
-22.28
-14.04
-5.96
1.32
7.58
12.95
17.74
22.09
25.93
28.88
30.54
30.63
29.15
26.42
22.91
19.12
15.39
11.92
8.76
5.95
3.55
1.60
0.11
-1.10
-2.23
-3.50
-5.00
-6.71
-8.50
-10.31
-12.19
-14.31
-16.83
-19.80
-23.07
-26.31
-29.10
-30.98
-31.57
-30.63
-28.04
-23.87
-18.33
-11.72
-4.31
3.67
12.04
20.57
28.96
36.76
43.33
48.03
50.38
50.18
47.64
43.29
37.86
32.18
27.03
23.08
20.79
20.40
21.77
24.53
28.02
31.45
34.11
35.41
35.03
32.94
29.39
24.96
20.37
16.40
13.63
12.15
11.58
11.13
9.88
7.11
2.60
-3.25
-9.53
-15.12
-19.11
-21.10
-21.27
-20.22
-18.63
-17.07
-15.74
-14.62
-13.63
-12.78
-12.14
-11.84
-11.86
-12.11
-12.39
-12.57
-12.57
-12.40
-12.14
-11.82
-11.47
-11.06
-10.47
-9.57
-8.34
-6.86
-5.42
-4.45
-4.34
-5.33
-7.43
-10.43
-14.02
-17.91
-21.87
-25.75
-29.31
-32.14
-33.69
-33.35
-30.64
-25.43
-17.96
-8.91
0.84
10.36
18.90
25.99
31.43
35.28
37.70
38.84
38.79
37.52
35.08
31.67
27.71
23.80
20.54
18.24
16.83
15.91
14.97
13.68
11.96
10.02
8.16
6.61
5.43
4.51
3.61
2.48
0.83
-1.55
-4.81
-9.00
-13.96
-19.36
-24.65
-29.12
-31.96
-32.45
-30.11
-24.91
-17.42
-8.66
0.16
7.95
14.10
18.45
21.27
22.97
23.85
24.09
23.75
22.95
21.87
20.71
19.60
18.48
17.19
15.55
13.57
11.46
9.56
8.20
7.50
7.38
7.51
7.40
6.64
4.96
2.34
-0.97
-4.55
-8.06
-11.37
-14.58
-17.91
-21.46
-24.91
-27.59
-28.65
-27.42
-23.71
-17.95
-11.01
-3.81
2.94
8.85
13.88
18.01
21.19
23.31
24.30
24.29
23.67
22.96
22.58
22.71
23.28
23.98
24.49
24.64
24.35
23.57
22.23
20.17
17.25
13.49
9.11
4.52
0.16
-3.67
-6.87
-9.60
-12.16
-14.90
-18.05
-21.66
-25.54
-29.27
-32.25
-33.83
-33.47
-30.92
-26.28
-20.07
-13.04
-6.02
0.29
5.39
9.02
11.15
11.94
11.66
10.67
9.27
7.79
6.42
5.25
4.32
3.63
3.17
2.93
2.82
2.73
2.49
2.01
1.29
0.44
-0.40
-1.21
-2.12
-3.36
-5.18
-7.66
-10.72
-14.05
-17.29
-20.11
-22.20
-23.27
-23.04
-21.24
-17.74
-12.70
-6.57
0.02
6.40
12.12
16.93
20.82
23.84
26.01
27.34
27.90
27.77
27.14
26.14
24.87
23.34
21.49
19.32
16.83
14.01
10.85
7.38
3.70
-0.07
-3.68
-6.90
-9.55
-11.59
-13.14
-14.42
-15.74
-17.34
-19.37
-21.78
-24.34
-26.62
-28.08
-28.25
-26.78
-23.57
-18.77
-12.74
-6.02
0.76
7.00
12.17
15.99
18.36
19.43
19.51
18.97
18.12
17.19
16.28
15.41
14.57
13.74
12.92
12.04
10.96
9.53
7.65
5.34
2.71
-0.07
-2.90
-5.77
-8.74
-11.85
-15.06
-18.30
-21.49
-24.63
-27.77
-30.90
-33.77
-35.88
-36.64
-35.45
-32.04
-26.61
-19.72
-12.18
-4.77
1.92
7.63
12.30
16.00
18.77
20.61
21.55
21.72
21.35
20.73
20.11
19.65
19.30
18.94
18.39
17.50
16.23
14.64
12.89
11.16
9.55
8.01
6.37
4.41
2.00
-0.79
-3.71
-6.47
-8.85
-10.83
-12.59
-14.43
-16.65
-19.43
-22.76
-26.33
-29.56
-31.78
-32.31
-30.78
-27.13
-21.70
-15.02
-7.63
-0.07
7.17
13.53
18.48
21.65
22.90
22.46
20.83
18.64
16.37
14.35
12.66
11.26
10.14
9.24
8.56
7.97
7.31
6.38
5.03
3.21
1.01
-1.39
-3.80
-6.09
-8.29
-10.45
-12.66
-14.89
-17.02
-18.95
-20.70
-22.51
-24.73
-27.64
-31.13
-34.68
-37.37
-38.30
-36.92
-33.21
-27.74
-21.33
-14.76
-8.55
-2.89
2.23
6.85
10.84
14.01
16.18
17.35
17.64
17.39
16.91
16.46
16.09
15.76
15.31
14.66
13.79
12.76
11.69
10.70
9.78
8.83
7.70
6.25
4.49
2.54
0.64
-0.96
-2.20
-3.17
-4.23
-5.71
-7.84
-10.52
-13.30
-15.45
-16.29
-15.37
-12.66
-8.44
-3.27
2.30
7.77
12.78
17.01
20.23
22.30
23.23
23.17
22.32
20.78
18.62
15.87
12.67
9.30
6.21
3.80
2.28
1.51
1.10
0.54
-0.54
-2.29
-4.58
-7.17
-9.83
-12.46
-15.05
-17.67
-20.36
-23.16
-26.03
-28.90
-31.68
-34.16
-36.06
-36.97
-36.52
-34.44
-30.66
-25.34
-18.83
-11.56
-4.00
3.42
10.34
16.50
21.72
25.89
28.94
30.78
31.34
30.62
28.74
26.00
22.78
19.49
16.40
13.59
11.02
8.59
6.24
4.02
1.98
0.12
-1.62
-3.40
-5.36
-7.56
-10.03
-12.82
-15.98
-19.59
-23.73
-28.24
-32.67
-36.30
-38.33
-38.09
-35.34
-30.26
-23.45
-15.68
-7.68
-0.04
6.92
13.06
18.27
22.45
25.47
27.19
27.58
26.75
24.88
22.29
19.36
16.48
14.07
12.38
11.50
11.23
11.20
10.91
10.03
8.42
6.20
3.65
1.06
-1.42
-3.84
-6.34
-9.12
-12.41
-16.46
-21.55
-27.82
-35.15
-42.95
-50.12
-55.30
-57.26
-55.34
-49.63
-40.99
-30.63
-19.76
-9.29
0.23
8.47
15.17
20.09
23.07
24.12
23.53
21.80
19.47
17.01
14.72
12.77
11.32
10.52
10.44
10.97
11.80
12.42
12.37
11.43
9.70
7.54
5.33
3.33
1.47
-0.52
-3.00
-6.28
-10.51
-15.75
-21.87
-28.58
-35.24
-40.97
-44.71
-45.53
-42.90
-36.94
-28.31
-18.06
-7.28
3.11
12.41
20.16
26.04
29.83
31.44
30.95
28.67
25.14
21.09
17.28
14.41
12.87
12.67
13.49
14.75
15.87
16.44
16.28
15.46
14.15
12.59
10.99
9.51
8.18
6.88
5.35
3.29
0.53
-2.82
-6.39
-9.57
-11.68
-12.06
-10.23
-6.05
0.23
7.91
15.91
23.12
28.64
32.07
33.48
33.26
31.82
29.40
26.08
21.92
17.13
12.20
7.69
4.15
1.80
0.60
0.22
0.26
0.39
0.42
0.33
0.07
-0.48
-1.57
-3.53
-6.48
-10.35
-14.80
-19.41
-23.89
-28.16
-32.23
-35.98
-38.94
-40.28
-39.06
-34.67
-27.21
-17.49
-6.91
3.10
11.51
17.94
22.56
25.91
28.46
30.46
31.95
32.78
32.85
32.13
30.74
28.90
26.87
24.90
23.16
21.63
20.20
18.66
16.75
14.34
11.41
8.00
4.22
0.14
-4.17
-8.65
-13.19
-17.71
-22.19
-26.62
-30.95
-34.93
-38.11
-39.88
-39.71
-37.28
-32.77
-26.75
-19.98
-13.20
-6.81
-0.93
4.59
9.84
14.74
18.90
21.80
22.98
22.26
19.86
16.36
12.47
8.80
5.77
3.46
1.79
0.59
-0.33
-1.09
-1.81
-2.60
-3.63
-5.00
-6.73
-8.69
-10.63
-12.42
-14.05
-15.72
-17.73
-20.27
-23.30
-26.43
-29.08
-30.56
-30.30
-27.90
-23.35
-16.97
-9.41
-1.50
5.93
12.25
17.16
20.60
22.70
23.63
23.54
22.64
21.22
19.71
18.54
18.01
18.12
18.63
19.11
19.14
18.51
17.19
15.38
13.32
11.21
9.10
6.95
4.72
2.39
0.06
-2.21
-4.39
-6.59
-9.01
-11.79
-14.78
-17.52
-19.32
-19.43
-17.33
-12.99
-6.76
0.68
8.50
15.93
22.28
27.01
29.88
30.93
30.47
29.08
27.30
25.60
24.18
23.04
22.04
21.05
19.94
18.64
17.14
15.48
13.63
11.62
9.45
7.07
4.41
1.35
-2.19
-6.25
-10.78
-15.70
-20.81
-25.81
-30.30
-33.81
-35.90
-36.25
-34.76
-31.55
-26.91
-21.22
-14.88
-8.20
-1.56
4.65
9.96
13.99
16.56
17.83
18.15
17.99
17.66
17.22
16.52
15.35
13.60
11.35
8.77
6.03
3.22
0.31
-2.74
-5.90
-9.11
-12.23
-15.17
-17.99
-20.79
-23.73
-26.88
-30.28
-33.88
-37.52
-40.95
-43.74
-45.32
-45.13
-42.79
-38.28
-31.97
-24.54
-16.78
-9.39
-2.89
2.44
6.48
9.25
10.88
11.61
11.81
11.90
12.23
13.09
14.59
16.78
19.54
22.67
25.96
29.14
31.97
34.22
35.67
36.15
35.39
33.23
29.63
24.78
19.06
12.99
6.93
1.02
-4.90
-11.13
-17.94
-25.32
-33.06
-40.70
-47.68
-53.43
-57.41
-59.17
-58.48
-55.39
-50.36
-44.04
-37.14
-30.11
-23.16
-16.22
-9.26
-2.41
3.94
9.25
13.05
15.07
15.36
14.22
12.09
9.41
6.59
3.98
1.91
0.64
0.31
0.83
1.87
2.93
3.49
3.22
2.10
0.36
-1.55
-3.22
-4.34
-4.87
-5.00
-5.05
-5.42
-6.41
-8.16
-10.45
-12.74
-14.28
-14.27
-12.18
-7.95
-2.03
4.74
11.41
17.16
21.55
24.49
26.27
27.35
28.17
29.02
29.91
30.65
30.89
30.41
29.20
27.55
25.90
24.60
23.75
23.20
22.67
21.92
20.85
19.47
17.83
15.95
13.82
11.53
9.28
7.25
5.58
4.14
2.57
0.41
-2.67
-6.71
-11.31
-15.69
-18.90
-20.06
-18.70
-14.87
-9.10
-2.20
4.96
11.69
17.51
22.18
25.54
27.61
28.55
28.68
28.35
27.86
27.31
26.63
25.65
24.33
22.81
21.36
20.33
19.98
20.39
21.45
22.91
24.40
25.52
25.98
25.64
24.65
23.43
22.51
22.32
22.97
24.16
25.31
25.90
25.63
24.70
23.73
23.61
25.30
29.56
36.82
47.11
60.02
74.76
90.42
106.17
121.45
136.15
150.37
164.23
177.58
189.94
200.68
209.30
215.74
220.35
223.67
225.90
226.70
225.15
220.03
210.29
195.20
174.43
147.85
115.60
78.30
37.53
-3.96
-42.60
-74.90
-98.61
-113.25
-120.02
-120.80
-117.23
-110.11
-99.68
-86.39
-71.54
-57.37
-46.37
-40.43
-40.27
-45.49
-55.10
-68.09
-83.39
-99.58
-114.56
-125.68
-130.56
-128.05
-118.97
-105.99
-92.85
-83.02
-78.72
-80.43
-87.05
-96.46
-106.20
-113.95
-118.16
-118.25
-114.77
-108.99
-102.51
-96.44
-91.17
-86.34
-81.31
-75.61
-69.37
-63.20
-57.87
-53.88
-51.25
-49.67
-48.82
-48.57
-49.15
-50.82
-53.71
-57.64
-62.16
-66.77
-71.13
-75.16
-78.99
-82.75
-86.49
-90.01
-93.01
-95.03
-95.58
-94.23
-90.68
-84.96
-77.57
-69.41
-61.48
-54.69
-49.58
-46.33
-44.81
-44.84
-46.22
-48.85
-52.59
-57.26
-62.57
-68.18
-73.88
-79.57
-85.24
-90.78
-95.86
-99.89
-102.31
-102.80
-101.59
-99.44
-97.34
-96.00
-95.30
-94.09
-90.51
-82.76
-70.00
-53.02
-33.99
-15.85
-1.08
9.10
15.11
18.57
21.42
24.98
29.52
34.45
38.86
42.24
44.71
47.06
50.35
55.44
62.69
71.77
81.67
90.90
97.74
100.46
97.50
87.75
70.90
47.83
20.90
-6.31
-29.77
-46.11
-53.53
-52.19
-43.71
-30.39
-14.37
2.72
19.57
34.85
47.06
54.91
57.94
57.00
54.30
52.94
56.12
65.86
81.89
100.92
117.40
125.51
121.85
107.34
87.15
68.48
57.23
55.43
60.85
68.90
75.43
78.75
79.61
79.50
78.73
75.59
67.23
51.50
28.47
0.82
-26.90
-49.82
-64.23
-68.48
-63.20
-50.74
-34.34
-17.15
-1.62
10.88
19.86
25.44
27.85
27.40
24.48
19.80
14.41
9.56
6.37
5.46
6.79
9.66
13.06
15.95
17.53
17.42
15.53
11.92
6.62
-0.42
-9.20
-19.44
-30.49
-41.36
-50.95
-58.43
-63.28
-65.30
-64.59
-61.56
-57.06
-52.39
-49.01
-48.04
-49.81
-53.75
-58.62
-63.00
-65.67
-65.65
-62.18
-54.78
-43.51
-29.34
-14.17
-0.33
10.26
16.81
19.81
20.55
20.33
19.89
19.32
18.39
16.81
14.36
10.83
5.88
-0.84
-9.45
-19.70
-30.88
-42.03
-52.20
-60.72
-67.28
-71.92
-74.98
-76.86
-77.84
-77.93
-76.82
-73.94
-68.82
-61.35
-51.99
-41.80
-32.07
-23.86
-17.58
-12.84
-8.74
-4.31
0.92
6.74
12.51
17.64
21.87
25.19
27.59
28.65
27.82
24.88
20.51
16.32
14.21
15.21
18.67
22.16
22.64
17.90
7.74
-5.94
-20.14
-32.26
-41.20
-47.60
-53.04
-58.86
-65.11
-70.31
-72.13
-68.51
-58.74
-43.84
-26.13
-8.31
7.59
20.78
31.54
40.58
48.32
54.53
58.48
59.46
57.41
52.95
47.23
41.40
36.25
32.13
29.10
27.25
26.66
27.40
29.36
32.09
34.92
37.19
38.38
38.28
36.94
34.65
31.87
29.17
27.17
26.20
26.06
25.87
24.30
20.27
13.62
5.44
-2.09
-6.53
-6.10
-0.28
10.09
23.22
37.10
49.81
59.76
65.62
66.42
61.82
52.49
40.21
27.54
17.14
10.77
8.75
9.91
12.14
13.35
12.36
9.36
5.73
3.28
3.30
5.88
9.82
13.24
14.45
12.67
8.21
2.01
-4.84
-11.67
-18.13
-23.92
-28.49
-31.09
-31.12
-28.61
-24.40
-19.82
-16.02
-13.42
-11.46
-9.00
-4.90
1.36
9.50
18.59
27.49
35.28
41.45
45.95
48.95
50.67
51.24
50.69
49.12
46.76
44.17
42.13
41.50
42.94
46.47
51.31
56.02
58.90
58.68
55.09
48.89
41.50
34.28
27.92
22.30
16.85
11.10
5.04
-0.65
-5.05
-7.31
-6.95
-3.93
1.55
9.15
18.42
28.76
39.35
49.27
57.71
64.20
68.71
71.60
73.37
74.46
75.07
75.20
74.70
73.46
71.41
68.51
64.81
60.40
55.48
50.49
46.03
42.75
41.03
40.85
41.67
42.70
43.06
42.06
39.27
34.40
27.30
17.99
6.69
-6.08
-19.53
-32.79
-45.13
-56.02
-65.09
-72.03
-76.56
-78.42
-77.60
-74.47
-69.80
-64.57
-59.59
-55.38
-51.95
-49.07
-46.50
-44.32
-42.96
-42.93
-44.42
-47.01
-49.63
-51.04
-50.28
-47.06
-41.85
-35.56
-29.20
-23.55
-19.09
-16.08
-14.53
-14.08
-13.95
-13.11
-10.66
-6.36
-0.81
4.61
8.40
9.72
8.81
6.97
5.93
7.10
10.96
17.00
24.16
31.53
38.79
46.40
55.28
66.31
79.94
96.08
114.14
133.22
152.11
169.42
183.77
194.21
200.73
204.32
206.59
208.93
211.80
214.29
214.39
209.70
198.07
177.99
148.65
110.02
63.39
11.82
-39.99
-86.60
-123.58
-149.18
-164.88
-174.38
-181.69
-189.14
-196.53
-201.82
-202.79
-198.50
-189.89
-179.10
-168.33
-158.88
-150.85
-143.63
-136.51
-129.23
-122.07
-115.57
-110.04
-105.30
-100.64
-95.18
-88.26
-79.79
-70.35
-60.92
-52.55
-45.95
-41.32
-38.40
-36.70
-35.72
-35.22
-35.24
-35.97
-37.65
-40.40
-44.06
-48.35
-52.81
-57.12
-61.08
-64.73
-68.15
-71.23
-73.58
-74.48
-73.08
-68.76
-61.31
-50.91
-38.00
-22.97
-6.06
12.51
32.31
52.58
72.30
90.37
105.84
118.16
127.26
133.55
137.74
140.62
142.74
144.12
144.20
142.09
136.94
128.41
116.87
103.33
88.97
74.82
61.46
49.07
37.69
27.38
18.36
10.91
5.24
1.29
-1.25
-2.92
-4.37
-6.17
-8.82
-12.69
-18.02
-24.81
-32.68
-40.89
-48.42
-54.24
-57.74
-58.82
-57.93
-55.84
-53.24
-50.58
-48.10
-45.99
-44.53
-44.15
-45.24
-47.87
-51.64
-55.73
-59.12
-60.91
-60.58
-58.06
-53.63
-47.73
-40.83
-33.32
-25.47
-17.58
-9.91
-2.78
3.56
8.83
12.89
15.75
17.63
18.95
20.23
22.00
24.52
27.70
31.07
33.95
35.66
35.93
35.08
34.01
33.96
36.09
41.01
48.67
58.37
68.99
79.32
88.28
95.11
99.44
101.55
102.30
102.88
104.25
106.52
108.62
108.69
104.83
96.10
82.96
66.92
49.68
32.11
13.74
-6.99
-31.99
-62.55
-98.62
-138.52
-179.17
-216.62
-246.89
-266.74
-274.48
-270.30
-256.34
-236.04
-213.41
-192.14
-174.95
-163.20
-156.89
-154.77
-154.73
-154.33
-151.33
-144.24
-132.60
-116.95
-98.67
-79.53
-61.20
-44.90
-31.12
-19.75
-10.26
-2.01
5.49
12.45
18.76
24.10
28.06
30.39
31.10
30.56
29.41
28.39
27.93
28.05
28.29
27.97
26.53
23.84
20.03
15.48
10.57
5.51
0.37
-4.82
-10.06
-15.28
-20.50
-25.91
-31.49
-36.81
-41.03
-43.15
-42.43
-38.67
-32.30
-24.22
-15.98
-8.82
-3.39
0.13
1.89
2.11
1.12
-0.73
-3.20
-6.93
-12.41
-19.87
-29.12
-39.56
-50.22
-59.79
-66.89
-70.44
-70.68
-67.88
-62.02
-52.84
-40.22
-24.74
-7.52
9.78
31.16
57.14
86.04
115.01
141.55
164.07
181.10
191.18
193.34
188.28
178.29
167.97
162.36
164.60
174.75
188.25
198.60
199.96
189.38
167.21
137.35
105.22
75.26
49.52
27.61
8.88
-6.81
-19.26
-28.38
-33.96
-36.17
-36.00
-34.81
-33.81
-33.54
-34.04
-35.38
-38.08
-43.33
-51.27
-61.62
-73.32
-84.56
-93.16
-97.49
-96.91
-91.98
-84.14
-75.25
-67.32
-61.92
-59.76
-60.53
-63.12
-65.51
-65.84
-62.56
-54.60
-41.70
-24.38
-3.72
18.60
40.62
60.38
76.36
87.87
95.06
98.49
98.87
97.30
94.98
93.16
92.54
93.01
93.59
92.88
89.60
83.15
74.58
65.90
59.29
55.92
55.43
56.42
57.20
56.54
53.78
49.69
45.85
44.37
47.51
57.71
77.67
109.55
153.95
202.48
242.55
260.85
250.91
216.70
169.85
123.34
86.02
60.94
45.90
37.06
31.12
27.45
25.62
25.43
26.08
25.95
23.63
18.23
10.27
1.08
-7.90
-16.19
-24.60
-32.03
-38.54
-44.30
-49.53
-54.06
-57.63
-60.08
-61.85
-64.05
-68.07
-75.14
-84.64
-93.61
-97.15
-90.35
-70.84
-40.64
-6.04
24.74
44.46
50.04
43.11
28.75
13.00
0.62
-5.99
-6.50
-1.83
6.32
15.95
24.85
30.96
32.70
29.42
21.29
9.17
-5.79
-22.33
-38.96
-54.05
-66.26
-75.23
-82.02
-88.88
-98.30
-111.87
-129.51
-149.52
-169.63
-188.13
-204.74
-220.45
-236.75
-254.46
-273.22
-291.37
-306.57
-316.61
-319.91
-315.74
-304.10
-285.55
-260.98
-231.55
-198.77
-164.25
-129.63
-96.28
-64.94
-35.40
-6.47
23.60
56.14
91.27
127.13
160.09
185.68
199.76
199.81
185.53
159.05
124.48
87.40
54.11
30.89
23.14
34.45
65.42
112.70
168.82
223.20
264.12
281.40
268.83
226.10
159.30
79.77
1.67
-61.53
-99.99
-109.25
-90.17
-47.76
10.45
75.53
138.10
189.09
221.21
230.53
217.75
188.14
149.66
109.94
73.58
41.21
10.80
-19.72
-50.51
-79.19
-102.17
-116.57
-121.88
-120.07
-114.51
-108.59
-104.50
-102.85
-103.18
-104.73
-106.99
-109.92
-113.70
-118.50
-124.22
-130.29
-135.67
-138.91
-138.34
-132.57
-121.07
-104.40
-84.23
-62.95
-43.04
-26.67
-15.35
-9.75
-9.32
-12.04
-14.56
-12.74
-3.10
15.79
42.12
71.25
97.19
114.85
121.82
118.85
109.07
96.44
84.15
73.60
64.80
57.18
50.41
44.82
41.07
39.56
40.01
41.45
42.11
40.59
36.43
30.51
24.51
19.99
17.57
16.71
16.29
14.87
11.80
7.30
2.13
-3.11
-8.58
-14.91
-22.67
-29.17
-31.80
-29.53
-24.41
-20.09
-19.38
-22.84
-29.11
-36.04
-41.90
-46.41
-50.19
-53.95
-57.68
-60.50
-61.17
-58.75
-53.04
-44.53
-35.24
-26.09
-17.56
-9.66
-1.89
6.35
15.47
25.67
37.02
49.28
61.93
73.95
83.52
88.46
86.93
78.36
63.94
46.49
29.29
13.48
0.41
-9.58
-16.99
-22.51
-26.69
-29.96
-32.79
-35.86
-39.76
-44.27
-48.35
-50.25
-48.08
-40.75
-28.66
-13.57
1.95
15.55
25.97
32.95
37.01
39.08
39.93
39.96
39.22
37.62
35.15
32.14
29.02
26.26
24.23
23.07
22.64
22.50
22.09
20.91
18.70
15.36
10.99
5.87
0.33
-5.26
-10.61
-15.72
-20.89
-26.74
-34.06
-43.43
-54.87
-67.51
-79.52
-88.56
-92.39
-89.72
-80.65
-66.82
-50.75
-35.04
-21.49
-10.73
-2.19
5.23
12.48
19.94
27.41
34.36
40.39
45.43
49.74
53.65
57.24
60.27
62.28
62.81
61.77
59.36
56.06
52.32
48.37
44.18
39.59
34.47
28.78
22.68
16.33
9.85
3.21
-3.75
-11.22
-19.20
-27.36
-34.98
-40.88
-43.83
-42.82
-37.42
-27.99
-15.51
-1.33
13.17
26.94
39.26
49.79
58.46
65.33
70.65
74.78
78.19
81.37
84.58
87.79
90.70
92.83
93.74
93.25
91.59
89.19
86.57
83.99
81.22
77.62
72.28
64.47
53.95
41.30
27.86
15.37
5.51
-0.75
-3.33
-3.05
-1.19
0.94
2.23
1.86
-0.67
-5.42
-11.97
-19.37
-26.62
-33.01
-38.41
-43.17
-47.34
-50.34
-50.80
-47.36
-39.70
-29.38
-19.49
-13.57
-13.85
-20.27
-30.62
-41.54
-49.71
-52.91
-50.67
-43.70
-33.77
-22.60
-11.77
-2.50
4.59
9.43
12.19
12.57
10.35
5.09
-2.70
-11.96
-21.35
-29.44
-35.16
-37.83
-37.54
-33.70
-25.58
-11.66
8.89
35.39
65.84
97.26
127.06
153.16
176.17
190.82
193.93
185.15
167.50
145.67
122.91
105.69
91.97
79.71
67.93
57.71
50.33
44.64
39.77
34.23
26.60
15.37
0.82
-16.01
-33.14
-48.87
-62.25
-72.88
-80.95
-86.77
-91.32
-95.05
-98.76
-102.99
-108.06
-113.57
-118.09
-119.66
-116.49
-108.07
-95.05
-79.54
-64.20
-51.44
-42.66
-37.80
-35.82
-35.16
-34.63
-33.47
-31.71
-29.94
-28.84
-28.68
-29.01
-28.87
-27.16
-23.28
-17.36
-10.35
-3.57
1.96
6.12
9.72
14.10
20.18
27.70
34.90
38.92
36.87
26.85
8.83
-15.32
-42.44
-69.08
-92.48
-111.09
-124.45
-132.91
-137.03
-137.38
-134.43
-128.53
-120.03
-109.42
-97.28
-84.34
-71.37
-59.07
-47.90
-37.99
-29.18
-21.17
-13.62
-6.03
2.15
11.41
22.08
33.78
45.33
54.82
60.17
59.98
54.38
45.00
34.34
24.89
18.12
14.29
12.73
12.14
11.02
8.03
1.80
-9.03
-25.17
-45.96
-68.41
-87.32
-96.91
-93.12
-75.01
-45.42
-9.79
26.48
59.70
88.87
114.55
136.52
152.37
158.85
153.89
138.40
117.02
95.84
79.76
72.03
71.38
71.93
67.16
54.29
32.78
6.75
-20.00
-45.64
-70.52
-93.02
-112.85
-129.49
-142.05
-150.00
-153.04
-151.62
-146.04
-136.32
-122.63
-105.87
-87.29
-68.30
-50.70
-36.28
-26.98
-23.87
-26.58
-33.14
-40.42
-44.38
-41.14
-28.77
-8.20
16.63
40.76
60.36
74.16
83.42
90.95
99.78
111.56
126.32
140.83
151.57
156.51
156.14
152.38
146.42
138.28
127.36
113.76
98.50
83.68
71.11
61.21
53.64
45.41
33.67
16.54
-6.23
-33.20
-60.59
-83.41
-97.20
-99.72
-91.66
-75.88
-56.13
-33.72
-10.66
12.00
34.03
55.30
75.29
92.95
107.34
117.91
124.65
127.46
126.20
120.22
108.34
89.42
63.51
32.78
1.12
-27.18
-49.52
-65.49
-76.58
-84.74
-90.82
-93.94
-92.26
-84.97
-73.29
-60.67
-50.96
-46.67
-47.97
-53.53
-62.12
-73.91
-90.17
-111.47
-135.76
-157.56
-169.60
-166.00
-145.13
-110.55
-69.30
-28.60
7.15
37.12
62.82
85.51
104.49
117.12
120.38
112.94
96.22
73.86
50.18
28.59
10.79
-2.97
-12.73
-17.83
-16.70
-7.67
9.68
33.29
58.49
79.21
90.11
88.86
77.18
60.11
43.81
33.00
29.08
29.91
31.27
28.97
20.74
7.03
-9.56
-25.58
-38.13
-45.59
-47.71
-45.25
-39.50
-32.15
-25.06
-20.15
-19.07
-22.62
-30.52
-41.39
-53.22
-64.10
-72.79
-78.90
-82.68
-84.68
-85.37
-85.16
-84.45
-83.49
-82.33
-80.72
-77.99
-73.48
-66.90
-58.71
-50.11
-42.34
-36.02
-30.92
-26.33
-21.72
-17.37
-14.36
-13.97
-17.00
-23.02
-30.38
-36.89
-40.61
-40.37
-35.76
-27.01
-14.89
-0.87
13.15
25.33
34.53
40.70
45.04
49.45
55.94
66.94
83.16
103.44
125.51
146.47
163.19
172.63
172.72
163.37
146.97
127.59
109.14
94.23
83.37
75.54
68.62
61.31
53.35
45.04
36.44
26.65
14.58
-0.40
-17.94
-36.44
-53.29
-65.84
-72.67
-70.74
-60.22
-43.14
-22.32
-0.44
20.56
39.62
56.26
70.36
82.06
91.38
98.85
105.25
110.97
115.79
118.74
118.45
113.74
104.06
89.33
70.41
48.93
27.01
6.78
-10.00
-22.41
-30.50
-35.24
-38.18
-40.62
-43.09
-45.42
-47.10
-47.74
-47.53
-47.15
-47.59
-49.92
-54.81
-62.26
-71.52
-80.96
-88.33
-91.40
-88.59
-79.76
-66.37
-50.95
-36.14
-23.72
-14.18
-6.89
-0.90
4.42
9.11
12.89
15.60
17.48
19.14
21.13
23.69
26.53
29.09
30.86
31.61
31.52
30.91
30.00
28.80
27.12
24.70
21.44
17.47
13.14
8.83
4.85
1.35
-1.70
-4.50
-7.37
-10.54
-14.06
-17.76
-21.27
-23.99
-25.24
-24.39
-20.93
-14.68
-5.84
4.95
16.64
28.11
38.31
46.60
52.73
56.88
59.38
60.59
60.79
60.07
58.42
55.64
51.50
45.83
38.63
30.21
21.06
11.74
2.79
-5.48
-13.01
-19.86
-26.26
-32.49
-38.80
-45.52
-52.68
-60.07
-67.16
-73.25
-77.72
-80.27
-81.04
-80.40
-78.63
-75.67
-71.08
-64.25
-54.84
-42.99
-29.46
-15.46
-2.25
8.98
17.37
22.38
23.77
21.64
16.43
8.92
0.12
-8.93
-17.40
-24.82
-31.05
-36.30
-40.90
-45.21
-49.46
-53.80
-58.27
-62.77
-67.21
-71.41
-75.29
-78.75
-81.73
-84.07
-85.65
-86.40
-86.58
-86.89
-88.32
-91.92
-98.27
-107.14
-117.35
-127.13
-134.67
-138.90
-139.78
-138.22
-135.58
-133.03
-131.21
-130.30
-130.31
-131.46
-134.34
-139.52
-147.08
-156.36
-166.09
-174.96
-182.22
-187.82
-192.08
-194.98
-195.69
-192.68
-184.35
-169.87
-149.84
-126.17
-101.68
-79.18
-60.80
-47.71
-39.99
-36.85
-36.83
-38.13
-39.00
-38.08
-34.44
-27.72
-17.74
-4.17
13.71
37.14
68.08
109.02
162.36
229.03
306.94
389.91
468.19
530.82
568.89
578.51
562.00
526.66
482.04
436.91
397.32
366.31
344.66
331.63
325.56
323.77
322.87
319.38
310.78
296.29
276.98
255.07
233.18
213.49
197.50
186.17
180.07
179.27
183.03
189.40
195.33
197.21
191.92
177.95
155.73
127.40
95.75
63.26
31.41
0.84
-28.20
-55.19
-79.23
-99.32
-114.92
-126.52
-135.51
-143.80
-153.04
-164.29
-177.89
-193.67
-211.49
-231.38
-253.58
-278.26
-305.33
-334.28
-364.25
-394.43
-424.32
-453.88
-483.16
-511.79
-538.47
-561.25
-578.37
-589.06
-593.98
-594.40
-591.26
-584.19
-571.61
-551.82
-524.30
-490.53
-453.51
-416.51
-381.72
-349.56
-319.23
-289.74
-260.79
-232.88
-206.92
-183.50
-162.58
-143.51
-125.47
-107.82
-90.31
-73.19
-56.96
-42.13
-28.99
-17.54
-7.43
1.83
10.74
19.60
28.47
37.20
45.51
53.21
60.51
67.73
74.77
81.75
89.08
96.98
105.44
114.16
122.68
130.83
138.47
145.11
150.74
155.82
160.85
166.21
172.02
178.21
185.39
193.87
202.50
210.57
218.44
226.83
237.14
251.26
270.81
297.84
331.12
362.57
384.02
390.82
381.74
359.65
330.42
300.47
278.91
271.08
272.01
278.43
291.52
311.92
338.69
369.06
399.52
434.25
477.35
520.49
558.71
592.01
617.63
630.95
627.83
606.81
578.96
555.78
532.15
507.34
487.83
477.51
477.21
485.54
445.01
325.27
207.62
124.45
55.65
-5.99
-64.97
-123.81
-182.79
-240.47
-285.99
-311.75
-329.68
-348.04
-366.56
-384.15
-399.86
-413.10
-423.86
-426.01
-415.72
-403.38
-395.45
-398.30
-413.98
-440.25
-471.19
-499.89
-517.10
-516.83
-506.68
-492.45
-475.44
-455.59
-432.56
-406.44
-377.44
-343.72
-303.94
-260.91
-215.70
-167.18
-113.82
-55.53
5.49
64.80
117.42
158.69
184.58
195.06
193.83
186.56
178.32
171.99
167.99
165.15
161.91
157.34
151.36
144.20
136.10
126.78
115.59
102.07
86.24
68.60
49.91
30.75
11.24
-8.64
-28.95
-49.47
-69.70
-89.04
-107.12
-123.73
-138.53
-150.74
-158.89
-161.09
-155.69
-142.07
-121.16
-95.40
-68.12
-42.81
-22.30
-8.27
-1.11
0.01
-3.09
-8.05
-12.45
-14.34
-12.64
-7.34
0.67
9.83
18.46
25.15
29.15
30.54
30.17
29.17
28.59
28.98
30.23
31.72
32.70
32.49
30.75
27.39
22.50
16.29
9.11
1.57
-5.42
-10.73
-13.27
-12.33
-7.75
0.06
10.31
22.22
35.18
48.80
62.74
76.39
88.85
99.03
106.12
109.92
110.93
110.05
108.12
105.54
102.26
97.90
92.12
84.81
76.15
66.47
56.19
45.66
35.13
24.76
14.63
4.73
-4.85
-13.86
-21.93
-28.69
-34.12
-38.68
-43.29
-48.89
-55.97
-64.25
-72.61
-79.49
-83.44
-83.49
-79.35
-71.30
-59.93
-46.08
-30.73
-15.07
-0.42
12.00
21.50
28.05
32.34
35.44
38.30
41.44
44.86
48.17
50.81
52.37
52.67
52.10
51.24
50.61
50.30
49.94
48.60
45.10
38.72
29.47
18.61
7.99
-0.93
-7.84
-13.57
-19.89
-28.49
-40.06
-53.89
-67.60
-78.32
-84.00
-83.88
-77.77
-66.77
-53.01
-39.23
-28.41
-21.21
-16.11
-9.96
1.14
21.76
53.15
91.84
130.32
158.68
171.78
170.31
160.11
150.39
152.80
174.83
217.07
273.06
329.95
377.87
410.51
425.37
423.89
413.39
401.18
391.83
385.85
378.05
366.81
352.43
336.32
296.71
222.85
118.03
-0.11
-92.06
-154.01
-192.45
-214.38
-229.50
-241.23
-247.06
-244.68
-234.09
-218.52
-205.29
-196.71
-195.64
-202.48
-215.97
-231.45
-244.66
-252.98
-256.23
-258.27
-260.68
-263.18
-264.85
-264.87
-261.55
-254.31
-242.24
-226.53
-210.57
-195.52
-181.42
-167.73
-153.74
-138.41
-121.59
-104.29
-88.80
-78.07
-72.95
-72.29
-73.43
-73.08
-68.22
-57.32
-40.81
-21.01
-1.48
14.83
26.05
31.81
32.91
30.89
27.29
23.32
19.47
15.88
12.71
10.28
9.10
9.48
11.36
14.35
17.94
21.83
26.03
30.66
35.58
40.11
43.14
43.57
40.90
35.38
27.89
19.43
10.75
2.16
-6.20
-13.97
-20.41
-24.54
-25.56
-23.23
-18.08
-11.26
-4.09
2.26
7.05
10.01
11.23
11.06
9.92
8.19
6.16
3.96
1.72
-0.46
-2.35
-3.68
-4.20
-3.86
-2.84
-1.59
-0.57
-0.20
-0.55
-1.46
-2.49
-3.10
-2.79
-1.27
1.42
4.88
8.34
10.92
12.04
11.67
10.45
9.50
9.92
12.36
16.67
21.99
27.15
31.14
33.46
34.18
33.76
32.78
31.77
31.15
31.22
32.14
33.87
36.17
38.63
40.77
42.31
43.11
43.25
42.86
42.09
41.04
39.84
38.76
38.30
39.18
42.34
48.57
58.13
70.31
83.32
94.59
101.67
103.20
99.56
92.69
85.23
79.50
76.70
76.95
79.80
84.78
91.60
99.74
107.95
114.29
116.66
113.78
105.94
95.04
83.75
74.28
67.49
62.71
58.48
53.60
47.74
41.53
35.97
31.68
28.52
25.74
22.55
18.58
13.97
9.11
4.10
-1.34
-7.63
-14.62
-21.37
-26.43
-28.74
-28.50
-27.24
-27.16
-29.99
-36.10
-44.46
-53.39
-61.52
-68.33
-73.88
-78.29
-81.24
-82.15
-80.74
-77.54
-73.86
-71.17
-70.36
-71.30
-73.12
-74.94
-76.47
-78.07
-80.30
-83.18
-85.81
-86.62
-84.23
-78.31
-70.02
-61.68
-55.67
-53.40
-54.69
-57.97
-61.17
-62.76
-62.31
-60.46
-58.31
-56.66
-55.62
-54.63
-52.84
-49.49
-44.07
-36.36
-26.26
-13.92
0.18
14.99
28.92
40.02
46.51
47.28
42.39
33.01
21.02
8.36
-3.60
-14.39
-24.15
-33.31
-42.11
-50.41
-58.00
-64.83
-71.25
-77.73
-84.50
-91.16
-96.76
-100.28
-101.22
-100.04
-98.10
-97.17
-98.68
-103.23
-110.31
-118.52
-125.97
-130.77
-131.57
-127.86
-120.06
-109.33
-97.16
-84.94
-73.60
-63.57
-55.00
-47.92
-42.42
-38.53
-36.13
-34.84
-34.15
-33.63
-32.97
-32.08
-30.79
-28.69
-25.17
-19.65
-12.19
-3.65
4.46
10.74
14.64
16.76
18.29
20.12
22.13
23.25
22.12
18.03
11.32
3.05
-5.76
-14.74
-24.17
-34.39
-45.14
-55.30
-63.30
-67.80
-68.17
-64.44
-56.97
-46.18
-32.58
-17.12
-1.28
13.11
24.52
32.17
36.33
38.02
38.43
38.34
37.88
36.80
34.75
31.83
28.66
26.27
25.59
26.97
30.01
33.67
36.75
38.24
37.71
35.29
31.47
26.90
22.26
18.13
14.93
12.75
11.20
9.50
6.80
2.59
-2.87
-8.60
-13.27
-15.76
-15.65
-13.19
-9.06
-3.98
1.67
7.80
14.38
21.32
28.24
34.66
40.14
44.43
47.51
49.50
50.63
51.10
51.16
51.13
51.34
52.05
53.23
54.47
55.02
54.04
50.85
45.30
37.82
29.39
21.19
14.30
9.37
6.46
5.08
4.37
3.31
1.03
-3.10
-9.23
-16.95
-25.31
-32.89
-38.13
-39.76
-37.16
-30.60
-21.16
-10.37
0.27
9.67
17.39
23.45
28.13
31.69
34.25
35.77
36.15
35.41
33.70
31.35
28.79
26.40
24.45
22.94
21.74
20.60
19.33
17.88
16.31
14.70
13.08
11.40
9.52
7.36
4.94
2.40
-0.12
-2.65
-5.37
-8.44
-11.86
-15.14
-17.44
-17.70
-15.08
-9.36
-1.09
8.57
18.24
26.76
33.47
38.30
41.51
43.41
44.22
43.99
42.79
40.79
38.31
35.77
33.47
31.50
29.74
27.98
26.16
24.35
22.74
21.46
20.48
19.55
18.31
16.44
13.76
10.34
6.34
1.89
-3.00
-8.44
-14.55
-21.14
-27.58
-32.78
-35.52
-34.84
-30.38
-22.55
-12.43
-1.36
9.40
18.90
26.68
32.67
37.04
40.08
42.03
42.98
42.89
41.73
39.56
36.68
33.56
30.69
28.41
26.78
25.64
24.67
23.59
22.16
20.29
17.97
15.28
12.37
9.35
6.27
3.03
-0.55
-4.71
-9.61
-15.23
-21.32
-27.39
-32.73
-36.52
-37.96
-36.49
-31.99
-24.81
-15.75
-5.80
4.14
13.46
21.82
29.05
35.10
39.86
43.28
45.41
46.38
46.43
45.74
44.49
42.79
40.79
38.61
36.41
34.30
32.33
30.48
28.65
26.70
24.45
21.82
18.75
15.39
12.02
8.86
6.00
3.20
0.03
-3.91
-8.68
-13.86
-18.58
-21.83
-22.86
-21.35
-17.54
-12.04
-5.63
0.98
7.23
12.77
17.47
21.37
24.64
27.43
29.75
31.45
32.30
32.15
31.07
29.37
27.48
25.85
24.73
24.09
23.75
23.46
23.04
22.47
21.89
21.35
20.85
20.22
19.13
17.19
14.17
10.09
5.25
0.12
-4.93
-9.65
-14.01
-17.91
-21.17
-23.40
-24.20
-23.38
-21.15
-18.10
-14.90
-12.22
-10.37
-9.38
-9.17
-9.67
-10.88
-12.77
-15.23
-17.87
-20.16
-21.52
-21.51
-20.04
-17.49
-14.48
-11.67
-9.54
-8.16
-7.31
-6.69
-6.12
-5.66
-5.52
-5.97
-7.09
-8.77
-10.76
-12.85
-14.92
-17.00
-19.21
-21.59
-24.04
-26.28
-27.91
-28.44
-27.52
-25.01
-21.06
-16.03
-10.40
-4.59
1.11
6.54
11.58
16.08
19.80
22.47
23.92
24.16
23.41
22.04
20.39
18.69
17.04
15.43
13.89
12.51
11.44
10.74
10.36
10.10
9.74
9.14
8.33
7.44
6.58
5.74
4.67
3.05
0.53
-3.05
-7.62
-12.79
-17.99
-22.53
-25.73
-27.12
-26.56
-24.31
-20.90
-17.01
-13.25
-10.04
-7.50
-5.58
-4.13
-3.03
-2.22
-1.78
-1.88
-2.64
-4.11
-6.19
-8.65
-11.24
-13.82
-16.36
-18.89
-21.44
-23.89
-25.97
-27.31
-27.62
-26.77
-24.85
-22.15
-19.08
-16.10
-13.62
-12.04
-11.69
-12.80
-15.38
-19.14
-23.47
-27.55
-30.43
-31.35
-29.84
-25.92
-20.05
-13.03
-5.77
0.87
6.31
10.29
12.91
14.51
15.53
16.32
17.07
17.77
18.25
18.36
18.05
17.39
16.57
15.77
15.05
14.38
13.59
12.58
11.33
9.96
8.61
7.40
6.27
5.03
3.39
1.11
-1.89
-5.56
-9.68
-13.91
-17.90
-21.24
-23.54
-24.56
-24.23
-22.72
-20.37
-17.63
-14.88
-12.38
-10.15
-8.01
-5.70
-2.99
0.22
3.81
7.54
11.13
14.29
16.87
18.76
19.89
20.22
19.80
18.77
17.43
16.18
15.32
14.97
14.95
14.87
14.30
12.86
10.36
6.79
2.41
-2.40
-7.09
-11.17
-14.36
-16.81
-18.99
-21.55
-24.92
-29.02
-33.26
-36.64
-38.25
-37.57
-34.67
-30.14
-24.85
-19.66
-15.22
-11.94
-9.90
-8.96
-8.84
-9.17
-9.64
-9.99
-10.10
-9.89
-9.34
-8.50
-7.44
-6.34
-5.37
-4.67
-4.30
-4.19
-4.21
-4.24
-4.16
-4.03
-3.92
-3.90
-4.07
-4.47
-5.20
-6.34
-7.99
-10.20
-12.85
-15.61
-17.96
-19.34
-19.26
-17.51
-14.24
-9.86
-4.96
-0.10
4.32
8.10
11.23
13.75
15.72
17.16
18.06
18.44
18.37
17.99
17.45
16.86
16.31
15.84
15.41
14.99
14.52
13.91
13.02
11.74
9.98
7.79
5.30
2.67
0.05
-2.55
-5.25
-8.28
-11.81
-15.90
-20.40
-24.84
-28.63
-31.05
-31.54
-29.84
-26.10
-20.80
-14.63
-8.26
-2.19
3.28
8.07
12.12
15.44
18.02
19.84
20.90
21.24
21.00
20.37
19.58
18.83
18.30
18.08
18.13
18.26
18.16
17.48
15.88
13.20
9.54
5.25
0.85
-3.13
-6.34
-8.71
-10.44
-11.95
-13.69
-16.02
-19.06
-22.61
-26.13
-28.87
-30.07
-29.22
-26.18
-21.30
-15.17
-8.53
-1.97
4.12
9.54
14.16
17.90
20.64
22.32
22.96
22.69
21.75
20.44
19.05
17.81
16.86
16.31
16.13
16.19
16.23
15.93
14.99
13.24
10.70
7.61
4.26
0.96
-2.13
-5.05
-7.96
-11.13
-14.72
-18.73
-22.99
-27.07
-30.35
-32.17
-32.02
-29.60
-25.02
-18.71
-11.32
-3.57
3.96
10.82
16.75
21.57
25.22
27.72
29.17
29.80
29.84
29.54
29.04
28.40
27.65
26.74
25.71
24.57
23.38
22.14
20.82
19.31
17.44
15.13
12.30
9.03
5.50
1.90
-1.62
-4.94
-7.99
-10.79
-13.35
-15.82
-18.38
-21.24
-24.51
-28.07
-31.52
-34.19
-35.38
-34.48
-31.28
-25.93
-18.95
-11.10
-3.15
4.27
10.70
15.93
19.90
22.62
24.17
24.73
24.57
24.09
23.63
23.41
23.44
23.52
23.37
22.77
21.72
20.34
18.86
17.39
15.91
14.22
12.21
9.78
7.01
4.03
1.01
-1.93
-4.68
-7.20
-9.47
-11.56
-13.66
-16.02
-18.84
-22.19
-25.82
-29.20
-31.64
-32.44
-31.15
-27.69
-22.34
-15.63
-8.22
-0.75
6.29
12.53
17.75
21.84
24.76
26.57
27.39
27.43
26.88
25.99
24.94
23.88
22.87
21.93
21.00
20.04
18.97
17.73
16.28
14.63
12.79
10.76
8.52
6.04
3.31
0.36
-2.69
-5.66
-8.41
-10.91
-13.32
-15.85
-18.79
-22.21
-25.98
-29.68
-32.67
-34.30
-34.07
-31.81
-27.69
-22.25
-16.13
-9.89
-3.96
1.50
6.41
10.75
14.38
17.17
19.00
19.90
20.06
19.77
19.32
18.87
18.44
17.87
16.97
15.63
13.95
12.13
10.40
8.92
7.60
6.19
4.47
2.31
-0.18
-2.73
-5.03
-6.90
-8.32
-9.43
-10.48
-11.67
-13.21
-15.19
-17.57
-20.13
-22.46
-24.04
-24.35
-23.07
-20.12
-15.78
-10.52
-4.93
0.45
5.20
9.03
11.78
13.47
14.24
14.31
13.92
13.27
12.49
11.62
10.65
9.62
8.58
7.59
6.69
5.94
5.26
4.54
3.70
2.70
1.53
0.24
-1.15
-2.64
-4.25
-5.98
-7.78
-9.56
-11.30
-13.05
-15.03
-17.45
-20.43
-23.85
-27.34
-30.34
-32.25
-32.59
-31.16
-28.05
-23.63
-18.43
-12.99
-7.78
-3.11
0.92
4.30
7.09
9.35
11.10
12.36
13.19
13.65
13.83
13.77
13.47
13.00
12.37
11.68
11.00
10.34
9.64
8.80
7.70
6.28
4.52
2.45
0.14
-2.30
-4.78
-7.22
-9.56
-11.81
-14.06
-16.36
-18.67
-20.79
-22.34
-22.91
-22.17
-20.04
-16.67
-12.41
-7.65
-2.80
1.82
5.96
9.45
12.23
14.31
15.81
16.83
17.45
17.64
17.35
16.52
15.20
13.54
11.74
9.97
8.35
6.92
5.65
4.48
3.33
2.08
0.62
-1.12
-3.12
-5.27
-7.43
-9.51
-11.51
-13.59
-15.90
-18.52
-21.41
-24.33
-26.90
-28.74
-29.49
-28.90
-26.91
-23.61
-19.23
-14.15
-8.82
-3.66
0.98
4.91
8.10
10.53
12.28
13.38
13.89
13.87
13.45
12.77
12.03
11.35
10.82
10.42
10.03
9.49
8.69
7.64
6.41
5.13
3.87
2.54
1.01
-0.87
-3.12
-5.59
-8.03
-10.24
-12.24
-14.24
-16.58
-19.51
-23.00
-26.71
-30.01
-32.22
-32.84
-31.65
-28.80
-24.69
-19.79
-14.57
-9.32
-4.24
0.59
5.03
8.94
12.13
14.46
15.90
16.57
16.74
16.72
16.67
16.62
16.41
15.86
14.86
13.51
12.08
10.89
10.12
9.73
9.44
8.89
7.81
6.09
3.86
1.35
-1.18
-3.59
-5.88
-8.12
-10.44
-12.90
-15.58
-18.47
-21.53
-24.60
-27.38
-29.48
-30.41
-29.81
-27.52
-23.68
-18.68
-13.06
-7.35
-1.96
2.89
7.10
10.65
13.54
15.75
17.29
18.24
18.78
19.15
19.56
20.17
20.97
21.87
22.70
23.37
23.86
24.32
24.91
25.81
27.10
28.70
30.34
31.63
32.09
31.24
28.76
24.50
18.58
11.34
3.31
-4.94
-12.87
-20.02
-26.11
-30.94
-34.44
-36.54
-37.22
-36.53
-34.60
-31.64
-27.97
-23.93
-19.76
-15.64
-11.61
-7.79
-4.35
-1.61
0.13
0.71
0.30
-0.66
-1.59
-2.00
-1.66
-0.65
0.75
2.18
3.41
4.30
4.79
4.80
4.20
2.83
0.61
-2.38
-5.83
-9.31
-12.37
-14.75
-16.47
-17.87
-19.40
-21.53
-24.45
-28.08
-31.95
-35.43
-37.79
-38.45
-37.05
-33.60
-28.42
-22.11
-15.37
-8.87
-3.14
1.57
5.24
8.02
10.21
12.06
13.74
15.23
16.36
16.95
16.86
16.10
14.83
13.33
11.84
10.52
9.44
8.63
8.04
7.63
7.28
6.77
5.91
4.51
2.62
0.40
-1.86
-3.91
-5.64
-7.16
-8.68
-10.38
-12.36
-14.47
-16.33
-17.44
-17.36
-15.79
-12.73
-8.47
-3.51
1.61
6.45
10.85
14.80
18.44
21.83
24.90
27.43
29.21
30.10
30.19
29.80
29.27
28.85
28.59
28.33
27.83
26.89
25.40
23.39
20.89
17.96
14.67
11.23
7.97
5.28
3.53
2.84
3.06
3.79
4.48
4.68
4.06
2.46
-0.11
-3.53
-7.56
-11.80
-15.67
-18.57
-19.97
-19.51
-17.21
-13.35
-8.40
-2.97
2.39
7.24
11.27
14.34
16.40
17.50
17.80
17.44
16.67
15.70
14.78
14.07
13.61
13.31
12.98
12.44
11.56
10.31
8.75
6.98
5.03
2.92
0.65
-1.78
-4.26
-6.66
-8.87
-10.83
-12.63
-14.48
-16.66
-19.42
-22.93
-27.13
-31.83
-36.56
-40.68
-43.44
-44.16
-42.37
-38.02
-31.60
-23.95
-16.08
-8.86
-2.81
1.89
5.42
8.01
9.94
11.33
12.36
13.21
14.07
15.08
16.28
17.55
18.72
19.63
20.22
20.54
20.69
20.69
20.47
19.80
18.48
16.38
13.56
10.24
6.70
3.20
-0.12
-3.30
-6.46
-9.77
-13.30
-17.05
-20.76
-24.06
-26.47
-27.57
-27.07
-24.97
-21.54
-17.16
-12.23
-7.07
-1.88
3.17
7.84
11.84
14.89
16.85
17.84
18.14
18.06
17.82
17.46
16.93
16.18
15.29
14.47
13.91
13.70
13.72
13.66
13.16
12.01
10.15
7.76
5.07
2.24
-0.61
-3.48
-6.39
-9.39
-12.52
-15.84
-19.36
-22.97
-26.41
-29.17
-30.67
-30.37
-27.95
-23.48
-17.36
-10.28
-3.03
3.66
9.30
13.69
16.90
19.18
20.82
22.00
22.73
22.91
22.38
21.08
19.08
16.70
14.38
12.61
11.79
12.10
13.42
15.36
17.34
18.73
19.03
17.94
15.40
11.57
6.74
1.30
-4.36
-9.84
-14.80
-19.04
-22.52
-25.35
-27.67
-29.50
-30.66
-30.76
-29.35
-26.15
-21.25
-15.14
-8.57
-2.31
3.14
7.55
11.02
13.70
15.77
17.31
18.40
19.07
19.37
19.33
18.94
18.18
17.02
15.51
13.78
12.04
10.53
9.44
8.83
8.55
8.29
7.63
6.24
4.01
1.09
-2.21
-5.54
-8.69
-11.66
-14.56
-17.56
-20.74
-24.07
-27.39
-30.45
-32.89
-34.28
-34.25
-32.50
-29.01
-23.98
-17.84
-11.12
-4.40
1.85
7.27
11.64
14.92
17.26
18.93
20.22
21.37
22.39
23.16
23.45
23.08
22.01
20.34
18.36
16.35
14.52
13.00
11.71
10.50
9.16
7.44
5.18
2.29
-1.21
-5.16
-9.34
-13.46
-17.33
-20.85
-24.04
-27.08
-30.03
-32.84
-35.20
-36.64
-36.67
-34.95
-31.46
-26.50
-20.60
-14.36
-8.28
-2.68
2.23
6.36
9.63
11.94
13.23
13.55
13.09
12.18
11.19
10.44
10.12
10.23
10.69
11.43
12.35
13.38
14.38
15.14
15.36
14.83
13.47
11.44
9.06
6.70
4.66
3.11
2.09
1.52
1.29
1.25
1.21
1.01
0.46
-0.45
-1.56
-2.52
-2.92
-2.38
-0.69
2.08
5.65
9.59
13.47
16.89
19.57
21.28
21.95
21.58
20.30
18.37
16.15
14.04
12.42
11.54
11.42
11.86
12.38
12.43
11.58
9.63
6.76
3.39
-0.03
-3.11
-5.75
-8.07
-10.24
-12.38
-14.56
-16.79
-19.08
-21.51
-24.18
-27.08
-29.98
-32.42
-33.81
-33.60
-31.51
-27.63
-22.36
-16.36
-10.28
-4.64
0.19
4.03
6.81
8.50
9.12
8.74
7.53
5.80
3.90
2.23
1.04
0.44
0.37
0.59
0.82
0.86
0.58
0.02
-0.71
-1.43
-2.04
-2.50
-2.86
-3.25
-3.80
-4.65
-5.90
-7.66
-9.99
-12.98
-16.52
-20.29
-23.76
-26.25
-27.14
-26.07
-23.08
-18.56
-13.13
-7.42
-1.95
3.01
7.40
11.22
14.50
17.22
19.31
20.72
21.40
21.40
20.83
19.87
18.70
17.46
16.24
15.03
13.79
12.45
10.98
9.38
7.70
5.99
4.28
2.55
0.81
-1.00
-2.85
-4.74
-6.66
-8.72
-11.10
-13.97
-17.35
-21.08
-24.65
-27.46
-28.91
-28.65
-26.62
-23.06
-18.42
-13.21
-7.90
-2.87
1.67
5.61
8.95
11.78
14.16
16.15
17.74
18.90
19.58
19.72
19.36
18.58
17.56
16.50
15.54
14.71
13.89
12.92
11.62
9.92
7.91
5.72
3.49
1.30
-0.82
-2.94
-5.09
-7.30
-9.59
-11.95
-14.25
-16.26
-17.58
-17.71
-16.26
-13.09
-8.49
-3.06
2.48
7.50
11.75
15.28
18.41
21.44
24.53
27.61
30.38
32.52
33.78
34.12
33.70
32.87
32.05
31.54
31.50
31.88
32.46
32.97
33.24
33.21
32.97
32.71
32.64
32.90
33.59
34.87
36.79
39.25
41.80
43.78
44.55
43.90
42.23
40.32
38.93
38.33
38.31
38.56
39.24
41.22
45.70
53.42
63.96
75.52
85.54
91.57
92.12
86.88
76.67
62.99
47.84
33.40
21.68
13.97
10.49
10.13
10.83
10.36
7.16
0.82
-7.95
-17.85
-27.61
-36.48
-44.30
-51.27
-57.70
-63.78
-69.47
-74.64
-79.13
-82.86
-85.70
-87.48
-87.65
-85.49
-80.14
-71.06
-58.28
-42.64
-25.60
-8.85
6.19
18.78
28.82
36.74
43.11
48.37
52.63
55.78
57.58
57.86
56.62
54.01
50.41
46.28
42.15
38.37
35.06
32.11
29.23
26.19
22.92
19.48
16.09
12.92
10.03
7.39
4.89
2.41
-0.27
-3.42
-7.40
-12.49
-18.70
-25.62
-32.44
-38.14
-41.88
-43.31
-42.68
-40.74
-38.37
-36.21
-34.44
-32.89
-31.28
-29.55
-28.05
-27.41
-28.38
-31.40
-36.38
-42.69
-49.24
-54.86
-58.64
-60.11
-59.39
-57.02
-53.79
-50.38
-47.28
-44.70
-42.70
-41.25
-40.32
-39.88
-39.86
-40.17
-40.77
-41.79
-43.44
-45.95
-49.43
-53.61
-57.87
-61.34
-63.15
-62.67
-59.72
-54.58
-47.91
-40.56
-33.30
-26.72
-21.14
-16.60
-13.03
-10.22
-7.99
-6.03
-4.11
-1.98
0.39
2.83
4.98
6.46
7.02
6.71
5.94
5.30
5.34
6.38
8.30
10.58
12.42
12.98
11.71
8.61
4.13
-0.92
-5.75
-9.95
-13.63
-17.34
-21.62
-26.66
-32.02
-36.79
-39.87
-40.31
-37.62
-31.85
-23.74
-14.66
-6.33
-0.48
1.75
0.27
-3.78
-8.53
-12.06
-13.29
-12.40
-10.51
-8.90
-8.23
-8.22
-7.97
-6.77
-4.64
-2.51
-1.67
-3.00
-6.65
-12.10
-18.60
-25.40
-31.71
-36.38
-38.14
-36.38
-32.11
-28.37
-29.26
-37.95
-54.68
-76.17
-96.93
-111.99
-119.14
-119.57
-116.48
-112.89
-109.99
-107.08
-102.94
-97.17
-90.68
-84.88
-80.52
-76.87
-71.99
-63.88
-51.53
-35.59
-17.98
-1.03
13.53
25.19
34.70
43.61
53.45
64.86
77.18
88.58
96.82
100.23
98.52
92.81
85.16
77.55
71.02
65.52
60.09
53.63
45.48
35.75
25.30
15.37
7.20
1.58
-1.30
-1.78
-0.54
1.65
4.20
6.77
9.21
11.41
13.22
14.42
14.76
14.22
13.08
11.88
11.31
11.79
13.23
14.86
15.53
14.07
9.96
3.55
-4.16
-12.07
-19.54
-26.60
-33.76
-41.47
-49.65
-57.67
-64.65
-69.89
-73.15
-74.70
-75.07
-74.81
-74.45
-74.39
-74.91
-75.97
-77.01
-76.86
-73.91
-66.22
-51.90
-29.60
0.98
38.53
80.03
121.17
157.61
186.23
205.90
217.50
222.89
223.84
221.23
215.20
205.67
192.85
177.43
160.14
141.34
120.91
98.68
75.07
51.53
30.45
14.67
6.62
7.46
16.55
31.34
48.14
62.99
72.96
76.65
74.33
67.34
57.46
46.39
35.60
26.47
20.27
18.01
19.98
25.52
33.12
41.12
48.38
54.72
60.65
66.63
72.34
76.33
76.51
71.08
59.47
42.84
23.60
4.41
-12.85
-27.73
-41.01
-54.04
-67.83
-82.66
-98.11
-113.39
-127.68
-140.33
-150.76
-158.39
-162.74
-163.77
-162.09
-159.20
-156.86
-156.56
-158.70
-162.37
-165.67
-166.42
-163.11
-155.37
-144.16
-131.17
-118.17
-106.34
-95.92
-86.37
-76.88
-66.88
-56.27
-45.45
-35.02
-25.53
-17.27
-10.20
-4.08
1.59
7.20
12.92
18.51
23.59
27.93
31.80
36.01
41.50
48.86
57.88
67.76
77.41
85.96
92.76
97.11
98.09
94.54
85.73
72.00
55.08
37.63
22.37
11.07
4.02
0.38
-1.38
-2.55
-3.69
-4.50
-4.04
-1.41
3.76
10.88
18.71
25.86
31.42
35.35
38.25
40.94
43.95
47.40
51.28
55.91
61.97
70.17
80.52
91.70
101.10
105.55
102.51
91.22
73.14
51.45
29.96
11.99
-0.31
-6.01
-5.33
0.48
9.24
17.98
23.69
24.35
19.93
12.59
5.92
3.14
5.24
10.36
14.51
13.64
5.61
-8.80
-26.54
-43.70
-57.10
-65.27
-67.95
-65.22
-56.56
-40.86
-17.73
10.77
39.42
61.02
69.19
61.38
40.13
12.11
-14.66
-33.72
-41.68
-38.09
-24.03
-0.95
29.64
65.78
104.77
143.31
178.20
206.76
226.68
235.87
232.59
216.32
188.65
153.66
117.09
84.42
59.55
43.83
36.27
34.63
36.33
39.08
41.13
41.24
38.56
32.71
23.78
12.55
0.32
-11.07
-19.85
-24.93
-26.38
-25.60
-24.63
-25.34
-28.68
-34.48
-41.69
-49.21
-56.43
-63.53
-71.42
-81.20
-93.67
-109.01
-126.82
-146.42
-167.33
-189.51
-213.07
-237.56
-261.17
-280.59
-291.64
-290.56
-275.76
-248.80
-214.43
-179.17
-149.44
-129.46
-120.17
-119.33
-122.63
-125.50
-124.46
-117.72
-105.09
-87.38
-65.86
-42.17
-18.35
3.39
21.00
33.43
40.99
45.19
47.88
50.44
53.29
55.99
57.88
58.42
57.59
55.75
53.47
51.38
50.04
49.86
50.92
52.92
55.18
56.94
57.59
56.98
55.41
53.47
51.97
51.62
52.87
55.70
59.65
63.76
66.85
67.79
65.88
60.96
53.38
44.06
34.34
26.07
21.37
22.06
28.85
40.66
54.61
66.84
73.86
74.07
68.35
59.61
51.18
45.29
42.03
39.60
35.51
28.08
17.26
4.63
-7.48
-17.09
-23.30
-26.48
-27.74
-28.33
-29.05
-30.31
-32.26
-35.21
-39.58
-45.62
-52.96
-60.34
-65.83
-67.53
-64.27
-56.34
-45.26
-33.15
-21.73
-11.89
-3.62
3.29
8.65
11.58
10.90
6.06
-2.04
-10.99
-17.72
-20.03
-17.75
-12.95
-9.03
-8.95
-13.67
-21.67
-29.69
-34.34
-33.56
-27.33
-17.32
-5.76
5.53
15.71
24.83
33.29
41.33
48.60
53.99
56.13
54.25
49.07
43.11
39.76
41.73
49.30
59.72
68.37
70.90
65.47
53.42
38.09
22.54
7.84
-7.08
-23.92
-42.86
-61.54
-75.59
-80.50
-73.48
-54.34
-25.32
9.77
46.18
78.48
101.04
108.84
99.04
72.39
33.78
-8.99
-47.52
-75.44
-89.96
-91.81
-84.00
-70.07
-53.14
-35.53
-19.15
-5.66
3.62
8.19
8.63
6.46
3.65
1.80
1.70
3.20
5.57
7.92
9.53
9.86
8.51
5.35
0.62
-4.89
-10.14
-14.24
-16.94
-18.87
-21.22
-25.10
-30.76
-37.41
-43.45
-47.14
-47.30
-43.56
-36.21
-26.00
-14.05
-1.89
8.69
16.27
20.66
23.19
26.32
32.38
42.06
53.75
64.09
69.55
68.03
59.67
46.43
31.09
16.35
4.63
-1.66
0.07
12.14
35.15
66.45
99.56
125.27
134.56
122.22
89.30
43.17
-5.00
-44.19
-67.01
-71.58
-61.20
-42.58
-23.43
-10.47
-7.96
-17.19
-36.48
-61.72
-87.58
-108.72
-120.34
-118.66
-100.84
-65.93
-16.58
39.44
89.88
121.32
124.41
98.33
51.64
-0.81
-43.67
-66.05
-64.17
-40.52
-1.60
44.15
87.27
118.24
129.18
116.34
82.13
35.05
-12.90
-50.09
-68.37
-64.43
-39.37
2.35
53.19
102.57
138.12
149.04
130.46
86.47
29.60
-23.48
-58.11
-66.85
-50.72
-17.29
24.10
65.77
102.64
131.08
147.01
145.95
125.19
86.79
37.93
-9.73
-44.56
-59.96
-57.21
-44.28
-31.60
-26.53
-30.15
-39.51
-49.38
-55.94
-59.06
-61.98
-69.13
-83.50
-105.32
-131.89
-161.16
-190.42
-216.77
-237.67
-251.62
-258.77
-260.87
-260.66
-249.92
-224.81
-185.27
-135.19
-80.60
-27.39
19.72
57.55
82.90
98.34
105.18
104.80
98.65
88.25
75.05
60.49
46.98
36.92
32.68
33.88
39.24
46.95
55.03
61.78
66.05
67.56
66.72
64.69
61.53
57.35
52.53
47.75
43.88
41.63
41.32
42.76
45.44
47.95
49.00
47.79
44.16
38.62
32.15
26.07
21.54
19.18
18.40
17.67
15.07
9.16
-0.23
-11.73
-23.01
-31.93
-37.63
-40.99
-43.96
-48.19
-54.01
-59.96
-63.36
-61.26
-51.53
-33.62
-8.99
19.18
46.50
68.34
81.06
83.03
75.33
61.38
45.55
31.38
20.59
13.07
7.55
2.68
-2.62
-8.67
-15.18
-21.40
-26.33
-28.58
-26.54
-19.13
-6.28
9.39
23.69
33.19
36.77
35.04
29.58
22.42
15.85
12.67
14.87
22.47
32.61
40.78
41.04
30.13
9.78
-13.08
-28.63
-28.75
-10.02
24.97
68.25
108.22
133.61
137.14
114.93
70.99
15.64
-37.74
-77.22
-94.00
-86.29
-61.47
-32.53
-10.43
0.76
2.17
-3.51
-14.26
-28.78
-46.92
-66.57
-84.14
-95.93
-99.53
-95.42
-86.33
-75.98
-67.65
-63.76
-63.51
-65.65
-68.21
-69.07
-67.10
-62.35
-55.75
-48.64
-42.52
-38.37
-36.59
-36.67
-37.47
-38.03
-37.91
-37.13
-35.91
-34.37
-32.22
-29.00
-24.14
-17.46
-9.44
-1.03
7.16
15.29
24.23
35.09
48.30
63.31
78.72
92.88
104.52
113.20
119.09
122.63
124.21
123.78
121.19
116.44
109.98
102.49
94.53
86.10
76.74
66.08
54.33
42.45
32.10
24.95
21.87
22.31
24.29
25.28
23.19
16.79
5.58
-10.19
-29.54
-50.85
-71.90
-90.23
-103.36
-109.15
-106.35
-95.17
-76.78
-52.90
-25.67
2.37
27.16
43.70
48.92
44.21
34.65
26.39
23.44
26.49
33.61
41.80
48.75
53.66
58.41
62.67
65.35
65.01
60.34
50.88
37.43
22.00
7.28
-4.51
-13.16
-19.87
-25.88
-32.12
-38.53
-44.05
-46.98
-45.90
-40.67
-33.59
-27.92
-26.25
-29.58
-36.52
-43.79
-47.63
-45.18
-33.12
-12.11
13.59
38.05
56.03
64.52
62.99
52.31
33.79
9.59
-17.75
-45.27
-68.36
-83.73
-90.61
-90.78
-87.40
-83.20
-79.08
-74.37
-67.49
-57.39
-45.07
-33.45
-26.10
-25.42
-31.24
-40.81
-50.36
-56.66
-58.33
-56.38
-53.25
-51.38
-51.98
-54.67
-57.75
-59.37
-58.15
-53.33
-44.78
-32.57
-17.06
0.62
18.14
32.00
38.63
36.06
25.48
11.40
0.29
-1.96
7.44
27.10
52.10
76.12
93.85
102.54
102.07
94.08
80.73
63.95
45.23
25.97
7.69
-8.04
-20.00
-27.87
-32.35
-35.00
-37.75
-42.22
-49.35
-59.06
-70.26
-81.11
-89.50
-93.67
-92.74
-87.08
-78.16
-67.88
-57.74
-48.32
-39.39
-30.41
-21.16
-11.75
-2.42
6.89
16.79
27.99
40.75
54.40
67.43
77.90
84.35
86.11
83.50
77.38
68.67
58.05
45.86
32.46
18.53
5.28
-5.64
-12.82
-15.71
-15.21
-13.37
-12.50
-13.70
-16.28
-17.72
-14.84
-5.33
11.14
32.51
55.08
74.69
88.10
93.90
92.82
87.20
79.86
73.03
67.49
62.71
57.60
51.37
44.16
36.89
30.77
26.61
24.49
23.88
24.07
24.53
25.00
25.34
25.29
24.41
22.11
17.91
11.79
4.34
-3.11
-8.81
-11.28
-9.95
-5.53
0.16
4.95
7.08
5.88
1.74
-4.30
-11.14
-18.05
-24.78
-31.40
-37.96
-44.15
-49.32
-52.42
-52.50
-49.02
-42.21
-33.03
-22.94
-13.35
-5.16
1.39
6.54
10.57
13.57
15.28
15.37
13.81
11.01
7.83
5.13
3.56
3.18
3.70
4.61
5.61
6.70
8.11
10.08
12.63
15.38
17.76
19.11
19.05
17.61
15.24
12.69
10.69
9.62
9.40
9.55
9.50
8.92
8.01
7.39
7.91
10.21
14.46
20.32
27.06
33.81
39.77
44.40
47.48
49.10
49.71
49.90
50.11
50.42
50.31
48.89
45.29
39.16
30.99
22.09
14.09
8.32
5.28
4.41
4.35
3.45
0.36
-5.51
-13.86
-23.73
-33.69
-42.27
-48.31
-51.26
-51.42
-49.92
-48.36
-48.25
-50.43
-54.72
-59.98
-64.57
-66.85
-65.72
-60.82
-52.47
-41.46
-28.89
-15.97
-3.85
6.50
14.49
20.04
23.59
25.86
27.68
29.70
32.13
34.82
37.30
39.09
39.97
40.11
39.98
40.12
40.89
42.31
44.21
46.32
48.48
50.61
52.55
53.87
53.79
51.49
46.43
38.68
29.05
18.81
9.27
1.38
-4.40
-8.19
-10.48
-12.17
-14.46
-18.66
-25.74
-35.74
-47.47
-58.53
-66.14
-68.06
-63.45
-53.15
-39.22
-24.17
-10.07
1.79
11.00
17.63
21.90
24.13
24.58
23.70
22.07
20.36
19.00
18.02
16.97
15.10
11.74
6.56
-0.21
-8.01
-16.26
-24.63
-33.13
-41.97
-51.33
-61.12
-71.01
-80.58
-89.59
-98.05
-106.23
-114.45
-122.81
-131.10
-138.69
-144.83
-148.81
-150.27
-149.34
-146.49
-142.47
-137.84
-132.82
-127.02
-119.51
-109.08
-94.71
-76.04
-53.78
-29.72
-6.38
13.63
28.34
36.91
39.67
37.83
32.82
25.91
18.04
10.24
3.79
0.23
0.96
6.43
15.69
26.47
36.01
42.11
44.11
43.00
40.80
39.55
40.44
43.60
48.30
53.53
58.49
62.77
66.36
69.48
72.43
75.34
78.06
80.08
80.56
78.49
73.14
64.35
52.93
40.54
29.21
20.64
15.55
13.51
13.23
13.27
12.63
11.09
9.06
7.08
5.52
4.39
3.52
2.70
1.78
0.49
-1.73
-5.79
-12.63
-22.69
-35.40
-48.97
-60.76
-68.00
-68.60
-61.83
-48.39
-30.20
-9.71
10.73
29.27
44.67
56.22
63.57
66.72
66.09
62.57
57.38
51.83
46.72
42.19
37.76
32.77
26.98
20.59
14.16
7.97
2.07
-4.12
-11.19
-19.17
-27.10
-33.25
-35.93
-34.36
-29.15
-21.51
-13.16
-5.53
0.75
5.99
11.21
17.58
25.75
35.56
46.92
59.07
71.08
82.08
91.77
100.51
108.91
117.15
124.60
130.92
135.22
136.67
134.81
129.92
123.20
116.28
110.54
100.03
81.86
56.43
27.36
-1.52
-28.65
-54.64
-80.88
-108.00
-135.17
-159.04
-177.32
-188.42
-191.93
-188.99
-181.37
-171.10
-160.01
-149.47
-139.43
-129.56
-119.32
-107.47
-93.78
-78.40
-61.87
-45.11
-29.26
-14.84
-2.26
8.28
16.59
22.37
25.62
26.64
26.01
24.32
22.39
20.75
19.68
19.14
18.78
18.32
17.64
16.70
15.49
14.13
12.61
10.89
8.90
6.48
3.66
0.61
-2.51
-5.59
-8.75
-12.29
-16.53
-21.52
-26.99
-32.19
-36.07
-37.62
-36.18
-31.68
-24.69
-16.20
-7.37
0.83
7.74
13.16
17.17
19.89
21.46
21.94
21.38
20.01
18.19
16.38
14.97
14.12
13.79
13.69
13.59
13.30
12.78
12.02
10.99
9.61
7.74
5.34
2.44
-0.79
-4.17
-7.66
-11.35
-15.43
-20.03
-25.09
-30.20
-34.67
-37.61
-38.26
-36.15
-31.26
-24.05
-15.36
-6.19
2.51
10.02
16.00
20.38
23.24
24.77
25.19
24.78
23.94
23.08
22.61
22.76
23.51
24.54
25.44
25.77
25.31
24.07
22.23
20.03
17.63
15.10
12.43
9.57
6.45
3.07
-0.59
-4.57
-8.90
-13.60
-18.54
-23.33
-27.30
-29.63
-29.57
-26.70
-21.14
-13.51
-4.81
3.94
11.95
18.84
24.52
29.05
32.53
34.88
36.12
36.35
35.92
35.27
34.89
35.05
35.66
36.36
36.65
36.14
34.67
32.40
29.55
26.38
22.99
19.42
15.68
11.78
7.83
3.87
-0.12
-4.28
-8.82
-13.79
-18.95
-23.73
-27.37
-29.09
-28.34
-25.01
-19.39
-12.19
-4.29
3.41
10.27
15.87
20.13
23.12
24.98
25.78
25.60
24.48
22.61
20.36
18.18
16.50
15.57
15.35
15.54
15.69
15.34
14.19
12.16
9.34
5.97
2.27
-1.64
-5.71
-10.03
-14.66
-19.66
-24.99
-30.57
-36.24
-41.70
-46.52
-50.05
-51.55
-50.39
-46.31
-39.54
-30.84
-21.24
-11.76
-3.18
4.13
10.14
14.97
18.76
21.54
23.28
23.99
23.76
22.87
21.67
20.56
19.76
19.32
19.08
18.74
18.05
16.93
15.47
13.89
12.36
10.89
9.33
7.46
5.09
2.21
-1.13
-4.82
-8.84
-13.23
-17.95
-22.67
-26.71
-29.14
-29.05
-25.97
-20.00
-11.90
-2.73
6.39
14.72
21.91
27.94
32.88
36.78
39.62
41.31
41.87
41.44
40.26
38.67
36.98
35.39
33.90
32.37
30.49
28.00
24.72
20.68
16.12
11.30
6.46
1.63
-3.26
-8.34
-13.67
-19.22
-24.97
-30.89
-37.02
-43.24
-49.17
-54.17
-57.34
-57.91
-55.47
-50.20
-42.73
-34.05
-25.12
-16.72
-9.31
-3.05
2.11
6.35
9.83
12.66
14.82
16.25
17.03
17.35
17.51
17.77
18.22
18.65
18.73
18.09
16.56
14.20
11.23
7.86
4.23
0.40
-3.54
-7.45
-11.09
-14.35
-17.26
-20.17
-23.48
-27.53
-32.19
-36.93
-40.76
-42.59
-41.59
-37.45
-30.54
-21.75
-12.28
-3.26
4.51
10.66
15.21
18.44
20.65
22.00
22.55
22.36
21.51
20.25
18.94
17.89
17.26
17.01
16.88
16.62
16.03
15.06
13.79
12.28
10.51
8.36
5.75
2.65
-0.81
-4.32
-7.58
-10.38
-12.74
-14.92
-17.29
-20.23
-23.90
-28.12
-32.34
-35.70
-37.31
-36.51
-33.13
-27.52
-20.39
-12.58
-4.79
2.54
9.13
14.83
19.52
23.08
25.49
26.84
27.39
27.40
27.15
26.76
26.24
25.47
24.32
22.70
20.64
18.31
15.92
13.65
11.51
9.26
6.55
2.93
-1.81
-7.51
-13.61
-19.30
-23.85
-26.99
-28.97
-30.46
-32.21
-34.74
-38.08
-41.86
-45.49
-48.40
-50.31
-51.18
-51.07
-50.01
-47.81
-44.18
-38.83
-31.73
-23.20
-13.81
-4.01
6.14
17.05
29.24
42.89
57.41
71.56
83.96
93.79
101.05
106.35
109.94
111.12
108.37
100.46
87.69
72.44
58.19
47.63
41.09
36.46
30.91
23.05
14.27
7.91
7.08
12.60
22.58
33.89
44.33
53.90
64.06
75.91
88.51
98.88
103.66
101.32
93.39
83.85
77.28
76.75
82.66
93.03
104.66
114.37
119.91
120.15
114.98
105.02
91.33
75.24
58.15
41.31
25.57
11.00
-3.04
-17.61
-33.50
-50.66
-67.77
-82.62
-92.88
-97.07
-95.22
-88.77
-80.01
-71.11
-63.49
-57.75
-53.94
-52.05
-52.21
-54.48
-58.61
-63.80
-69.06
-73.66
-77.52
-81.27
-85.78
-91.45
-97.81
-103.49
-106.73
-106.19
-101.49
-93.34
-83.14
-72.44
-62.33
-53.32
-45.45
-38.57
-32.62
-27.61
-23.66
-20.73
-18.62
-16.97
-15.43
-13.85
-12.35
-11.23
-10.80
-11.19
-12.23
-13.55
-14.75
-15.61
-16.13
-16.53
-17.10
-18.00
-19.30
-20.93
-22.73
-24.53
-26.16
-27.50
-28.48
-29.24
-29.94
-30.77
-31.75
-32.64
-33.01
-32.40
-30.49
-27.23
-22.84
-17.71
-12.31
-7.01
-2.18
1.93
5.16
7.48
9.02
9.91
10.35
10.55
10.72
11.00
11.45
12.02
12.53
12.73
12.44
11.58
10.23
8.54
6.68
4.74
2.77
0.76
-1.27
-3.20
-4.94
-6.38
-7.45
-8.19
-8.74
-9.34
-10.30
-11.86
-14.20
-17.35
-21.10
-24.99
-28.31
-30.22
-30.05
-27.43
-22.53
-15.99
-8.70
-1.53
4.93
10.46
15.14
19.15
22.67
25.74
28.30
30.26
31.63
32.54
33.21
33.95
35.05
36.63
38.67
41.04
43.57
46.08
48.56
51.01
53.44
55.81
57.99
59.84
61.27
62.36
63.27
64.21
65.22
66.07
66.39
65.72
63.77
60.48
55.98
50.29
43.17
34.09
22.52
8.31
-7.92
-24.74
-40.30
-52.89
-61.58
-66.51
-68.76
-69.93
-71.54
-74.86
-80.68
-89.37
-100.90
-114.80
-130.05
-145.19
-158.59
-168.85
-175.18
-177.54
-176.54
-173.07
-167.97
-161.79
-154.72
-146.88
-138.60
-130.49
-123.28
-117.55
-113.37
-110.39
-108.28
-106.99
-107.00
-109.05
-113.18
-117.92
-120.26
-116.56
-104.17
-83.10
-56.07
-27.59
-2.12
17.61
31.15
39.55
43.97
44.71
40.62
30.26
12.88
-11.20
-40.03
-70.20
-97.49
-117.51
-126.15
-120.60
-99.26
-62.83
-15.19
36.99
85.46
122.47
142.92
149.50
147.00
143.31
145.80
156.45
171.20
183.31
187.78
184.31
177.27
172.82
175.13
184.48
197.15
207.69
211.94
208.81
200.54
190.52
180.61
168.86
153.04
131.98
107.79
86.17
74.00
75.59
89.84
110.14
127.67
135.42
130.55
114.90
93.21
70.64
50.97
36.28
27.35
24.51
27.70
35.83
46.32
55.52
59.44
54.83
40.26
16.53
-13.57
-46.04
-77.17
-104.49
-127.33
-146.51
-163.56
-179.63
-194.99
-209.18
-221.51
-231.77
-240.28
-247.48
-253.15
-255.98
-253.68
-243.82
-224.92
-197.38
-163.78
-128.35
-95.87
-70.38
-53.85
-45.36
-41.53
-37.47
-28.34
-10.71
16.68
52.40
92.48
131.54
163.95
185.03
192.05
184.73
165.23
137.39
105.39
72.48
41.25
13.72
-8.68
-25.26
-36.25
-43.04
-47.74
-52.66
-59.86
-69.55
-79.81
-87.38
-89.00
-82.70
-68.83
-49.96
-27.57
-6.43
7.82
11.55
5.52
-5.73
-16.95
-25.27
-30.03
-31.80
-31.61
-29.11
-22.74
-11.32
5.45
26.58
49.97
72.86
92.29
105.64
112.92
116.17
119.12
126.17
141.13
166.00
200.11
239.40
276.78
305.15
318.53
314.18
293.71
262.25
226.44
192.03
162.21
132.87
103.31
75.46
53.17
39.82
36.01
39.18
45.08
49.59
50.06
47.26
43.16
39.75
37.70
35.90
31.72
23.46
9.59
-10.41
-35.19
-62.63
-89.97
-114.08
-131.93
-141.20
-141.00
-132.48
-118.30
-101.32
-84.19
-68.65
-55.42
-44.58
-36.07
-30.04
-26.89
-26.70
-28.59
-30.98
-31.93
-29.77
-23.65
-13.80
-1.54
11.16
22.40
30.89
36.17
38.40
38.04
35.46
30.71
23.66
13.96
1.56
-13.22
-29.54
-46.18
-61.89
-75.80
-87.81
-98.72
-110.02
-123.18
-139.10
-157.64
-177.78
-198.13
-217.56
-235.37
-250.97
-263.34
-270.58
-270.29
-260.31
-239.76
-209.50
-171.77
-129.19
-84.00
-37.94
6.96
47.45
78.99
96.65
96.89
79.05
45.84
2.36
-45.75
-93.81
-138.67
-178.12
-209.82
-231.01
-238.98
-232.52
-213.01
-184.38
-151.96
-120.55
-92.73
-68.48
-45.96
-23.13
0.98
25.91
50.32
73.23
94.66
115.71
137.67
160.86
183.76
202.84
213.46
211.47
194.76
164.09
123.20
77.93
34.93
0.53
-20.12
-23.56
-8.47
23.88
69.60
122.60
175.74
222.81
260.32
288.10
308.56
324.84
338.74
349.74
355.28
352.07
337.96
312.89
278.39
236.30
187.79
133.80
76.70
21.69
-23.61
-50.99
-55.06
-36.31
-1.65
38.04
72.26
94.70
104.71
105.10
100.58
95.34
91.62
89.60
88.10
85.58
80.63
71.94
56.29
31.60
-2.23
-43.03
-87.33
-131.58
-172.84
-209.16
-239.85
-268.78
-299.95
-336.02
-377.57
-423.49
-471.31
-516.89
-554.58
-578.43
-588.11
-584.71
-569.89
-545.55
-514.40
-480.19
-446.72
-416.98
-366.78
-286.62
-183.63
-77.58
12.98
79.71
123.48
149.55
163.72
170.49
168.99
158.51
140.64
119.38
99.14
82.95
72.02
66.16
63.77
61.46
56.66
49.00
40.21
32.53
27.21
24.28
22.97
22.30
20.03
14.60
6.13
-3.75
-12.96
-19.88
-23.39
-22.38
-18.96
-14.55
-10.07
-5.75
-1.31
3.51
8.61
13.57
17.94
22.36
27.91
35.31
44.80
56.19
68.94
82.38
95.81
108.75
122.88
140.24
161.78
187.02
214.67
243.51
272.81
301.91
329.47
356.20
381.68
403.93
420.04
427.83
427.23
420.26
409.81
398.31
391.18
392.38
403.30
422.45
446.51
471.84
495.50
515.29
505.43
450.79
351.17
223.45
92.38
-22.06
-110.60
-172.89
-213.53
-238.42
-249.11
-246.61
-232.79
-211.46
-187.44
-165.28
-147.34
-134.91
-127.85
-122.20
-114.29
-102.20
-86.42
-69.06
-52.79
-39.27
-29.17
-22.43
-16.91
-10.95
-4.37
0.91
5.42
8.14
8.35
5.78
0.58
-6.03
-12.93
-19.41
-25.45
-31.34
-37.92
-45.66
-54.72
-65.05
-76.18
-87.74
-99.64
-111.99
-124.82
-138.13
-151.11
-162.42
-170.66
-174.96
-175.39
-172.92
-168.97
-164.79
-161.44
-159.40
-158.77
-159.61
-161.93
-165.58
-169.92
-173.94
-176.28
-175.91
-172.37
-165.99
-157.70
-148.79
-140.42
-133.33
-127.79
-123.59
-120.35
-117.56
-114.71
-111.37
-107.18
-101.94
-95.66
-88.62
-81.27
-73.98
-66.86
-59.39
-50.70
-39.71
-25.67
-8.46
11.28
32.35
53.39
73.06
90.48
105.00
116.25
124.13
128.84
130.96
131.37
131.06
130.76
130.74
130.74
130.27
128.90
126.56
123.57
120.50
117.91
116.12
115.13
114.63
114.06
112.81
110.32
106.28
100.75
94.15
87.10
80.26
74.06
68.71
64.31
60.82
58.22
56.40
55.13
54.01
52.69
50.93
48.70
46.21
43.58
40.77
37.53
33.41
28.15
21.85
15.02
8.51
3.14
-0.63
-2.82
-3.90
-4.58
-5.57
-7.36
-10.26
-14.41
-19.87
-26.63
-34.49
-43.11
-52.04
-60.86
-69.25
-77.06
-84.28
-90.91
-96.96
-102.41
-107.24
-111.41
-114.74
-117.04
-118.00
-117.32
-114.84
-110.65
-104.98
-98.10
-90.27
-81.70
-72.65
-63.59
-55.14
-48.06
-42.88
-39.83
-38.74
-39.21
-40.72
-42.81
-45.10
-47.26
-48.90
-49.59
-49.04
-47.09
-43.86
-39.62
-34.66
-29.16
-23.19
-16.80
-10.08
-3.41
2.75
7.86
11.57
13.84
14.88
15.10
14.87
14.43
13.80
13.00
12.09
11.28
10.85
11.11
12.13
13.72
15.47
16.84
17.35
16.84
15.43
13.57
11.79
10.55
10.04
10.14
10.52
10.79
10.62
9.84
8.46
6.53
4.22
1.67
-0.99
-3.71
-6.47
-9.34
-12.40
-15.69
-19.14
-22.54
-25.58
-27.91
-29.28
-29.45
-28.33
-26.00
-22.71
-18.94
-15.37
-12.72
-11.71
-12.83
-16.30
-21.92
-29.18
-37.30
-45.31
-52.05
-56.32
-56.98
-53.23
-44.97
-32.94
-18.77
-4.50
7.80
16.73
21.79
23.40
22.50
20.09
16.71
12.41
6.85
-0.31
-9.17
-19.49
-30.73
-42.30
-53.67
-64.43
-74.00
-81.57
-86.09
-86.55
-82.43
-74.00
-62.38
-49.11
-35.59
-22.55
-10.06
2.21
14.43
26.24
36.69
44.60
49.16
50.28
48.71
45.64
42.28
39.38
37.17
35.50
34.16
33.19
32.91
33.69
35.73
38.79
42.26
45.37
47.59
48.86
49.62
50.51
52.11
54.56
57.54
60.51
63.06
65.26
67.69
71.17
76.43
83.82
93.12
103.76
115.10
126.64
138.09
149.08
158.97
166.53
170.42
169.49
163.57
153.72
141.93
130.54
121.31
114.98
111.27
109.43
108.72
108.59
108.31
106.42
100.55
87.94
66.65
36.69
0.76
-36.51
-69.88
-95.37
-111.46
-119.06
-120.83
-119.73
-118.06
-117.06
-117.15
-118.37
-120.60
-123.61
-126.77
-129.09
-129.46
-127.05
-121.85
-114.60
-106.70
-99.56
-94.18
-90.79
-88.88
-87.40
-85.30
-81.74
-76.43
-69.61
-61.93
-54.23
-47.22
-41.31
-36.51
-32.56
-29.15
-26.03
-23.29
-21.12
-19.85
-19.51
-19.96
-20.84
-21.71
-22.37
-22.75
-22.97
-23.09
-23.04
-22.61
-21.48
-19.39
-16.20
-11.98
-6.93
-1.51
3.77
8.42
12.03
14.41
15.56
15.61
14.68
12.98
10.68
8.05
5.41
3.10
1.34
0.18
-0.46
-0.78
-0.87
-0.78
-0.42
0.30
1.30
2.41
3.34
3.79
3.52
2.42
0.47
-2.32
-5.86
-10.06
-14.68
-19.35
-23.66
-27.19
-29.66
-31.04
-31.58
-31.69
-31.82
-32.32
-33.35
-34.98
-37.12
-39.71
-42.69
-46.13
-50.20
-55.25
-61.63
-69.56
-78.91
-89.04
-98.82
-106.87
-112.07
-113.95
-113.09
-110.85
-108.95
-108.82
-111.05
-115.22
-120.24
-124.74
-127.54
-127.95
-125.49
-119.84
-110.72
-98.06
-82.22
-64.07
-44.77
-25.27
-5.96
13.33
33.04
53.39
74.15
94.62
114.03
131.78
147.61
161.27
172.21
179.62
182.76
181.41
176.25
168.65
160.17
152.03
144.84
138.70
133.57
129.40
126.19
123.61
120.92
116.92
110.49
100.90
88.07
72.45
54.61
34.91
13.74
-8.25
-29.61
-48.11
-61.22
-67.03
-64.90
-55.55
-40.54
-21.52
0.23
23.81
48.04
71.03
90.31
103.46
109.11
107.66
101.24
92.87
85.34
80.31
77.95
77.37
77.14
76.01
73.22
68.64
62.45
55.04
46.91
38.82
31.86
27.42
26.84
30.75
38.57
48.24
56.83
61.33
59.59
50.89
35.83
16.07
-6.22
-28.52
-48.24
-63.08
-71.53
-73.45
-70.24
-64.44
-58.82
-55.34
-54.70
-56.29
-58.98
-61.68
-63.82
-65.30
-66.21
-66.56
-66.31
-65.43
-64.12
-62.91
-62.57
-63.77
-66.79
-71.31
-76.40
-80.90
-84.09
-86.04
-87.79
-90.78
-96.19
-104.38
-114.87
-126.96
-140.42
-155.85
-174.24
-196.27
-221.51
-248.41
-275.06
-300.06
-322.94
-343.62
-361.49
-374.49
-379.84
-375.35
-361.20
-340.49
-318.21
-298.97
-284.86
-274.71
-265.14
-252.82
-236.43
-217.28
-198.48
-183.01
-172.44
-166.50
-163.77
-162.76
-162.79
-163.79
-165.88
-168.76
-171.34
-172.06
-169.48
-162.81
-152.20
-138.69
-123.68
-108.37
-93.46
-78.83
-63.89
-47.89
-30.30
-11.02
9.61
31.08
52.92
74.76
96.39
117.62
137.98
156.72
172.85
185.32
193.33
196.53
195.07
189.55
180.70
169.27
155.84
140.85
124.69
108.00
91.62
76.59
63.90
54.22
47.76
44.30
43.40
44.63
48.03
54.03
63.35
76.60
93.90
114.64
137.66
161.63
185.37
208.38
230.72
252.90
275.60
299.62
325.76
354.58
385.89
417.99
447.44
469.49
479.54
474.68
454.84
422.70
382.36
337.84
291.93
246.14
201.35
158.75
119.98
86.48
58.67
35.56
15.10
-4.66
-24.61
-44.30
-62.43
-77.76
-90.10
-100.50
-110.95
-123.40
-138.96
-157.14
-175.82
-191.74
-201.37
-202.03
-192.65
-174.02
-148.30
-118.10
-85.55
-51.82
-17.18
18.59
55.67
93.91
132.54
170.23
205.32
236.33
262.54
284.39
303.23
320.44
336.42
349.85
358.16
358.67
350.12
333.61
312.35
290.27
270.36
253.52
238.52
223.03
204.90
183.11
157.87
130.25
101.29
71.72
42.06
13.14
-13.48
-35.62
-51.16
-58.89
-59.13
-53.53
-44.57
-34.72
-25.88
-19.38
-16.02
-16.22
-19.80
-25.77
-32.23
-36.74
-36.87
-30.98
-18.83
-1.79
17.47
35.66
49.69
57.64
59.14
55.55
49.29
43.11
39.26
38.80
41.83
47.69
55.42
64.13
72.88
80.50
85.65
87.14
84.48
78.28
70.23
62.57
57.09
54.42
53.63
52.76
49.51
42.23
30.33
14.28
-4.87
-26.22
-49.38
-74.81
-103.55
-136.79
-175.03
-217.37
-261.13
-302.17
-335.85
-358.49
-368.34
-365.82
-352.93
-332.12
-305.41
-274.20
-239.42
-201.91
-162.31
-120.78
-77.04
-31.09
15.65
59.47
94.75
115.63
118.30
102.91
73.67
37.50
1.52
-28.86
-50.85
-64.11
-70.03
-71.30
-71.34
-73.70
-80.83
-92.86
-107.02
-118.58
-122.78
-117.04
-102.31
-82.40
-62.11
-45.13
-32.55
-23.03
-13.93
-2.48
13.55
35.46
63.32
95.35
127.80
155.63
174.37
182.19
180.99
175.76
172.04
173.18
178.65
184.68
186.54
181.20
168.83
152.13
134.56
118.32
103.72
89.75
75.53
61.37
48.73
39.57
35.17
35.43
38.88
43.41
47.14
48.86
48.17
45.20
40.32
33.91
26.34
17.90
8.87
-0.45
-9.60
-17.79
-24.10
-27.77
-28.65
-27.50
-25.84
-25.41
-27.41
-32.02
-38.44
-45.35
-51.42
-55.85
-58.39
-59.10
-58.14
-55.57
-51.43
-45.92
-39.50
-32.91
-26.97
-22.31
-19.14
-17.18
-15.90
-14.76
-13.38
-11.77
-10.16
-8.93
-8.47
-9.07
-10.94
-14.12
-18.54
-23.92
-29.93
-36.11
-42.09
-47.62
-52.54
-56.78
-60.27
-62.94
-64.74
-65.70
-66.04
-66.07
-66.16
-66.59
-67.40
-68.36
-69.03
-68.85
-67.37
-64.32
-59.75
-54.03
-47.79
-41.82
-36.95
-33.87
-32.91
-33.97
-36.56
-40.02
-43.74
-47.38
-50.89
-54.49
-58.37
-62.56
-66.83
-70.87
-74.40
-77.34
-79.80
-81.92
-83.75
-85.21
-86.24
-86.91
-87.54
-88.51
-90.11
-92.21
-94.35
-95.95
-96.80
-97.26
-98.37
-101.38
-107.23
-116.02
-126.70
-137.30
-145.27
-148.32
-145.07
-135.41
-120.64
-102.85
-84.37
-67.08
-52.02
-39.48
-29.24
-20.96
-14.23
-8.66
-3.76
1.10
6.52
12.88
20.14
27.88
35.42
42.16
47.75
52.21
55.74
58.54
60.61
61.63
61.16
58.81
54.48
48.38
40.88
32.43
23.32
14.00
5.11
-2.20
-6.41
-5.99
0.06
11.79
28.37
48.25
69.67
90.83
109.85
124.82
133.82
135.47
129.36
116.56
99.32
80.56
62.90
48.12
36.84
28.78
23.16
19.10
15.80
12.62
9.23
5.52
1.74
-1.70
-4.44
-6.39
-7.89
-9.56
-12.25
-16.69
-23.29
-31.90
-41.62
-50.83
-57.47
-59.52
-55.56
-45.30
-29.67
-10.59
9.61
28.82
45.61
59.34
69.96
77.69
82.71
85.03
84.64
81.72
76.73
70.52
64.08
58.33
53.74
50.31
47.51
44.71
41.31
37.07
32.05
26.59
21.02
15.43
9.73
3.62
-3.19
-10.91
-19.70
-29.62
-40.56
-52.07
-63.07
-71.80
-76.17
-74.40
-65.69
-50.63
-31.12
-9.78
10.87
28.99
43.79
55.24
63.74
69.68
73.30
74.69
73.93
71.21
66.99
61.88
56.60
51.76
47.73
44.50
41.80
39.19
36.27
32.85
28.92
24.50
19.67
14.42
8.69
2.42
-4.45
-12.04
-20.57
-30.34
-41.45
-53.50
-65.29
-74.93
-80.26
-79.45
-71.73
-57.66
-39.05
-18.39
1.90
19.95
34.82
46.36
54.84
60.70
64.31
65.84
65.43
63.32
59.89
55.72
51.46
47.64
44.46
41.85
39.51
37.02
34.10
30.57
26.40
21.62
16.26
10.37
4.09
-2.39
-8.87
-15.28
-21.89
-29.24
-37.93
-48.23
-59.65
-70.81
-79.57
-83.65
-81.33
-72.06
-56.66
-37.13
-16.03
4.20
21.82
35.97
46.59
54.01
58.57
60.48
59.86
56.90
52.07
46.11
39.90
34.21
29.54
25.97
23.25
20.99
18.79
16.38
13.65
10.62
7.35
3.87
0.14
-3.90
-8.32
-13.20
-18.67
-25.02
-32.55
-41.48
-51.49
-61.49
-69.67
-73.85
-72.24
-64.11
-50.18
-32.35
-13.07
5.39
21.49
34.57
44.53
51.49
55.59
56.93
55.74
52.48
47.84
42.64
37.65
33.43
30.17
27.77
25.84
23.89
21.43
18.20
14.16
9.48
4.41
-0.91
-6.51
-12.56
-19.27
-26.81
-35.33
-44.84
-55.25
-66.06
-76.23
-84.11
-87.83
-85.78
-77.29
-62.99
-44.61
-24.56
-5.16
11.93
25.93
36.80
44.86
50.50
53.87
55.03
54.04
51.21
47.13
42.57
38.31
34.79
32.03
29.63
27.07
23.90
19.94
15.32
10.27
5.03
-0.31
-5.81
-11.58
-17.74
-24.37
-31.57
-39.49
-48.37
-58.18
-68.48
-78.13
-85.37
-88.24
-85.14
-75.47
-59.93
-40.44
-19.53
0.31
17.30
30.61
40.26
46.77
50.77
52.74
52.99
51.69
49.08
45.59
41.73
38.01
34.81
32.26
30.22
28.43
26.53
24.24
21.35
17.79
13.52
8.59
3.07
-2.90
-9.10
-15.42
-21.82
-28.57
-36.18
-45.18
-55.74
-67.29
-78.36
-86.76
-90.20
-87.01
-76.82
-60.70
-40.85
-19.94
-0.34
16.37
29.60
39.46
46.46
51.11
53.72
54.47
53.48
50.97
47.29
42.99
38.59
34.48
30.89
27.77
24.98
22.26
19.40
16.21
12.60
8.51
3.93
-1.03
-6.30
-11.76
-17.36
-23.16
-29.39
-36.34
-44.26
-53.05
-62.06
-70.08
-75.45
-76.65
-72.70
-63.58
-50.26
-34.47
-18.14
-2.98
9.89
20.02
27.42
32.28
34.80
35.02
32.94
28.69
22.70
15.75
8.89
3.10
-0.92
-2.98
-3.35
-2.60
-1.37
-0.27
0.28
-0.01
-1.30
-3.68
-7.12
-11.54
-16.82
-22.87
-29.76
-37.49
-45.85
-54.12
-60.97
-64.74
-63.87
-57.45
-45.70
-29.93
-12.23
5.26
20.85
33.64
43.46
50.51
55.06
57.26
57.17
54.88
50.78
45.52
39.96
34.88
30.79
27.73
25.36
23.11
20.45
17.11
13.10
8.63
3.89
-1.00
-6.12
-11.67
-17.83
-24.73
-32.49
-41.18
-50.73
-60.80
-70.57
-78.58
-83.08
-82.47
-75.87
-63.62
-47.15
-28.70
-10.54
5.57
18.68
28.64
35.72
40.32
42.72
43.12
41.70
38.78
34.89
30.67
26.75
23.59
21.34
19.88
18.88
18.01
16.96
15.56
13.72
11.38
8.52
5.09
1.04
-3.72
-9.23
-15.58
-22.83
-31.06
-40.23
-49.96
-59.39
-67.10
-71.35
-70.54
-63.86
-51.57
-35.12
-16.66
1.57
17.84
31.22
41.48
48.83
53.55
55.93
56.16
54.52
51.38
47.25
42.71
38.30
34.41
31.25
28.81
26.91
25.25
23.57
21.57
19.08
15.87
11.83
6.93
1.31
-4.72
-10.87
-16.90
-22.89
-29.23
-36.42
-44.75
-53.97
-63.13
-70.62
-74.63
-73.56
-66.68
-54.28
-37.68
-18.89
-0.03
17.16
31.55
42.67
50.50
55.24
57.23
56.90
54.84
51.69
48.05
44.41
40.99
37.83
34.90
32.20
29.74
27.53
25.47
23.38
20.95
17.96
14.32
10.10
5.45
0.55
-4.50
-9.67
-14.97
-20.51
-26.51
-33.26
-40.94
-49.44
-58.03
-65.35
-69.59
-69.05
-62.75
-50.82
-34.61
-16.23
2.04
18.37
31.69
41.60
48.19
51.72
52.47
50.76
47.03
41.94
36.34
31.02
26.55
23.15
20.70
18.90
17.39
15.89
14.19
12.19
9.86
7.14
3.99
0.37
-3.74
-8.34
-13.38
-18.76
-24.49
-30.62
-37.37
-44.92
-53.19
-61.53
-68.67
-72.88
-72.52
-66.63
-55.35
-39.91
-22.27
-4.52
11.61
25.05
35.38
42.51
46.60
47.87
46.64
43.41
38.77
33.45
28.16
23.48
19.73
17.01
15.11
13.62
12.11
10.17
7.63
4.51
1.02
-2.62
-6.31
-10.01
-13.86
-18.00
-22.60
-27.82
-33.84
-40.77
-48.43
-56.20
-62.88
-66.92
-66.81
-61.63
-51.45
-37.36
-21.24
-5.08
9.44
21.32
30.23
36.27
39.75
40.99
40.28
37.93
34.41
30.36
26.56
23.63
21.90
21.21
20.93
20.23
18.38
15.08
10.54
5.31
0.06
-4.81
-9.30
-13.76
-18.73
-24.69
-31.93
-40.46
-49.89
-59.45
-67.96
-73.91
-75.81
-72.60
-64.04
-50.90
-34.81
-17.76
-1.60
12.38
23.58
31.92
37.53
40.58
41.14
39.34
35.49
30.22
24.37
18.79
14.13
10.66
8.16
6.18
4.22
1.99
-0.56
-3.22
-5.79
-8.20
-10.57
-13.20
-16.53
-21.01
-27.01
-34.73
-44.06
-54.36
-64.42
-72.57
-76.99
-76.24
-69.65
-57.68
-41.70
-23.68
-5.68
10.68
24.38
35.08
42.85
47.97
50.74
51.42
50.29
47.69
44.14
40.21
36.45
33.28
30.83
28.94
27.17
25.08
22.32
18.77
14.51
9.79
4.75
-0.44
-5.79
-11.43
-17.58
-24.52
-32.56
-41.78
-51.83
-61.74
-69.99
-74.74
-74.45
-68.36
-56.79
-41.09
-23.26
-5.31
11.09
24.92
35.87
44.02
49.70
53.19
54.76
54.67
53.25
50.88
47.95
44.87
41.83
38.96
36.22
33.50
30.66
27.55
23.98
19.78
14.86
9.24
3.10
-3.25
-9.52
-15.54
-21.35
-27.28
-33.81
-41.39
-50.26
-60.12
-69.90
-77.91
-82.19
-81.06
-73.70
-60.49
-42.90
-23.14
-3.44
14.42
29.37
41.04
49.49
54.96
57.74
58.22
56.85
54.22
50.96
47.54
44.23
41.10
38.09
35.18
32.48
30.18
28.36
26.84
25.14
22.69
19.11
14.31
8.64
2.65
-3.11
-8.38
-13.23
-18.02
-23.32
-29.68
-37.42
-46.48
-56.19
-65.26
