1675146139.00
64.000000
-0.00
-0.00
-0.00
-0.00
-0.00
-0.00
-0.00
-0.00
-0.00
-0.00
0.00
0.01
0.01
-0.00
-0.03
-0.05
-0.05
0.00
0.13
0.36
0.66
1.01
1.37
1.72
2.06
2.40
2.79
3.24
3.80
4.42
5.06
5.66
6.20
6.68
7.15
7.68
8.31
9.14
10.09
11.04
11.88
12.56
13.14
13.76
14.65
15.96
17.91
20.32
22.90
25.38
27.58
29.57
31.68
34.32
37.81
42.54
48.15
54.10
59.83
64.97
69.58
74.14
79.34
85.71
93.76
103.00
112.62
121.73
129.77
136.75
143.30
150.75
157.77
166.64
177.95
191.79
206.97
220.57
228.25
225.36
208.53
176.87
132.76
80.05
23.07
-34.94
-92.44
-149.16
-205.23
-260.37
-313.74
-363.87
-409.82
-450.88
-486.45
-515.67
-537.13
-549.08
-549.78
-538.14
-513.93
-478.34
-433.48
-381.99
-326.49
-269.25
-211.97
-155.92
-102.14
-51.48
-4.93
36.64
72.59
102.62
126.88
145.88
160.34
170.95
178.34
182.92
184.96
184.70
182.41
178.44
173.19
167.08
160.46
153.57
146.55
139.48
132.40
125.35
118.40
111.61
105.06
98.80
92.87
87.27
82.02
77.14
72.62
68.48
64.71
61.34
58.37
55.80
53.61
51.81
50.35
49.22
48.32
47.55
46.80
45.88
44.63
42.88
40.47
37.29
33.31
28.53
23.03
16.96
10.53
3.99
-2.39
-8.34
-13.63
-18.09
-21.59
-24.09
-25.58
-26.15
-25.89
-24.96
-23.49
-21.63
-19.50
-17.21
-14.82
-12.36
-9.89
-7.42
-4.97
-2.52
-0.05
2.44
4.98
7.60
10.34
13.16
16.05
19.01
22.03
25.14
28.37
31.74
35.31
39.15
43.17
47.33
51.61
56.01
60.52
65.17
69.98
75.00
80.32
85.80
91.34
96.91
102.48
108.04
113.61
119.19
124.83
130.59
136.19
141.41
146.06
149.89
152.63
153.91
153.22
149.87
145.16
139.56
133.36
126.74
119.89
112.91
105.93
99.07
92.46
86.30
80.43
74.81
69.43
64.30
59.45
54.90
50.71
46.98
43.79
41.01
38.58
36.45
34.62
33.06
31.79
30.80
30.09
29.65
29.30
28.90
28.28
27.35
26.05
24.35
22.30
19.96
17.43
14.70
11.81
8.79
5.64
2.40
-0.88
-4.17
-7.41
-10.62
-13.85
-17.18
-20.72
-24.51
-28.53
-32.65
-36.66
-40.38
-43.65
-46.49
-48.98
-51.32
-53.66
-56.07
-58.43
-60.58
-62.33
-63.71
-64.95
-66.56
-69.13
-73.14
-78.77
-85.83
-93.82
-102.16
-110.49
-118.82
-127.60
-137.48
-148.98
-162.28
-177.02
-192.46
-207.73
-222.22
-235.77
-248.78
-262.27
-277.65
-296.51
-319.91
-347.64
-377.54
-405.56
-426.62
-436.26
-432.15
-414.86
-387.45
-354.15
-318.96
-284.69
-252.92
-224.19
-198.39
-174.91
-152.77
-130.85
-108.36
-85.07
-61.30
-37.54
-13.99
9.41
32.72
55.69
77.65
97.83
115.96
132.52
148.58
165.20
182.69
200.31
216.40
228.89
235.89
236.28
229.97
218.00
202.36
185.41
169.19
154.82
142.08
129.56
115.31
97.68
76.16
51.69
26.56
3.65
-14.43
-26.00
-30.58
-28.78
-22.00
-12.16
-1.43
8.00
14.31
16.41
14.26
8.89
2.14
-4.02
-8.05
-9.17
-7.38
-3.09
3.16
10.84
19.25
27.25
33.21
35.13
31.12
20.10
2.13
-21.37
-47.96
-74.81
-99.26
-119.31
-133.83
-142.49
-145.59
-143.97
-138.77
-131.41
-123.39
-116.10
-110.65
-107.51
-106.40
-106.17
-105.05
-101.16
-93.09
-80.36
-63.61
-44.23
-23.69
-2.97
17.67
38.39
58.99
78.39
94.62
105.50
109.68
107.37
100.35
91.12
81.73
73.04
64.63
55.48
44.76
32.32
18.46
3.71
-11.30
-25.38
-36.32
-41.06
-36.54
-21.32
3.31
33.15
62.33
85.26
98.43
101.18
95.24
83.57
69.05
53.70
38.39
23.02
6.75
-11.59
-33.04
-58.03
-85.84
-114.73
-142.20
-165.79
-183.81
-195.98
-203.58
-209.04
-215.04
-223.37
-234.29
-246.32
-256.95
-263.88
-266.01
-264.02
-259.90
-255.86
-253.15
-251.25
-247.88
-239.72
-223.54
-197.20
-160.34
-114.54
-63.14
-10.51
38.91
81.81
116.98
145.51
170.05
193.18
215.74
235.87
249.55
252.45
242.06
219.20
187.74
153.15
120.32
92.36
70.50
55.02
45.92
43.11
45.75
51.73
57.86
61.18
60.38
56.59
52.68
51.43
53.94
58.87
63.42
65.04
62.76
57.34
50.22
42.23
33.04
21.75
8.06
-6.94
-20.98
-31.80
-38.41
-41.54
-42.96
-44.20
-45.57
-46.30
-45.44
-42.89
-39.74
-37.66
-37.84
-40.31
-44.07
-47.87
-51.04
-53.75
-56.66
-60.35
-64.97
-70.31
-76.09
-82.00
-87.58
-91.91
-93.60
-91.17
-83.69
-71.37
-55.64
-38.58
-22.13
-7.45
5.28
16.52
26.91
36.68
45.56
52.86
57.78
59.82
58.88
55.27
49.49
41.99
33.14
23.30
13.08
3.38
-4.87
-11.02
-15.07
-17.62
-19.50
-21.12
-22.16
-21.56
-18.08
-10.97
-0.40
12.58
26.46
39.77
51.48
61.02
68.17
72.98
75.70
76.86
77.19
77.51
78.53
80.61
83.73
87.48
91.26
94.45
96.55
97.29
96.58
94.67
92.00
89.18
86.63
84.39
81.99
78.60
73.44
66.27
57.60
48.51
40.20
33.39
28.16
24.01
20.33
16.84
13.69
11.26
9.69
8.59
7.12
4.25
-0.70
-7.88
-16.97
-27.31
-38.23
-48.95
-58.47
-65.45
-68.43
-66.28
-58.79
-47.00
-33.02
-19.34
-8.05
-0.19
4.44
6.96
8.87
11.38
15.02
19.48
23.83
26.94
28.05
27.14
25.06
23.49
24.43
29.60
39.95
55.17
73.77
93.46
111.81
126.90
137.82
144.63
148.03
148.98
148.27
146.49
143.98
140.80
136.64
130.74
122.17
110.31
95.47
79.09
63.34
50.34
41.29
36.07
33.56
32.36
31.69
31.75
33.40
37.52
44.32
52.96
61.87
69.37
74.29
76.48
76.70
76.11
75.66
75.55
75.39
74.64
73.41
72.75
74.29
79.44
88.29
99.36
109.97
117.44
120.31
119.06
115.80
113.55
115.15
122.51
136.12
154.85
175.82
194.69
206.50
207.16
195.03
171.94
142.87
114.42
92.51
80.44
78.07
82.32
88.73
93.22
93.38
88.84
80.82
71.24
61.90
54.05
48.41
45.44
45.50
48.80
55.04
63.20
71.57
78.26
81.97
82.49
80.66
77.69
74.28
70.02
63.38
52.38
35.52
12.47
-15.73
-46.96
-78.77
-108.85
-135.42
-157.19
-173.33
-183.59
-188.43
-189.16
-187.77
-186.41
-186.71
-189.12
-192.85
-196.22
-197.51
-195.62
-190.45
-182.74
-173.66
-164.28
-155.39
-147.51
-140.91
-135.69
-131.57
-127.90
-123.63
-117.65
-109.04
-97.44
-83.14
-67.21
-51.52
-38.69
-31.62
-32.63
-42.52
-59.85
-81.07
-101.48
-116.77
-124.48
-124.51
-118.76
-109.94
-100.23
-90.63
-81.06
-71.31
-61.82
-53.90
-49.07
-48.05
-50.11
-53.34
-55.60
-55.62
-53.50
-50.19
-46.53
-42.34
-36.42
-27.33
-14.40
1.67
19.25
36.70
53.22
68.95
84.43
99.65
113.52
124.09
129.35
128.13
120.69
108.67
94.41
80.28
68.19
59.32
54.25
52.88
54.40
57.10
58.61
56.47
48.98
35.91
18.60
-0.50
-18.80
-34.30
-45.99
-53.77
-57.97
-59.02
-57.23
-52.87
-46.29
-38.05
-28.69
-18.44
-7.02
6.02
20.71
36.16
50.48
61.61
68.20
70.49
70.16
69.42
69.57
70.29
69.73
65.70
56.89
43.73
28.27
13.36
1.80
-4.38
-4.23
2.02
12.98
26.32
39.33
49.56
55.41
56.35
52.83
45.93
37.18
28.44
21.66
18.31
18.48
20.32
20.22
13.94
-1.88
-28.45
-64.35
-106.09
-149.19
-189.08
-221.74
-243.92
-253.26
-248.67
-230.58
-201.20
-164.24
-124.22
-85.30
-50.27
-19.87
7.15
33.12
60.07
88.64
117.76
145.05
167.71
183.12
188.93
183.03
163.89
131.53
88.54
40.40
-5.76
-43.56
-69.69
-84.66
-91.52
-93.47
-91.80
-85.72
-73.67
-55.41
-33.13
-10.82
7.48
19.59
25.93
28.80
30.89
33.72
37.26
40.45
42.16
42.07
40.79
39.52
39.42
41.12
44.68
49.67
55.43
61.23
66.43
70.57
73.54
75.63
77.53
80.06
83.74
88.46
93.32
96.89
97.77
95.34
90.18
84.02
79.17
77.60
80.14
85.92
92.66
97.15
96.32
88.11
72.04
49.35
22.57
-5.32
-31.87
-55.86
-77.65
-98.68
-120.59
-144.46
-170.17
-196.53
-221.57
-242.88
-257.74
-263.22
-256.99
-238.31
-209.18
-174.44
-140.39
-112.32
-92.21
-77.97
-64.70
-47.60
-24.63
2.31
28.28
47.69
56.74
54.60
43.32
26.55
8.41
-7.19
-16.93
-18.34
-10.54
5.11
24.98
43.89
56.97
61.43
57.59
48.33
37.44
27.87
20.40
14.17
7.80
0.65
-6.64
-12.77
-16.88
-19.43
-22.28
-27.81
-37.94
-53.45
-73.91
-98.14
-124.63
-151.48
-176.39
-196.74
-210.18
-215.29
-211.72
-199.69
-179.00
-148.66
-107.63
-56.42
1.35
58.77
107.46
140.68
155.94
155.78
146.14
133.34
121.56
111.91
103.45
94.89
85.90
77.12
69.66
64.47
62.02
62.52
65.98
71.86
78.75
84.45
86.72
84.52
78.79
72.23
67.85
67.31
69.83
72.64
72.63
68.15
60.02
50.99
44.31
42.27
45.43
52.80
62.57
72.90
82.11
88.56
90.51
86.17
74.21
54.38
27.93
-2.80
-35.03
-66.65
-96.75
-125.36
-152.74
-178.53
-201.58
-220.33
-233.37
-239.38
-236.85
-223.79
-198.26
-159.88
-111.51
-59.82
-13.91
17.86
31.15
27.42
13.02
-3.70
-15.81
-19.83
-15.77
-5.79
7.53
22.01
35.89
47.51
55.40
58.47
56.60
50.66
42.19
32.72
23.24
13.97
4.54
-5.76
-17.71
-32.02
-49.15
-69.05
-91.11
-114.20
-136.96
-158.30
-177.43
-193.63
-205.62
-211.17
-207.36
-191.67
-163.21
-123.66
-77.23
-29.69
13.04
46.34
67.57
76.15
73.11
60.53
41.13
17.97
-5.62
-26.21
-40.52
-45.93
-40.99
-26.05
-3.44
22.82
48.03
68.21
81.41
88.30
91.58
94.70
100.29
109.07
119.63
129.02
133.86
131.58
121.43
104.88
85.45
67.62
55.57
51.79
56.40
67.30
81.13
94.47
104.78
110.87
112.90
112.10
110.46
110.29
113.58
121.29
132.76
145.66
156.53
161.80
158.72
145.97
123.70
93.34
57.16
18.07
-20.71
-56.03
-85.31
-107.38
-122.79
-133.69
-142.94
-152.97
-164.65
-176.95
-187.53
-193.84
-194.45
-189.74
-182.02
-174.88
-172.06
-176.26
-188.27
-206.59
-227.90
-248.06
-263.32
-271.25
-271.13
-263.51
-249.57
-230.46
-206.99
-179.74
-149.33
-116.52
-82.14
-46.93
-11.39
24.08
58.94
92.35
123.24
150.44
172.81
189.50
200.00
204.47
203.88
200.05
195.17
191.24
189.29
189.05
189.15
187.80
183.68
176.47
166.85
156.02
144.92
133.87
122.62
110.83
98.41
85.70
73.39
62.07
51.91
42.48
32.83
21.81
8.54
-7.14
-24.53
-42.14
-58.19
-71.13
-80.32
-86.14
-89.85
-92.98
-96.74
-101.65
-107.41
-113.14
-117.62
-119.52
-117.51
-110.49
-97.81
-79.58
-56.85
-31.45
-5.77
17.70
36.81
50.25
57.92
61.02
61.89
63.43
68.19
77.40
90.40
104.66
116.65
122.90
121.14
111.00
94.07
73.70
54.22
40.09
34.92
40.38
55.49
76.49
97.84
113.76
120.13
115.84
102.83
85.04
66.71
50.90
38.84
30.16
23.65
18.06
12.51
6.46
-0.45
-8.47
-17.67
-27.71
-37.77
-46.69
-53.31
-56.85
-57.12
-54.60
-50.28
-45.39
-41.05
-38.11
-37.04
-37.96
-40.77
-45.25
-51.32
-59.08
-68.96
-81.54
-97.16
-115.56
-135.46
-154.71
-170.79
-181.48
-185.55
-182.92
-174.58
-162.14
-147.30
-131.30
-114.58
-96.82
-77.47
-56.42
-34.64
-14.27
2.00
11.93
14.60
10.61
1.56
-10.67
-24.71
-39.76
-55.23
-70.38
-84.13
-95.19
-102.38
-104.86
-102.19
-94.47
-82.51
-67.66
-51.61
-35.85
-21.26
-8.01
4.01
14.75
23.70
30.18
33.91
35.42
35.96
36.95
39.28
42.93
47.14
50.97
53.88
55.90
57.40
58.81
60.24
61.42
61.91
61.26
59.32
56.18
52.22
47.97
43.92
40.40
37.48
35.02
32.67
30.06
26.64
21.80
14.79
4.93
-8.06
-23.87
-41.39
-59.02
-74.91
-87.40
-95.30
-97.92
-94.94
-86.34
-72.46
-54.05
-32.50
-9.70
12.19
31.27
46.29
56.93
63.66
67.37
68.95
68.95
67.58
64.93
61.19
56.81
52.36
48.34
44.98
42.21
39.81
37.55
35.28
32.88
30.14
26.82
22.78
18.35
14.43
12.26
13.00
17.06
23.72
31.27
37.52
40.68
39.95
35.73
29.19
21.73
14.44
7.84
2.03
-3.12
-7.86
-12.71
-18.53
-26.45
-37.49
-51.97
-69.13
-87.10
-103.53
-116.47
-125.11
-130.00
-132.68
-134.80
-137.36
-140.43
-143.35
-145.28
-145.78
-145.02
-143.63
-142.34
-141.60
-141.36
-141.19
-140.34
-138.13
-134.09
-128.07
-120.18
-110.77
-100.27
-89.16
-77.87
-66.75
-55.92
-45.28
-34.58
-23.57
-12.20
-0.67
10.80
22.19
34.05
47.39
63.31
82.48
104.59
128.40
152.06
173.32
189.87
199.56
200.93
193.74
179.43
160.71
140.57
121.01
102.45
83.96
64.40
43.57
22.60
3.48
-12.00
-22.99
-29.67
-32.64
-32.26
-28.48
-21.23
-11.03
0.82
12.57
22.71
30.46
35.97
40.11
43.89
48.03
52.64
57.21
60.89
62.88
62.90
61.25
58.73
56.34
54.80
54.30
54.51
54.70
54.13
52.28
49.15
45.08
40.67
36.41
32.52
28.86
25.01
20.50
14.99
8.36
0.75
-7.57
-16.35
-25.38
-34.45
-43.31
-51.70
-59.44
-66.56
-73.35
-80.15
-87.08
-93.59
-98.38
-99.57
-95.38
-84.78
-68.03
-46.65
-22.91
0.92
23.21
43.23
60.83
76.11
89.08
99.55
107.32
112.42
115.12
115.91
115.31
113.75
111.49
108.69
105.41
101.70
97.69
93.58
89.71
86.43
83.91
82.03
80.28
77.98
74.55
69.81
64.02
57.75
51.55
45.69
40.04
34.20
27.73
20.38
12.19
3.45
-5.49
-14.37
-23.16
-32.02
-41.27
-51.19
-61.85
-72.95
-83.73
-93.01
-99.45
-101.94
-99.91
-93.62
-84.03
-72.50
-60.31
-48.17
-36.18
-23.91
-10.87
3.18
17.94
32.67
46.36
57.91
66.37
71.02
71.55
68.16
61.57
52.92
43.38
33.78
24.33
14.54
3.46
-9.97
-26.43
-45.97
-67.92
-91.06
-114.05
-135.83
-155.97
-174.62
-192.29
-209.27
-225.15
-238.68
-247.85
-250.37
-244.24
-228.22
-202.28
-167.89
-128.15
-87.30
-49.72
-18.55
5.49
24.40
42.00
62.18
87.07
116.08
146.13
173.02
193.07
204.37
207.02
202.69
193.71
182.39
170.70
160.08
151.49
145.28
141.08
137.89
134.34
129.08
121.21
110.51
97.32
82.36
66.52
50.74
35.92
22.85
11.89
2.89
-4.81
-12.12
-19.56
-27.00
-33.65
-38.53
-41.04
-41.39
-40.52
-39.58
-39.35
-39.92
-40.85
-41.56
-41.68
-41.14
-39.86
-37.50
-33.34
-26.64
-17.16
-5.59
6.42
16.75
23.67
26.58
26.24
24.55
23.76
25.65
30.94
39.26
49.43
60.10
70.24
79.32
87.29
94.09
99.52
103.08
104.22
102.69
98.66
92.70
85.47
77.54
69.20
60.73
52.63
45.67
40.71
38.19
37.71
37.94
37.11
33.63
26.90
17.57
7.27
-2.15
-9.42
-14.42
-18.11
-22.00
-27.35
-34.56
-43.07
-51.75
-59.47
-65.57
-69.96
-72.97
-74.99
-76.30
-77.03
-77.23
-76.97
-76.23
-74.86
-72.52
-68.85
-63.69
-57.16
-49.62
-41.47
-32.93
-24.12
-15.12
-6.17
2.29
9.85
16.32
21.88
27.07
32.53
38.62
45.38
52.49
59.44
65.79
71.22
75.52
78.55
80.33
80.95
80.72
80.01
79.13
78.18
76.96
75.14
72.41
68.69
64.20
59.32
54.33
49.17
43.40
36.38
27.60
16.91
4.75
-8.06
-20.50
-31.61
-40.64
-47.09
-50.71
-51.46
-49.52
-45.26
-39.23
-32.04
-24.27
-16.42
-8.85
-1.85
4.35
9.59
13.80
17.00
19.32
20.85
21.67
21.83
21.42
20.64
19.72
18.91
18.29
17.73
17.01
15.83
14.09
11.87
9.39
6.87
4.40
1.93
-0.67
-3.55
-6.76
-10.26
-14.02
-17.96
-22.06
-26.27
-30.57
-35.00
-39.63
-44.59
-49.95
-55.57
-61.02
-65.55
-68.27
-68.40
-65.44
-59.43
-50.84
-40.54
-29.51
-18.67
-8.64
0.22
7.87
14.40
19.94
24.59
28.38
31.36
33.57
35.10
36.03
36.40
36.22
35.58
34.63
33.59
32.69
32.02
31.52
31.04
30.37
29.33
27.82
25.76
23.10
19.88
16.23
12.38
8.53
4.78
1.03
-2.95
-7.31
-12.04
-16.88
-21.54
-25.84
-29.90
-34.02
-38.59
-43.71
-49.12
-54.15
-57.88
-59.43
-58.21
-54.07
-47.40
-38.94
-29.66
-20.48
-12.06
-4.72
1.52
6.83
11.37
15.26
18.48
20.89
22.36
22.75
22.09
20.57
18.61
16.71
15.28
14.42
13.88
13.11
11.49
8.71
4.89
0.60
-3.38
-6.41
-8.26
-9.18
-9.75
-10.63
-12.25
-14.55
-16.81
-17.59
-15.04
-7.53
5.35
22.06
38.94
51.09
54.04
45.41
25.99
-0.42
-28.20
-51.54
-66.06
-69.67
-62.76
-47.78
-28.36
-8.29
9.37
22.97
32.39
38.69
43.39
47.75
52.39
57.39
62.56
67.65
72.46
76.73
80.03
81.91
82.06
80.29
76.52
70.56
62.10
50.84
36.90
21.13
5.10
-9.26
-20.29
-27.14
-29.99
-29.81
-27.84
-25.14
-22.46
-20.30
-19.19
-19.80
-22.92
-29.23
-39.00
-51.77
-66.29
-80.78
-93.34
-102.51
-107.56
-108.54
-105.93
-100.28
-91.96
-81.31
-68.82
-55.30
-41.68
-28.55
-15.72
-2.10
13.77
32.80
54.61
77.26
97.87
113.66
123.03
126.04
124.15
119.37
113.33
106.76
99.61
91.60
82.75
73.69
65.27
58.17
52.40
47.34
42.11
36.10
29.32
22.34
15.94
10.57
6.09
1.78
-3.32
-9.90
-18.11
-27.56
-37.59
-47.63
-57.45
-67.08
-76.56
-85.56
-93.17
-98.05
-98.78
-94.42
-84.98
-71.42
-55.43
-38.81
-23.00
-8.76
3.66
14.38
23.52
31.09
37.04
41.37
44.23
45.89
46.62
46.58
45.76
44.07
41.52
38.28
34.71
31.28
28.28
25.79
23.53
21.07
17.99
14.07
9.39
4.33
-0.60
-4.98
-8.57
-11.48
-14.04
-16.76
-20.04
-24.07
-28.71
-33.60
-38.30
-42.47
-46.06
-49.25
-52.47
-56.15
-60.68
-66.18
-72.42
-78.78
-84.28
-87.73
-88.04
-84.47
-76.89
-65.83
-52.33
-37.72
-23.30
-10.08
1.33
10.74
18.23
24.04
28.38
31.38
33.12
33.71
33.32
32.19
30.59
28.74
26.79
24.80
22.77
20.78
18.90
17.27
15.93
14.83
13.76
12.45
10.68
8.39
5.76
3.04
0.47
-1.88
-4.13
-6.60
-9.52
-12.98
-16.78
-20.56
-23.96
-26.87
-29.42
-31.98
-35.01
-38.84
-43.55
-48.81
-53.96
-58.04
-60.06
-59.16
-54.96
-47.57
-37.58
-25.92
-13.56
-1.38
9.90
19.76
27.84
33.92
37.93
40.00
40.37
39.40
37.46
34.90
32.06
29.27
26.76
24.70
23.13
21.94
20.96
19.96
18.75
17.23
15.36
13.15
10.69
8.03
5.18
2.10
-1.30
-5.13
-9.45
-14.24
-19.42
-24.85
-30.36
-35.75
-40.87
-45.65
-50.18
-54.69
-59.52
-64.85
-70.43
-75.51
-78.88
-79.20
-75.51
-67.59
-56.08
-42.23
-27.56
-13.39
-0.61
10.43
19.66
27.16
33.00
37.23
39.93
41.28
41.54
40.98
39.76
37.91
35.38
32.15
28.34
24.23
20.20
16.63
13.70
11.34
9.18
6.75
3.64
-0.36
-5.14
-10.37
-15.62
-20.59
-25.21
-29.63
-34.10
-38.79
-43.63
-48.38
-52.69
-56.30
-59.10
-61.23
-62.98
-64.75
-66.87
-69.53
-72.56
-75.34
-76.84
-75.78
-71.03
-61.97
-48.79
-32.42
-14.36
3.81
20.78
35.67
48.10
57.99
65.46
70.70
73.90
75.26
75.03
73.49
70.85
67.27
62.73
57.10
50.16
41.85
32.34
22.15
12.07
2.87
-4.95
-11.32
-16.64
-21.61
-26.83
-32.66
-39.08
-45.82
-52.55
-59.10
-65.55
-72.13
-79.08
-86.51
-94.31
-102.24
-109.97
-117.13
-123.27
-127.80
-130.13
-129.77
-126.52
-120.51
-112.01
-101.11
-87.53
-70.76
-50.52
-27.35
-2.87
20.53
40.34
54.82
63.48
67.04
67.01
64.98
62.14
59.10
56.06
52.92
49.58
46.04
42.42
38.99
36.06
33.97
32.92
33.03
34.30
36.59
39.53
42.53
44.76
45.36
43.78
40.02
34.69
28.75
23.08
18.13
13.71
9.27
4.14
-2.02
-9.20
-17.10
-25.32
-33.55
-41.61
-49.39
-56.83
-63.82
-70.08
-75.11
-78.11
-78.13
-74.26
-65.99
-53.46
-37.49
-19.41
-0.70
17.25
33.48
47.59
59.61
69.89
78.90
87.03
94.49
101.25
107.20
112.19
116.26
119.57
122.42
125.05
127.55
129.72
131.01
130.68
127.94
122.34
113.94
103.41
91.84
80.32
69.69
60.31
52.19
45.12
38.90
33.46
28.77
24.76
21.18
17.61
13.55
8.51
2.19
-5.56
-14.69
-25.09
-36.59
-48.95
-61.74
-74.24
-85.36
-93.72
-98.05
-97.47
-91.83
-81.89
-69.11
-55.34
-42.47
-32.02
-24.95
-21.57
-21.66
-24.61
-29.54
-35.52
-41.62
-47.06
-51.30
-54.12
-55.62
-56.08
-55.73
-54.49
-51.81
-46.77
-38.29
-25.51
-8.06
13.78
39.10
66.55
94.57
121.55
146.12
167.19
184.14
196.79
205.28
209.92
210.98
208.69
203.23
194.82
183.70
170.11
154.13
135.77
115.13
92.62
69.21
46.27
25.30
7.48
-6.56
-16.84
-23.75
-27.88
-29.79
-30.07
-29.38
-28.42
-27.79
-27.88
-28.69
-29.94
-31.28
-32.53
-33.67
-34.88
-36.29
-37.86
-39.36
-40.49
-41.00
-40.85
-40.16
-39.15
-38.03
-37.01
-36.23
-35.78
-35.67
-35.83
-36.08
-36.18
-35.91
-35.20
-34.10
-32.83
-31.67
-30.92
-30.71
-31.08
-31.94
-33.15
-34.57
-36.06
-37.54
-38.98
-40.45
-42.17
-44.40
-47.41
-51.25
-55.56
-59.56
-62.20
-62.42
-59.53
-53.41
-44.57
-33.94
-22.65
-11.68
-1.71
6.88
13.94
19.48
23.48
25.97
27.05
26.98
26.12
24.94
23.84
23.01
22.44
21.89
21.14
20.07
18.77
17.46
16.35
15.50
14.84
14.15
13.22
11.96
10.44
8.76
6.99
5.11
3.00
0.59
-2.09
-4.88
-7.57
-9.99
-12.14
-14.18
-16.34
-18.87
-21.91
-25.49
-29.51
-33.76
-38.00
-41.87
-45.01
-46.98
-47.41
-46.01
-42.67
-37.55
-31.04
-23.78
-16.49
-9.82
-4.19
0.27
3.72
6.41
8.57
10.28
11.48
12.09
12.06
11.47
10.49
9.33
8.09
6.84
5.54
4.20
2.84
1.58
0.45
-0.51
-1.43
-2.49
-3.94
-5.89
-8.31
-11.03
-13.76
-16.27
-18.47
-20.45
-22.39
-24.50
-26.90
-29.54
-32.34
-35.13
-37.77
-40.08
-41.82
-42.63
-42.08
-39.83
-35.75
-30.05
-23.24
-16.01
-9.03
-2.79
2.45
6.66
9.92
12.35
14.05
15.12
15.68
15.87
15.85
15.76
15.62
15.40
15.02
14.36
13.44
12.26
10.89
9.39
7.83
6.25
4.69
3.15
1.51
-0.39
-2.69
-5.44
-8.53
-11.71
-14.73
-17.47
-20.00
-22.54
-25.36
-28.67
-32.52
-36.68
-40.69
-43.88
-45.44
-44.68
-41.23
-35.22
-27.26
-18.26
-9.15
-0.62
6.98
13.58
19.21
23.85
27.41
29.75
30.80
30.65
29.51
27.71
25.58
23.39
21.32
19.43
17.74
16.19
14.70
13.15
11.42
9.50
7.39
5.15
2.83
0.38
-2.28
-5.25
-8.55
-12.06
-15.53
-18.74
-21.57
-24.14
-26.71
-29.63
-33.15
-37.36
-42.08
-46.84
-50.97
-53.65
-54.06
-51.63
-46.16
-37.96
-27.85
-16.90
-6.21
3.39
11.52
18.16
23.51
27.82
31.22
33.74
35.35
36.06
35.93
35.13
33.79
32.03
29.93
27.55
24.97
22.33
19.73
17.26
14.95
12.78
10.72
8.67
6.49
4.00
1.00
-2.55
-6.54
-10.60
-14.32
-17.43
-19.90
-22.07
-24.46
-27.60
-31.81
-37.10
-43.23
-49.70
-55.77
-60.57
-63.14
-62.66
-58.78
-51.74
-42.41
-32.05
-21.94
-13.05
-5.82
-0.26
3.85
6.73
8.49
9.11
8.49
6.64
3.71
0.03
-3.94
-7.75
-11.09
-13.94
-16.59
-19.49
-23.04
-27.41
-32.41
-37.61
-42.60
-47.22
-51.75
-56.82
-63.19
-71.41
-81.58
-93.23
-105.51
-117.41
-128.08
-137.07
-144.55
-151.35
-158.69
-167.69
-178.75
-190.85
-201.54
-207.38
-204.91
-191.71
-167.10
-132.45
-90.91
-46.87
-5.12
30.21
56.62
73.92
84.15
90.72
96.95
104.77
114.10
123.38
130.62
134.47
134.66
131.73
126.40
119.16
110.21
99.80
88.58
77.52
67.68
59.69
53.50
48.36
43.19
36.99
29.28
20.17
10.37
0.82
-7.58
-14.29
-19.25
-22.80
-25.50
-27.93
-30.56
-33.74
-37.78
-42.88
-49.01
-55.72
-61.96
-66.13
-66.52
-61.79
-51.54
-36.55
-18.56
0.28
18.03
33.47
46.24
56.66
65.33
72.81
79.34
84.88
89.20
92.06
93.32
92.98
91.14
87.94
83.56
78.32
72.62
66.97
61.85
57.53
53.97
50.82
47.59
43.77
39.10
33.60
27.52
21.18
14.88
8.78
2.92
-2.69
-8.04
-13.06
-17.75
-22.20
-26.74
-31.86
-38.08
-45.68
-54.49
-63.70
-71.97
-77.67
-79.40
-76.40
-68.77
-57.43
-43.75
-29.14
-14.73
-1.24
10.94
21.66
30.88
38.68
45.16
50.49
54.78
58.06
60.19
61.05
60.60
59.02
56.64
53.91
51.32
49.22
47.86
47.39
47.77
48.82
50.17
51.28
51.62
50.79
48.64
45.34
41.26
36.81
32.26
27.68
22.99
18.00
12.55
6.63
0.32
-6.25
-12.94
-19.66
-26.40
-33.16
-40.06
-47.24
-54.92
-63.34
-72.64
-82.71
-92.97
-102.27
-109.10
-111.92
-109.58
-101.73
-88.92
-72.33
-53.48
-33.81
-14.49
3.69
20.21
34.77
47.19
57.30
65.00
70.16
72.72
72.80
70.81
67.40
63.37
59.37
55.73
52.36
48.80
44.56
39.31
33.04
26.16
19.21
12.82
7.45
3.34
0.37
-1.84
-3.86
-6.20
-8.90
-11.27
-11.90
-9.07
-1.40
11.51
28.80
48.59
68.56
86.61
101.33
112.05
118.70
121.53
120.92
117.23
110.76
101.68
90.08
76.16
60.43
43.98
28.40
15.51
6.88
3.46
5.24
11.34
20.29
30.43
40.32
48.97
55.87
60.89
64.15
65.80
65.99
64.87
62.64
59.54
55.85
51.81
47.54
43.09
38.50
33.86
29.34
25.18
21.58
18.57
16.00
13.55
10.85
7.63
3.76
-0.66
-5.45
-10.35
-15.19
-19.94
-24.66
-29.51
-34.62
-40.01
-45.59
-51.10
-56.23
-60.73
-64.49
-67.66
-70.58
-73.75
-77.70
-82.82
-89.24
-96.50
-103.57
-108.90
-110.78
-107.80
-99.33
-85.78
-68.44
-49.14
-29.72
-11.64
4.21
17.48
28.13
36.34
42.36
46.50
49.13
50.66
51.48
51.90
52.11
52.11
51.79
51.00
49.67
47.83
45.66
43.44
41.36
39.50
37.74
35.83
33.44
30.33
26.40
21.77
16.70
11.51
6.48
1.75
-2.64
-6.81
-10.90
-15.08
-19.43
-23.94
-28.44
-32.71
-36.57
-39.98
-43.14
-46.51
-50.62
-55.97
-62.69
-70.41
-78.19
-84.60
-88.04
-87.09
-81.00
-69.89
-54.76
-37.25
-19.18
-2.13
12.79
25.09
34.71
41.87
47.01
50.54
52.87
54.24
54.76
54.39
53.12
51.05
48.44
45.71
43.28
41.31
39.79
38.45
36.99
35.20
33.03
30.54
27.82
24.84
21.54
17.85
13.81
9.56
5.37
1.44
-2.14
-5.45
-8.71
-12.18
-16.05
-20.36
-24.99
-29.62
-33.91
-37.55
-40.48
-42.91
-45.31
-48.26
-52.26
-57.45
-63.44
-69.25
-73.47
-74.59
-71.46
-63.66
-51.68
-36.75
-20.52
-4.59
9.81
21.94
31.46
38.36
42.81
45.14
45.77
45.19
43.81
41.91
39.64
37.10
34.39
31.65
29.05
26.76
24.85
23.30
22.02
20.81
19.44
17.62
15.13
11.90
8.08
3.95
-0.17
-4.07
-7.76
-11.38
-15.13
-19.15
-23.48
-28.03
-32.65
-37.11
-41.23
-44.86
-48.02
-51.05
-54.56
-59.20
-65.25
-72.22
-78.68
-82.66
-82.28
-76.43
-65.28
-50.15
-32.98
-15.73
0.15
13.90
25.24
34.20
40.82
45.22
47.61
48.38
48.01
47.06
45.88
44.60
43.10
41.19
38.73
35.83
32.85
30.24
28.39
27.39
26.99
26.66
25.86
24.19
21.53
18.06
14.15
10.20
6.45
2.97
-0.43
-4.08
-8.28
-13.18
-18.65
-24.32
-29.68
-34.29
-37.97
-40.83
-43.26
-45.81
-49.04
-53.34
-58.77
-64.87
-70.62
-74.52
-75.03
-71.04
-62.25
-49.43
-34.12
-18.16
-3.16
9.89
20.67
29.26
35.91
40.82
44.12
45.94
46.53
46.18
45.15
43.68
41.87
39.75
37.40
34.95
32.62
30.61
29.11
28.08
27.30
26.34
24.72
22.09
18.44
14.09
9.58
5.51
2.20
-0.37
-2.61
-5.08
-8.21
-12.23
-17.01
-22.17
-27.29
-31.99
-36.09
-39.65
-42.92
-46.33
-50.37
-55.36
-61.28
-67.52
-72.83
-75.61
-74.33
-68.11
-57.08
-42.38
-25.84
-9.39
5.45
17.82
27.53
34.83
40.05
43.49
45.31
45.62
44.59
42.48
39.63
36.39
33.09
29.97
27.22
24.96
23.22
21.96
20.98
19.98
18.66
16.80
14.32
11.30
7.89
4.19
0.24
-4.00
-8.59
-13.53
-18.73
-24.07
-29.37
-34.48
-39.30
-43.79
-48.00
-52.09
-56.37
-61.20
-66.73
-72.68
-78.12
-81.59
-81.47
-76.59
-66.70
-52.59
-35.93
-18.66
-2.39
11.85
23.68
33.17
40.55
46.06
49.93
52.37
53.61
53.85
53.28
52.05
50.24
47.92
45.16
42.02
38.62
35.16
31.90
29.03
26.63
24.51
22.35
19.75
16.50
12.56
8.12
3.41
-1.47
-6.52
-11.89
-17.68
-23.89
-30.35
-36.78
-42.90
-48.54
-53.69
-58.65
-63.89
-69.98
-77.37
-86.08
-95.43
-104.10
-110.32
-112.46
-109.56
-101.74
-90.11
-76.40
-62.32
-49.13
-37.48
-27.61
-19.70
-14.05
-11.04
-10.83
-13.15
-17.28
-22.31
-27.49
-32.48
-37.36
-42.40
-47.87
-53.80
-60.01
-66.02
-71.07
-73.96
-73.15
-67.00
-54.31
-34.83
-9.61
19.04
48.08
74.43
95.65
110.31
118.08
119.50
115.70
108.11
98.21
87.43
76.92
67.44
59.24
51.99
44.89
36.95
27.46
16.37
4.56
-6.32
-14.29
-17.70
-15.72
-8.66
2.15
14.87
27.61
38.92
48.04
54.79
59.45
62.46
64.16
64.75
64.26
62.70
60.16
56.89
53.27
49.66
46.37
43.52
41.07
38.88
36.82
34.80
32.79
30.74
28.55
26.05
22.97
19.06
14.18
8.29
1.55
-5.79
-13.38
-20.89
-28.01
-34.57
-40.54
-46.06
-51.46
-57.13
-63.50
-70.83
-79.16
-88.12
-96.87
-104.12
-108.33
-108.06
-102.39
-91.30
-75.77
-57.48
-38.39
-20.14
-3.82
10.16
21.79
31.32
39.03
45.20
50.11
53.98
56.94
59.03
60.16
60.26
59.41
57.81
55.83
53.90
52.35
51.32
50.71
50.22
49.42
47.90
45.41
41.90
37.54
32.63
27.52
22.43
17.45
12.44
7.19
1.45
-4.91
-11.80
-18.93
-25.89
-32.30
-37.97
-43.04
-47.98
-53.48
-60.19
-68.48
-78.11
-88.05
-96.57
-101.59
-101.29
-94.73
-82.20
-65.16
-45.73
-26.02
-7.63
8.61
22.51
34.17
43.72
51.25
56.87
60.76
63.26
64.71
65.37
65.35
64.61
63.08
60.80
58.02
55.19
52.78
51.14
50.29
49.89
49.27
47.78
44.97
40.79
35.65
30.15
24.83
19.89
15.20
10.35
4.96
-1.11
-7.74
-14.61
-21.36
-27.75
-33.67
-39.22
-44.64
-50.35
-56.84
-64.54
-73.42
-82.78
-91.12
-96.47
-96.96
-91.45
-80.02
-63.92
-45.13
-25.78
-7.59
8.37
21.65
32.24
40.35
46.33
50.56
53.44
55.31
56.42
56.88
56.72
55.96
54.67
53.00
51.21
49.47
47.96
46.68
45.48
44.09
42.14
39.34
35.53
30.75
25.26
19.36
13.32
7.26
1.13
-5.22
-11.89
-18.86
-25.94
-32.88
-39.48
-45.72
-51.89
-58.46
-65.98
-74.76
-84.62
-94.65
-103.27
-108.53
-108.67
-102.67
-90.66
-73.88
-54.32
-34.08
-14.85
2.31
16.93
28.96
38.49
45.66
50.68
53.81
55.31
55.43
54.26
51.85
48.18
43.27
37.33
30.64
23.59
16.59
10.08
4.39
-0.26
-3.88
-6.80
-9.65
-13.22
-18.19
-24.82
-32.72
-40.84
-47.85
-52.55
-54.30
-53.00
-48.76
-41.62
-31.64
-19.34
-6.23
5.19
12.05
12.20
5.13
-7.76
-23.73
-39.83
-53.79
-64.32
-70.91
-73.31
-71.33
-64.94
-54.57
-41.25
-26.37
-11.33
2.93
15.99
27.91
38.97
49.49
59.64
69.31
78.20
85.89
91.98
96.24
98.71
99.64
99.40
98.38
96.78
94.68
92.03
88.76
84.93
80.77
76.62
72.91
69.90
67.64
65.85
63.94
61.23
57.16
51.46
44.29
36.11
27.55
19.19
11.39
4.21
-2.54
-9.21
-16.21
-23.92
-32.57
-42.11
-52.11
-61.57
-69.04
-72.83
-71.54
-64.55
-52.39
-36.65
-19.48
-2.95
11.61
23.68
33.45
41.36
47.70
52.56
55.84
57.51
57.73
56.79
55.04
52.71
49.92
46.76
43.40
40.10
37.20
34.96
33.43
32.39
31.38
29.87
27.44
24.04
19.88
15.39
10.93
6.57
2.08
-2.92
-8.70
-15.23
-22.14
-28.94
-35.20
-40.76
-45.73
-50.43
-55.21
-60.42
-66.31
-72.98
-80.19
-87.19
-92.67
-95.02
-92.80
-85.24
-72.62
-56.24
-38.06
-20.07
-3.82
9.92
21.08
30.00
37.12
42.76
47.06
50.08
51.88
52.65
52.62
51.96
50.75
48.92
46.42
43.34
39.95
36.73
34.08
32.19
30.86
29.63
27.90
25.19
21.36
16.60
11.34
6.07
1.11
-3.49
-7.96
-12.61
-17.70
-23.20
-28.85
-34.24
-38.99
-42.98
-46.41
-49.75
-53.63
-58.62
-65.06
-72.84
-81.24
-88.92
-94.10
-94.99
-90.34
-79.87
-64.41
-45.71
-25.89
-6.88
9.97
24.01
35.19
43.74
49.99
54.28
56.86
58.05
58.17
57.58
56.59
55.38
53.96
52.21
50.04
47.46
44.65
41.93
39.61
37.84
36.52
35.32
33.82
31.60
28.43
24.29
19.41
14.18
9.05
4.33
0.10
-3.83
-7.83
-12.25
-17.23
-22.63
-28.06
-33.09
-37.43
-41.07
-44.32
-47.66
-51.62
-56.62
-62.84
-69.96
-77.14
-82.95
-85.70
-83.85
-76.50
-63.84
-47.05
-28.07
-9.04
8.21
22.50
33.44
41.14
46.09
48.79
49.72
49.27
47.83
45.77
43.48
41.28
39.34
37.70
36.24
34.82
33.33
31.69
29.87
27.77
25.30
22.35
18.86
14.89
10.55
5.98
1.30
-3.46
-8.41
-13.63
-19.18
-25.01
-30.92
-36.64
-41.92
-46.62
-50.78
-54.71
-58.87
-63.82
-69.87
-76.81
-83.73
-89.10
-91.07
-88.10
-79.50
-65.70
-48.19
-29.00
-10.10
6.99
21.43
32.93
41.53
47.47
51.08
52.74
52.86
51.85
49.99
47.43
44.22
40.44
36.21
31.78
27.39
23.26
19.43
15.82
12.22
8.28
3.66
-1.95
-8.68
-16.38
-24.65
-32.88
-40.53
-47.30
-53.35
-59.25
-65.70
-73.37
-82.49
-92.81
-103.62
-113.99
-123.07
-130.44
-136.21
-140.91
-145.13
-148.96
-151.57
-151.14
-145.25
-131.67
-109.15
-77.90
-39.77
2.03
43.46
80.30
108.88
126.85
133.70
130.90
121.49
109.09
96.85
86.67
79.10
73.73
69.90
67.16
65.31
64.15
63.18
61.67
58.83
54.28
48.14
41.02
33.76
26.98
20.95
15.55
10.44
5.35
0.26
-4.60
-8.93
-12.50
-15.41
-18.09
-21.05
-24.73
-29.20
-34.23
-39.42
-44.50
-49.45
-54.60
-60.35
-67.01
-74.45
-82.03
-88.54
-92.48
-92.39
-87.33
-77.19
-62.90
-46.11
-28.82
-12.78
0.93
12.01
20.72
27.55
32.95
37.21
40.55
43.19
45.35
47.17
48.68
49.70
50.02
49.55
48.44
47.03
45.74
44.84
44.40
44.26
44.12
43.63
42.52
40.62
37.81
34.13
29.66
24.56
18.99
13.08
6.91
0.52
-6.02
-12.53
-18.78
-24.55
-29.73
-34.49
-39.22
-44.47
-50.78
-58.42
-67.18
-76.21
-84.16
-89.35
-90.27
-86.02
-76.59
-62.95
-46.76
-29.88
-13.87
0.38
12.67
23.36
32.99
42.01
50.57
58.61
65.89
72.10
76.97
80.26
81.90
81.97
80.73
78.58
75.95
73.18
70.38
67.44
64.13
60.19
55.54
50.29
44.80
39.61
35.33
32.35
30.70
29.78
28.54
25.71
20.31
12.09
1.57
-10.16
-21.93
-32.81
-42.42
-50.75
-57.97
-64.17
-69.35
-73.38
-76.11
-77.42
-77.18
-75.25
-71.52
-65.96
-58.72
-50.10
-40.56
-30.69
-21.04
-12.11
-4.21
2.62
8.51
13.72
18.50
22.96
27.08
30.71
33.58
35.48
36.30
36.15
35.39
34.65
34.64
36.01
39.16
44.05
50.20
56.78
62.80
67.33
69.64
69.40
66.72
62.24
56.95
51.95
48.14
45.89
44.97
44.60
43.81
41.68
37.54
31.04
22.05
10.57
-3.08
-18.14
-33.21
-46.34
-55.48
-59.01
-56.33
-48.08
-35.90
-21.92
-8.14
4.08
14.18
22.30
28.92
34.55
39.48
43.77
47.32
50.02
51.84
52.83
53.14
52.97
52.52
51.98
51.48
51.06
50.60
49.81
48.30
45.71
41.91
37.06
31.60
26.06
20.79
15.80
10.72
5.03
-1.70
-9.61
-18.48
-27.95
-37.65
-47.43
-57.25
-67.21
-77.46
-88.41
-100.76
-115.42
-132.96
-152.96
-173.54
-191.56
-203.44
-206.56
-200.18
-185.66
-165.59
-142.63
-118.48
-93.78
-68.71
-43.69
-19.81
1.60
19.69
34.68
47.77
60.39
73.26
85.81
96.38
102.99
104.28
100.16
91.74
80.84
69.28
58.36
48.69
40.33
33.09
26.85
21.58
17.37
14.19
11.89
10.16
8.65
7.11
5.44
3.71
2.01
0.38
-1.32
-3.40
-6.35
-10.63
-16.48
-23.68
-31.38
-38.13
-42.24
-42.27
-37.50
-28.21
-15.56
-1.18
13.39
27.03
39.27
49.98
59.26
67.15
73.64
78.70
82.44
85.07
86.85
88.02
88.66
88.70
88.00
86.37
83.76
80.27
76.14
71.72
67.33
63.11
59.02
54.79
50.14
44.88
39.08
33.03
27.08
21.48
16.17
10.83
5.03
-1.53
-8.80
-16.39
-23.69
-30.17
-35.58
-40.10
-44.17
-48.44
-53.50
-59.72
-67.01
-74.76
-81.77
-86.50
-87.51
-83.88
-75.64
-63.73
-49.74
-35.38
-21.94
-10.13
-0.05
8.44
15.53
21.25
25.54
28.38
29.89
30.35
30.15
29.65
29.05
28.40
27.65
26.75
25.77
24.84
24.18
23.91
24.05
24.45
24.81
24.77
23.97
22.15
19.19
15.26
10.68
6.00
1.73
-1.83
-4.70
-7.30
-10.27
-14.27
-19.70
-26.55
-34.38
-42.53
-50.27
-57.04
-62.58
-66.89
-70.18
-72.77
-74.97
-76.97
-78.75
-79.88
-79.60
-76.87
-70.68
-60.46
-46.29
-29.08
-10.27
8.43
25.57
40.19
51.90
60.74
66.88
70.55
71.90
71.21
68.91
65.67
62.20
59.08
56.66
54.89
53.57
52.38
51.11
49.70
48.21
46.73
45.26
43.71
41.91
39.65
36.79
33.33
29.45
25.42
21.50
17.80
14.33
10.94
7.50
3.83
-0.11
-4.29
-8.62
-12.99
-17.26
-21.28
-24.95
-28.18
-30.95
-33.34
-35.50
-37.74
-40.42
-43.89
-48.29
-53.33
-58.14
-61.39
-61.64
-57.85
-49.77
-38.14
-24.42
-10.34
2.61
13.55
22.20
28.67
33.23
36.08
37.42
37.40
36.31
34.52
32.46
30.46
28.74
27.40
26.44
25.84
25.51
25.40
25.38
25.35
25.19
24.84
24.28
23.47
22.37
20.88
18.89
16.42
13.60
10.68
7.94
5.52
3.37
1.18
-1.42
-4.72
-8.75
-13.34
-18.12
-22.73
-26.89
-30.48
-33.60
-36.50
-39.53
-43.10
-47.58
-53.01
-59.05
-64.75
-68.76
-69.61
-66.21
-58.24
-46.36
-31.96
-16.83
-2.55
9.72
19.45
26.59
31.33
33.99
34.93
34.51
33.11
31.10
28.75
26.20
23.53
20.77
18.04
15.54
13.56
12.35
12.02
12.43
13.21
13.86
13.92
13.12
11.48
9.26
6.79
4.36
2.09
-0.12
-2.46
-5.15
-8.28
-11.79
-15.46
-18.94
-21.90
-24.13
-25.68
-26.91
-28.39
-30.76
-34.41
-39.13
-44.08
-47.77
-48.56
-45.14
-37.04
-24.80
-9.84
6.00
20.98
33.86
44.01
51.29
55.91
58.30
58.98
58.52
57.36
55.84
53.99
51.65
48.60
44.68
39.92
34.56
28.96
23.54
18.61
14.37
10.86
8.05
5.83
4.06
2.53
0.96
-0.99
-3.65
-7.30
-12.02
-17.69
-24.02
-30.58
-36.94
-42.77
-47.86
-52.11
-55.64
-58.77
-62.01
-65.96
-70.99
-76.91
-82.78
-87.07
-88.04
-84.42
-75.84
-63.02
-47.48
-31.06
-15.37
-1.50
10.03
19.09
25.83
30.51
33.47
35.09
35.74
35.74
35.27
34.43
33.25
31.72
29.86
27.80
25.70
23.83
22.46
21.72
21.52
21.54
21.33
20.46
18.74
16.24
13.28
10.17
7.09
3.96
0.55
-3.41
-8.01
-13.09
-18.32
-23.34
-27.89
-31.98
-35.88
-40.03
-44.96
-51.05
-58.33
-66.25
-73.69
-79.08
-80.79
-77.65
-69.40
-56.80
-41.46
-25.26
-9.92
3.45
14.36
22.77
28.86
32.89
35.16
36.09
36.17
35.88
35.56
35.32
35.08
34.70
34.08
33.23
32.28
31.37
30.58
29.84
29.02
27.88
26.19
23.79
20.67
16.97
12.95
8.91
5.07
1.48
-2.01
-5.67
-9.79
-14.51
-19.70
-25.01
-29.99
-34.27
-37.77
-40.79
-43.91
-47.82
-53.04
-59.69
-67.28
-74.81
-80.81
-83.73
-82.26
-75.76
-64.49
-49.60
-32.83
-16.08
-0.90
11.81
21.77
29.22
34.56
38.23
40.54
41.76
42.11
41.80
41.04
40.02
38.87
37.68
36.57
35.64
35.01
34.69
34.59
34.45
33.93
32.67
30.42
27.12
22.94
18.24
13.42
8.81
4.50
0.39
-3.80
-8.31
-13.26
-18.50
-23.77
-28.74
-33.19
-37.14
-40.84
-44.77
-49.43
-55.16
-61.86
-68.87
-74.95
-78.51
-78.11
-72.89
-62.94
-49.28
-33.50
-17.36
-2.32
10.71
21.35
29.57
35.60
39.70
42.17
43.30
43.37
42.61
41.27
39.58
37.71
35.87
34.21
32.87
31.90
31.33
31.05
30.90
30.66
30.04
28.81
26.82
24.02
20.50
16.43
11.99
7.30
2.37
-2.90
-8.60
-14.74
-21.18
-27.60
-33.65
-39.06
-43.84
-48.22
-52.67
-57.73
-63.92
-71.48
-80.22
-89.35
-97.41
-102.53
-102.96
-97.64
-86.62
-71.09
-52.99
-34.36
-16.79
-1.22
12.05
23.03
31.88
38.76
43.92
47.77
50.76
53.27
55.49
57.36
58.63
59.08
58.58
57.24
55.36
53.38
51.72
50.68
50.27
50.22
50.03
49.13
47.08
43.77
39.36
34.25
28.92
23.77
19.04
14.70
10.55
6.19
1.23
-4.56
-11.13
-18.13
-25.03
-31.37
-36.92
-41.79
-46.39
-51.28
-57.04
-64.10
-72.54
-81.89
-91.03
-98.20
-101.46
-99.22
-90.85
-76.98
-59.30
-40.10
-21.49
-4.90
9.10
20.61
30.04
37.82
44.20
49.33
53.26
56.11
58.01
59.15
59.69
59.76
59.42
58.72
57.64
56.19
54.43
52.49
50.52
48.63
46.77
44.73
42.22
39.01
35.05
30.51
25.70
20.93
16.38
12.06
7.80
3.42
-1.21
-6.11
-11.18
-16.32
-21.37
-26.22
-30.77
-34.98
-38.93
-42.87
-47.17
-52.28
-58.57
-66.07
-74.27
-82.07
-87.90
-90.16
-87.59
-79.77
-67.21
-51.27
-33.75
-16.36
-0.38
13.54
25.28
34.98
42.84
48.98
53.44
56.28
57.65
57.84
57.26
56.23
55.05
53.84
52.67
51.57
50.64
50.02
49.81
50.03
50.45
50.63
50.02
48.09
44.64
39.77
33.92
27.66
21.51
15.76
10.39
5.21
-0.07
-5.71
-11.85
-18.44
-25.24
-31.95
-38.28
-44.08
-49.41
-54.56
-59.98
-66.16
-73.47
-81.95
-91.12
-99.92
-106.74
-109.79
-107.59
-99.52
-86.04
-68.64
-49.34
-30.12
-12.38
3.18
16.50
27.78
37.28
45.16
51.49
56.35
59.84
62.12
63.35
63.74
63.46
62.74
61.79
60.83
59.93
59.10
58.25
57.28
56.17
54.92
53.55
51.95
49.88
47.05
43.22
38.40
32.82
26.93
21.22
16.04
11.52
7.49
3.58
-0.66
-5.56
-11.24
-17.56
-24.16
-30.65
-36.74
-42.32
-47.55
-52.77
-58.46
-65.08
-72.82
-81.40
-89.81
-96.42
-99.30
-96.84
-88.32
-74.26
-56.26
-36.53
-17.17
0.27
15.04
27.06
36.62
44.15
50.07
54.69
58.27
60.97
62.83
63.81
63.85
62.95
61.27
59.16
57.04
55.33
54.28
53.89
53.97
54.11
53.89
53.01
51.29
48.76
45.54
41.82
37.78
33.55
29.26
25.00
20.88
16.96
13.25
9.67
6.04
2.13
-2.25
-7.15
-12.53
-18.18
-23.79
-29.15
-34.14
-38.80
-43.37
-48.26
-53.93
-60.75
-68.75
-77.37
-85.35
-90.92
-92.27
-88.14
-78.33
-63.86
-46.69
-29.04
-12.84
0.78
11.53
19.71
25.98
30.96
35.16
38.81
41.98
44.64
46.70
48.17
49.09
49.59
49.78
49.79
49.70
49.62
49.65
49.83
50.05
50.02
49.30
47.43
44.15
39.49
33.77
27.52
21.18
15.02
9.07
3.18
-2.85
-9.14
-15.73
-22.57
-29.59
-36.76
-43.99
-51.18
-58.15
-64.75
-70.87
-76.67
-82.56
-89.15
-97.03
-106.36
-116.59
-126.28
-133.35
-135.64
-131.68
-121.22
-105.52
-86.98
-68.41
-52.12
-39.25
-29.39
-20.73
-10.51
4.15
25.51
54.40
89.78
128.75
167.02
199.87
223.33
235.18
235.43
226.20
210.89
193.17
175.90
160.59
147.30
135.01
122.28
107.80
90.82
71.21
49.42
26.29
2.89
-19.60
-40.05
-57.56
-71.65
-82.31
-90.03
-95.65
-100.09
-104.11
-108.09
-112.07
-115.87
-119.36
-122.55
-125.57
-128.39
-130.54
-130.90
-127.86
-119.76
-105.55
-85.24
-60.08
-32.32
-4.59
20.76
42.09
58.76
71.00
79.56
85.36
89.11
91.23
91.84
90.94
88.54
84.76
79.86
74.18
68.06
61.88
55.97
50.69
46.29
42.96
40.63
38.99
37.50
35.45
32.17
27.20
20.47
12.36
3.54
-5.16
-13.13
-20.04
-25.89
-30.95
-35.49
-39.72
-43.66
-47.17
-50.13
-52.52
-54.53
-56.59
-59.35
-63.44
-69.40
-77.37
-87.01
-97.28
-106.53
-112.74
-113.97
-108.97
-97.61
-81.03
-61.27
-40.71
-21.37
-4.54
9.33
20.36
28.91
35.41
40.21
43.68
46.20
48.15
49.76
51.05
51.86
51.93
51.12
49.50
47.43
45.37
43.73
42.63
41.86
40.92
39.23
36.33
32.06
26.64
20.50
14.23
8.26
2.83
-2.07
-6.67
-11.25
-16.04
-21.12
-26.39
-31.62
-36.56
-41.04
-45.04
-48.73
-52.49
-56.85
-62.30
-69.04
-76.67
-84.06
-89.55
-91.26
-87.84
-78.86
-65.07
-48.15
-30.14
-12.89
2.31
14.85
24.69
32.05
37.28
40.76
42.82
43.82
44.03
43.67
42.84
41.61
40.03
38.22
36.37
34.64
33.16
31.85
30.49
28.80
26.51
23.56
20.08
16.35
12.61
8.93
5.19
1.08
-3.63
-9.04
-14.99
-21.17
-27.22
-32.91
-38.25
-43.45
-48.91
-55.07
-62.29
-70.72
-80.07
-89.48
-97.54
-102.47
-102.61
-96.95
-85.54
-69.48
-50.64
-31.06
-12.48
3.98
17.83
29.08
37.93
44.66
49.59
53.03
55.35
56.86
57.74
58.02
57.63
56.48
54.55
52.02
49.17
46.32
43.68
41.28
39.03
36.78
34.43
31.95
29.30
26.33
22.81
18.43
12.97
6.40
-1.04
-8.97
-16.94
-24.53
-31.51
-37.78
-43.50
-49.01
-54.87
-61.68
-69.77
-78.95
-88.25
-96.03
-100.30
-99.35
-92.32
-79.54
-62.44
-43.07
-23.55
-5.48
10.21
23.22
33.70
41.92
48.22
52.90
56.31
58.74
60.42
61.39
61.51
60.55
58.33
54.91
50.66
46.17
42.07
38.78
36.35
34.45
32.54
30.10
26.83
22.79
18.24
13.51
8.80
4.07
-0.94
-6.51
-12.83
-19.85
-27.22
-34.46
-41.09
-46.81
-51.67
-56.11
-60.82
-66.64
-74.22
-83.71
-94.58
-105.52
-114.66
-120.13
-120.60
-115.74
-106.41
-94.32
-81.53
-69.69
-59.54
-50.71
-41.94
-31.74
-19.07
-3.94
12.57
28.67
42.53
52.94
59.67
63.28
64.60
64.16
61.96
57.60
50.82
41.98
32.12
22.66
14.77
8.83
4.31
0.13
-4.81
-11.03
-18.50
-26.74
-35.04
-42.40
-47.40
-48.08
-42.28
-28.51
-6.69
21.46
52.77
83.69
111.35
134.14
151.63
164.00
171.45
173.92
171.15
162.96
149.53
131.61
110.60
88.48
67.67
50.48
38.58
32.52
31.64
34.31
38.61
42.84
45.96
47.55
47.66
46.54
44.43
41.58
38.20
34.54
30.88
27.46
24.45
21.88
19.64
17.60
15.64
13.78
12.21
11.17
10.82
11.13
11.82
12.41
12.35
11.21
8.78
5.14
0.67
-4.08
-8.54
-12.33
-15.33
-17.73
-19.91
-22.24
-24.96
-28.06
-31.36
-34.54
-37.37
-39.79
-41.96
-44.21
-46.93
-50.43
-54.90
-60.31
-66.32
-72.18
-76.74
-78.58
-76.45
-69.67
-58.46
-43.98
-27.97
-12.23
1.84
13.50
22.52
29.03
33.25
35.41
35.83
34.96
33.41
31.77
30.47
29.66
29.26
28.98
28.57
27.92
27.09
26.25
25.57
25.05
24.46
23.42
21.50
18.41
14.22
9.27
4.18
-0.51
-4.50
-7.91
-11.13
-14.69
-18.88
-23.60
-28.49
-33.04
-36.94
-40.22
-43.31
-46.90
-51.68
-58.04
-65.93
-74.61
-82.68
-88.36
-89.81
-85.78
-76.00
-61.37
-43.73
-25.29
-8.00
6.83
18.76
27.99
35.06
40.56
44.97
48.61
51.66
54.15
56.06
57.30
57.78
57.49
56.50
54.96
53.12
51.24
49.62
48.46
47.83
47.50
47.01
45.79
43.34
39.49
34.47
28.85
23.25
18.19
13.79
9.81
5.84
1.45
-3.58
-9.18
-15.00
-20.64
-25.73
-30.20
-34.26
-38.33
-42.99
-48.73
-55.84
-64.22
-73.21
-81.55
-87.51
-89.30
-85.60
-76.05
-61.45
-43.60
-24.81
-7.16
7.96
20.07
29.42
36.61
42.23
46.70
50.21
52.87
54.74
55.94
56.51
56.48
55.80
54.46
52.53
50.20
47.75
45.48
43.58
42.10
40.88
39.62
37.99
35.66
32.43
28.26
23.35
18.00
12.64
7.60
3.09
-0.91
-4.59
-8.26
-12.21
-16.59
-21.39
-26.45
-31.49
-36.20
-40.39
-44.00
-47.16
-50.23
-53.68
-58.06
-63.68
-70.40
-77.41
-83.24
-86.08
-84.31
-77.13
-64.84
-48.83
-31.12
-13.75
1.74
14.50
24.35
31.49
36.29
39.13
40.39
40.45
39.67
38.35
36.72
34.97
33.19
31.42
29.65
27.83
25.93
23.96
21.99
20.11
18.33
16.53
14.48
11.87
8.51
4.41
-0.14
-4.70
-8.78
-12.08
-14.59
-16.64
-18.72
-21.31
-24.68
-28.75
-33.22
-37.66
-41.73
-45.33
-48.60
-51.78
-55.23
-59.33
-64.56
-71.33
-79.82
-89.65
-99.69
-108.20
-113.26
-113.38
-107.99
-97.65
-83.75
-68.23
-53.01
-39.69
-29.30
-22.05
-17.33
-13.73
-9.37
-2.34
9.01
25.78
48.30
75.79
105.98
135.19
158.94
173.18
175.76
167.23
150.66
130.35
110.17
92.34
77.22
64.01
51.81
40.26
29.56
19.95
11.26
2.78
-6.41
-16.91
-28.64
-40.79
-52.16
-61.60
-68.49
-72.93
-75.69
-77.93
-80.83
-85.32
-91.75
-99.86
-108.71
-116.75
-122.09
-122.95
-118.00
-106.79
-89.83
-68.37
-44.18
-19.15
4.86
26.19
43.54
56.09
63.72
67.06
67.35
66.03
64.33
62.87
61.70
60.47
58.78
56.45
53.53
50.29
46.98
43.75
40.61
37.51
34.41
31.28
28.12
24.86
21.41
17.71
13.72
9.49
5.04
0.40
-4.51
-9.78
-15.49
-21.63
-27.97
-34.20
-39.89
-44.77
-48.77
-52.13
-55.37
-59.19
-64.19
-70.66
-78.35
-86.39
-93.43
-97.95
-98.69
-95.01
-87.06
-75.71
-62.27
-48.14
-34.55
-22.46
-12.49
-5.09
-0.52
1.16
0.19
-2.76
-6.54
-9.50
-9.81
-5.87
3.04
16.39
32.37
48.51
62.50
73.07
80.35
85.58
90.22
95.12
100.05
103.81
104.99
102.64
96.72
88.05
77.89
67.41
57.32
47.76
38.43
28.91
18.86
8.16
-3.03
-14.52
-26.17
-38.05
-50.48
-63.85
-78.41
-94.02
-110.01
-125.18
-137.89
-146.10
-147.63
-140.50
-123.55
-96.92
-62.40
-23.25
16.62
53.59
85.32
110.98
131.03
146.47
158.21
166.69
171.90
173.70
172.14
167.45
159.91
149.71
136.89
121.51
103.95
85.10
66.30
48.99
34.29
22.61
13.55
6.18
-0.60
-7.62
-15.16
-23.02
-30.71
-37.75
-43.83
-48.88
-53.08
-56.74
-60.22
-63.83
-67.84
-72.40
-77.50
-82.91
-88.12
-92.35
-94.69
-94.30
-90.62
-83.54
-73.41
-60.97
-47.16
-32.90
-18.99
-6.00
5.70
15.94
24.67
31.90
37.70
42.13
45.28
47.25
48.24
48.49
48.25
47.76
47.19
46.66
46.23
45.92
45.63
45.19
44.36
42.92
40.76
37.89
34.50
30.82
27.11
23.45
19.84
16.15
12.26
8.02
3.37
-1.73
-7.25
-13.03
-18.85
-24.44
-29.59
-34.34
-38.99
-44.07
-50.07
-57.26
-65.41
-73.73
-80.99
-85.70
-86.49
-82.47
-73.49
-60.28
-44.30
-27.37
-11.21
3.00
14.84
24.45
32.29
38.72
43.84
47.48
49.49
49.91
49.08
47.57
45.91
44.45
43.31
42.37
41.47
40.51
39.45
38.31
37.09
35.80
34.36
32.69
30.67
28.21
25.26
21.87
18.22
14.61
11.27
8.36
5.84
3.52
1.17
-1.43
-4.45
-7.96
-11.97
-16.40
-21.09
-25.78
-30.24
-34.29
-37.96
-41.49
-45.28
-49.78
-55.27
-61.61
-68.11
-73.55
-76.41
-75.31
-69.52
-59.26
-45.67
-30.47
-15.42
-1.80
9.71
19.07
26.50
32.27
36.56
39.41
40.87
41.10
40.37
39.03
37.41
35.74
34.12
32.60
31.17
29.92
28.96
28.43
28.35
28.63
28.98
29.03
28.45
27.04
24.77
21.77
18.27
14.47
10.54
6.61
2.75
-1.00
-4.66
-8.21
-11.62
-14.83
-17.72
-20.24
-22.37
-24.23
-26.10
-28.40
-31.62
-36.15
-42.14
-49.30
-56.78
-63.20
-66.97
-66.69
-61.67
-52.14
-39.32
-24.96
-10.82
1.76
12.13
20.19
26.18
30.38
33.03
34.30
34.37
33.55
32.22
30.69
29.18
27.68
26.12
24.42
22.56
20.71
19.10
17.96
17.33
17.03
16.69
15.87
14.19
11.50
7.95
3.93
-0.02
-3.37
-5.82
-7.39
-8.43
-9.50
-11.17
-13.81
-17.47
-21.88
-26.65
-31.34
-35.67
-39.55
-43.17
-46.93
-51.36
-56.89
-63.58
-70.83
-77.26
-81.02
-80.36
-74.29
-63.12
-48.37
-32.36
-17.35
-4.90
4.51
11.30
16.33
20.44
24.14
27.61
30.87
34.02
37.41
41.65
47.56
56.06
68.03
84.03
104.00
126.96
150.75
172.15
187.41
193.15
187.39
170.27
144.13
112.89
80.85
51.48
26.71
6.84
-8.91
-21.73
-32.60
-42.15
-50.78
-58.80
-66.53
-74.12
-81.41
-87.91
-92.93
-95.89
-96.57
-95.37
-93.16
-91.11
-90.39
-91.67
-94.97
-99.52
-103.86
-106.30
-105.37
-100.30
-91.25
-79.19
-65.56
-51.82
-39.08
-27.92
-18.47
-10.66
-4.29
0.74
4.55
7.26
9.12
10.43
11.44
12.34
13.17
13.94
14.66
15.44
16.49
18.01
20.10
22.65
25.30
27.51
28.74
28.59
26.93
23.96
20.13
16.03
12.19
8.90
6.11
3.48
0.47
-3.34
-8.09
-13.56
-19.25
-24.59
-29.19
-32.99
-36.32
-39.73
-43.83
-48.99
-55.22
-61.94
-68.08
-72.25
-73.06
-69.59
-61.65
-49.95
-35.86
-21.12
-7.27
4.65
14.22
21.59
27.18
31.45
34.76
37.30
39.11
40.24
40.71
40.61
40.07
39.22
38.19
37.07
35.91
34.74
33.58
32.47
31.44
30.49
29.52
28.31
26.63
24.27
21.19
17.51
13.53
9.50
5.58
1.66
-2.58
-7.48
-13.19
-19.63
-26.44
-33.17
-39.54
-45.51
-51.33
-57.37
-64.00
-71.44
-79.79
-88.96
-98.68
-108.45
-117.47
-124.71
-129.14
-130.07
-127.37
-121.71
-114.26
-106.45
-99.46
-93.94
-89.89
-86.80
-83.94
-80.52
-75.91
-69.54
-60.89
-49.39
-34.59
-16.29
5.20
29.05
54.00
78.56
101.40
121.51
138.25
151.32
160.64
166.25
168.28
167.00
162.81
156.22
147.88
138.45
128.59
118.78
109.31
100.26
91.48
82.73
73.84
64.80
55.73
46.83
38.25
30.00
22.06
14.38
6.89
-0.49
-7.90
-15.47
-23.28
-31.13
-38.52
-44.60
-48.50
-49.43
-47.01
-41.29
-32.80
-22.39
-11.10
0.08
10.30
18.97
25.83
30.87
34.29
36.34
37.32
37.49
37.10
36.37
35.50
34.63
33.79
32.99
32.22
31.50
30.89
30.37
29.86
29.15
28.01
26.21
23.68
20.50
16.83
12.89
8.81
4.59
0.14
-4.64
-9.79
-15.14
-20.39
-25.20
-29.29
-32.61
-35.42
-38.23
-41.72
-46.49
-52.81
-60.42
-68.46
-75.54
-80.08
-80.69
-76.60
-67.84
-55.32
-40.54
-25.18
-10.71
1.89
12.17
20.21
26.34
31.01
34.65
37.58
40.00
42.00
43.61
44.77
45.39
45.41
44.82
43.70
42.18
40.43
38.60
36.88
35.38
34.19
33.29
32.51
31.58
30.19
28.10
25.26
21.82
18.03
14.11
10.14
6.04
1.73
-2.82
-7.48
-12.00
-16.11
-19.71
-22.90
-25.97
-29.34
-33.41
-38.42
-44.39
-50.87
-56.92
-61.16
-62.08
-58.48
-50.03
-37.46
-22.38
-6.75
7.74
20.09
30.01
37.71
43.48
47.53
49.99
51.00
50.89
50.00
48.63
46.88
44.66
41.82
38.29
34.22
29.90
25.66
21.79
18.42
15.50
12.87
10.29
7.53
4.41
0.86
-3.08
-7.29
-11.56
-15.60
-19.05
-21.50
-22.62
-22.21
-20.29
-17.05
-12.80
-7.90
-2.72
2.30
6.59
9.52
10.48
9.13
5.51
0.09
-6.39
-13.14
-19.50
-24.92
-28.94
-31.09
-30.97
-28.42
-23.71
-17.58
-11.00
-4.94
0.04
3.83
6.73
9.11
11.17
12.83
13.82
13.94
13.25
12.16
11.21
10.90
11.49
12.85
14.66
16.52
18.13
19.43
20.54
21.59
22.69
23.82
24.77
25.30
25.10
23.98
21.86
18.82
15.06
10.87
6.41
1.76
-3.16
-8.54
-14.60
-21.50
-29.31
-37.91
-46.95
-55.75
-63.40
-68.84
-71.18
-69.95
-65.27
-57.80
-48.55
-38.52
-28.46
-18.79
-9.69
-1.29
6.29
12.90
18.49
23.13
26.97
30.18
32.83
34.87
36.17
36.71
36.54
35.85
34.86
33.80
32.79
31.89
31.06
30.14
28.95
27.26
24.93
21.93
18.44
14.75
11.17
7.91
4.92
1.93
-1.43
-5.48
-10.29
-15.69
-21.31
-26.76
-31.75
-36.19
-40.25
-44.27
-48.67
-53.92
-60.32
-67.82
-75.75
-82.79
-87.16
-87.10
-81.54
-70.51
-55.26
-37.86
-20.51
-4.85
8.32
19.00
27.61
34.59
40.22
44.59
47.81
50.03
51.53
52.56
53.18
53.31
52.80
51.52
49.57
47.19
44.79
42.73
41.22
40.23
39.51
38.66
37.25
34.98
31.78
27.85
23.55
19.30
15.37
11.82
8.47
5.05
1.36
-2.64
-6.81
-10.94
-14.87
-18.57
-22.20
-26.01
-30.32
-35.40
-41.41
-48.30
-55.68
-62.76
-68.44
-71.50
-70.93
-66.22
-57.49
-45.56
-31.72
-17.46
-4.12
7.28
16.21
22.57
26.56
28.55
28.94
28.14
26.55
24.60
22.73
21.32
20.62
20.65
21.26
22.20
23.16
23.88
24.17
23.88
22.92
21.29
19.09
16.53
13.82
11.10
8.34
5.40
2.04
-1.90
-6.41
-11.24
-16.06
-20.50
-24.42
-27.84
-31.05
-34.44
-38.37
-43.08
-48.58
-54.59
-60.38
-64.88
-66.71
-64.61
-57.85
-46.59
-31.96
-15.79
-0.09
13.56
24.28
31.98
37.01
39.89
41.09
40.99
39.97
38.43
36.82
35.54
34.79
34.62
34.85
35.32
35.89
36.52
37.25
38.06
38.76
39.05
38.57
37.05
34.45
30.92
26.77
22.26
17.56
12.67
7.52
2.06
-3.72
-9.75
-15.93
-22.22
-28.68
-35.58
-43.35
-52.51
-63.47
-76.22
-90.03
-103.35
-113.97
-119.58
-118.48
-110.20
-95.75
-77.23
-57.28
-38.21
-21.50
-7.69
3.45
12.50
20.05
26.49
31.96
36.35
39.55
41.59
42.90
44.33
46.99
51.94
59.90
70.97
84.69
100.07
115.74
130.05
141.18
147.33
147.14
140.03
126.41
107.61
85.56
62.19
39.09
17.39
-2.27
-19.49
-34.11
-46.22
-56.12
-64.34
-71.43
-77.93
-84.24
-90.69
-97.54
-104.89
-112.45
-119.36
-124.11
-124.89
-120.17
-109.32
-92.87
-72.45
-50.26
-28.48
-8.79
7.68
20.41
29.21
34.29
36.17
35.68
33.81
31.41
29.03
26.76
24.40
21.73
18.75
15.80
13.39
12.03
11.88
12.74
14.11
15.38
16.07
15.97
15.11
13.67
11.87
9.82
7.51
4.81
1.54
-2.44
-7.19
-12.53
-18.17
-23.63
-28.51
-32.57
-35.91
-38.94
-42.36
-46.86
-52.82
-60.05
-67.53
-73.62
-76.38
-74.18
-66.26
-53.07
-36.16
-17.67
0.21
15.89
28.57
38.22
45.23
50.06
53.01
54.24
53.87
52.15
49.50
46.48
43.64
41.36
39.74
38.54
37.37
35.84
33.76
31.21
28.47
25.86
23.51
21.24
18.56
14.86
9.73
3.09
-4.73
-13.11
-21.38
-29.03
-35.78
-41.64
-46.81
-51.63
-56.55
-62.04
-68.43
-75.70
-83.12
-89.30
-92.46
-90.94
-83.86
-71.53
-55.36
-37.46
-19.89
-4.16
9.08
19.82
28.36
35.04
40.06
43.53
45.64
46.65
46.86
46.53
45.74
44.50
42.79
40.63
38.22
35.85
33.83
32.42
31.72
31.60
31.70
31.46
30.27
27.65
23.41
17.77
11.27
4.57
-1.77
-7.53
-12.90
-18.40
-24.62
-32.08
-41.01
-51.22
-62.03
-72.21
-80.15
-84.12
-82.79
-75.67
-63.38
-47.57
-30.37
-13.79
0.83
12.96
22.75
30.65
37.09
42.29
46.37
49.40
51.51
52.81
53.37
53.17
52.12
50.19
47.48
44.28
41.01
38.05
35.71
34.10
33.16
32.63
32.15
31.33
29.78
27.21
23.48
18.69
13.11
7.17
1.29
-4.13
-8.93
-13.12
-16.96
-20.93
-25.59
-31.44
-38.66
-46.86
-54.99
-61.42
-64.39
-62.54
-55.43
-43.75
-29.14
-13.62
1.04
13.74
24.18
32.57
39.31
44.61
48.50
50.93
52.01
52.03
51.45
50.69
49.95
49.22
48.32
47.06
45.33
43.25
41.07
39.06
37.47
36.31
35.40
34.37
32.78
30.30
26.79
22.43
17.58
12.69
8.11
4.02
0.35
-3.11
-6.64
-10.44
-14.55
-18.82
-22.99
-26.79
-30.04
-32.80
-35.35
-38.20
-41.96
-47.18
-54.04
-62.15
-70.31
-76.71
-79.34
-76.64
-68.10
-54.53
-37.75
-20.11
-3.67
10.21
21.04
28.94
34.36
37.72
39.38
39.71
39.12
38.11
37.12
36.44
36.10
35.96
35.82
35.58
35.32
35.27
35.64
36.48
37.61
38.66
39.29
39.33
38.88
38.17
37.45
36.74
35.91
34.68
32.83
30.36
27.49
24.44
21.34
18.09
14.38
9.91
4.53
-1.65
-8.26
-14.86
-21.11
-26.80
-31.98
-36.81
-41.59
-46.69
-52.49
-59.29
-67.04
-75.13
-82.33
-86.98
-87.48
-82.80
-72.93
-58.86
-42.24
-24.74
-7.65
8.42
23.33
37.11
49.64
60.60
69.59
76.39
81.12
84.25
86.38
87.98
89.20
89.81
89.41
87.68
84.56
80.32
75.41
70.20
64.83
59.20
53.08
46.33
39.03
31.46
23.96
16.85
10.26
4.25
-1.21
-6.08
-10.35
-14.08
-17.48
-20.86
-24.49
-28.51
-32.84
-37.22
-41.38
-45.08
-48.26
-50.98
-53.39
-55.66
-57.98
-60.54
-63.56
-67.06
-70.77
-73.89
-75.13
-73.03
-66.42
-54.95
-39.39
-21.51
-3.53
12.53
25.38
34.64
40.70
44.31
46.23
47.06
47.23
47.04
46.76
46.48
46.14
45.49
44.23
42.16
39.24
35.67
31.70
27.52
23.17
18.53
13.46
7.91
2.05
-3.73
-8.95
-13.20
-16.24
-18.19
-19.37
-20.26
-21.23
-22.46
-23.93
-25.47
-26.89
-28.10
-29.13
-30.12
-31.36
-33.25
-36.20
-40.51
-46.12
-52.36
-57.99
-61.39
-61.02
-55.94
-46.15
-32.63
-17.09
-1.48
12.52
23.75
31.70
36.41
38.21
37.60
35.08
31.23
26.67
22.06
17.97
14.75
12.44
10.79
9.45
8.14
6.84
5.66
4.77
4.12
3.48
2.43
0.61
-2.07
-5.40
-8.96
-12.42
-15.61
-18.71
-22.00
-25.76
-30.03
-34.60
-39.07
-43.10
-46.52
-49.51
-52.51
-56.08
-60.70
-66.48
-72.95
-78.96
-82.81
-82.72
-77.35
-66.34
-50.54
-31.77
-12.36
5.55
20.43
31.61
39.11
43.40
45.14
45.01
43.65
41.62
39.34
37.07
34.85
32.56
30.06
27.26
24.27
21.35
18.85
17.07
16.10
15.76
15.71
15.46
14.60
12.90
10.29
6.85
2.76
-1.79
-6.64
-11.55
-16.36
-20.88
-25.02
-28.76
-32.23
-35.62
-39.20
-43.26
-48.05
-53.67
-59.86
-65.90
-70.57
-72.40
-70.04
-62.78
-50.84
-35.47
-18.51
-1.97
12.54
24.08
32.35
37.53
40.07
40.49
39.34
37.15
34.42
31.51
28.68
26.01
23.49
21.14
18.98
17.05
15.39
13.93
12.61
11.32
9.97
8.49
6.84
4.94
2.71
0.13
-2.81
-6.04
-9.51
-13.14
-16.88
-20.69
-24.48
-28.21
-31.85
-35.43
-39.09
-43.03
-47.49
-52.65
-58.43
-64.34
-69.33
-71.97
-70.76
-64.67
-53.56
-38.34
-20.76
-2.95
13.25
26.60
36.64
43.50
47.62
49.53
49.64
48.32
45.88
42.76
39.37
36.16
33.43
31.20
29.29
27.49
25.67
23.95
22.62
21.98
22.05
22.45
22.54
21.70
19.59
16.34
12.40
8.31
4.40
0.68
-3.16
-7.41
-12.25
-17.47
-22.67
-27.39
-31.33
-34.53
-37.29
-40.18
-43.82
-48.77
-55.28
-63.11
-71.34
-78.39
-82.36
-81.49
-74.79
-62.46
-45.89
-27.25
-8.82
7.54
20.77
30.59
37.31
41.43
43.51
44.05
43.50
42.24
40.58
38.76
36.87
34.96
33.08
31.32
29.86
28.90
28.55
28.73
29.16
29.37
28.92
27.52
25.11
21.86
18.05
13.97
9.78
5.54
1.21
-3.30
-8.07
-13.11
-18.37
-23.69
-28.82
-33.55
-37.79
-41.72
-45.79
-50.58
-56.56
-63.72
-71.33
-77.98
-81.79
-81.08
-74.88
-63.39
-47.92
-30.57
-13.58
1.17
12.55
20.18
24.27
25.41
24.39
22.04
19.11
16.13
13.28
10.36
6.96
2.72
-2.40
-7.95
-13.17
-17.30
-20.09
-21.95
-23.90
-27.08
-32.07
-38.38
-44.35
-47.76
-46.48
-39.39
-26.61
-9.59
9.34
27.47
42.32
52.22
56.87
57.58
56.97
57.95
62.42
70.11
78.44
83.47
81.70
71.97
56.38
39.86
28.61
27.88
40.21
64.62
97.03
131.81
163.46
188.16
204.28
212.21
213.42
209.61
202.20
192.29
180.80
168.61
156.54
144.98
133.81
122.58
110.75
98.14
84.99
71.73
58.73
45.93
32.89
19.14
4.49
-10.63
-25.22
-38.01
-47.89
-54.32
-57.41
-57.83
-56.40
-53.80
-50.45
-46.42
-41.75
-36.52
-31.00
-25.62
-20.84
-17.05
-14.52
-13.32
-13.27
-13.98
-14.84
-15.24
-14.75
-13.30
-11.25
-9.23
-7.88
-7.51
-8.02
-8.95
-9.75
-10.04
-9.78
-9.23
-8.71
-8.49
-8.55
-8.71
-8.80
-8.85
-9.26
-10.90
-15.14
-23.67
-38.20
-59.98
-89.34
-125.36
-165.77
-207.38
-246.63
-280.23
-305.66
-321.42
-327.11
-323.34
-311.41
-293.04
-269.88
-243.36
-214.56
-184.47
-154.09
-124.48
-96.69
-71.52
-49.51
-31.08
-16.88
-8.02
-5.90
-11.45
-24.21
-41.62
-59.45
-72.88
-78.42
-75.27
-65.70
-54.05
-44.96
-41.66
-45.29
-55.32
-70.63
-90.32
-113.75
-139.74
-165.85
-188.24
-202.65
-205.87
-197.03
-177.82
-151.83
-123.18
-95.17
-69.67
-47.23
-27.63
-10.47
4.52
17.56
29.13
40.04
51.24
63.27
75.72
87.03
94.83
96.75
91.35
78.73
60.44
38.98
16.90
-3.92
-22.51
-38.68
-52.52
-64.05
-73.00
-78.81
-80.77
-78.12
-70.22
-56.80
-38.23
-15.58
9.37
34.54
58.11
79.01
97.06
112.62
126.21
137.99
147.73
155.07
159.85
162.36
163.29
163.30
162.77
161.55
158.97
154.18
146.45
135.47
121.52
105.50
88.72
72.70
58.77
47.80
39.99
34.84
31.37
28.42
24.94
20.14
13.60
5.20
-4.91
-16.28
-28.19
-39.59
-49.30
-56.26
-59.79
-59.84
-57.04
-52.53
-47.66
-43.60
-40.97
-39.68
-38.90
-37.32
-33.45
-26.09
-14.62
0.75
19.10
39.06
59.16
78.15
95.22
110.06
122.68
133.24
141.94
148.83
153.91
157.12
158.44
157.84
155.34
150.98
144.87
137.33
128.97
120.65
113.37
107.98
104.85
103.73
103.83
104.13
103.70
102.00
98.92
94.67
89.58
83.95
77.96
71.67
65.01
57.84
50.04
41.54
32.46
23.03
13.55
4.15
-5.25
-14.97
-25.34
-36.53
-48.47
-61.05
-74.28
-88.46
-103.92
-120.62
-137.70
-153.41
-165.40
-171.36
-169.65
-159.57
-141.34
-115.64
-83.37
-45.43
-3.00
42.23
88.04
131.93
171.54
204.88
230.35
246.58
252.51
247.65
232.48
208.82
179.54
147.97
117.04
88.69
63.72
42.23
24.04
9.05
-2.92
-12.31
-20.00
-27.16
-34.74
-43.13
-51.83
-59.62
-64.96
-66.54
-63.84
-57.43
-48.80
-39.99
-32.96
-29.07
-28.82
-32.00
-37.86
-45.62
-54.63
-64.52
-75.08
-86.04
-96.90
-106.69
-114.01
-117.24
-115.00
-106.56
-92.14
-72.84
-50.37
-26.55
-2.93
19.39
39.76
57.80
73.14
85.23
93.18
95.99
93.00
84.38
71.56
57.01
43.63
33.71
28.14
26.22
26.17
26.11
24.90
22.42
19.34
16.39
13.91
11.73
9.44
6.77
3.83
0.96
-1.64
-4.11
-6.98
-10.87
-16.09
-22.46
-29.37
-35.96
-41.55
-45.77
-48.62
-50.37
-51.39
-51.93
-52.11
-51.85
-50.98
-49.34
-47.00
-44.24
-41.52
-39.38
-38.13
-37.77
-37.90
-37.85
-36.88
-34.47
-30.50
-25.35
-19.88
-15.17
-12.24
-11.81
-13.99
-18.34
-23.83
-29.13
-32.83
-33.79
-31.37
-25.66
-17.54
-8.48
-0.26
5.47
7.70
6.43
2.83
-1.02
-2.83
-1.04
4.49
12.34
20.23
26.08
29.07
29.84
30.07
31.38
34.42
38.64
42.77
45.62
46.72
46.33
44.99
42.97
40.16
36.33
31.55
26.55
22.58
20.97
22.56
27.36
34.56
42.78
50.57
56.74
60.65
62.24
61.92
60.30
57.91
54.95
51.32
46.82
41.43
35.49
29.64
24.50
20.34
16.92
13.63
9.85
5.29
0.12
-5.17
-10.10
-14.49
-18.46
-22.34
-26.29
-30.08
-33.08
-34.38
-33.08
-28.60
-20.91
-10.57
1.33
13.39
24.07
32.03
36.38
36.85
33.84
28.29
21.45
14.63
9.00
5.47
4.57
6.37
10.47
15.98
21.78
26.73
30.01
31.38
31.09
29.81
28.25
26.96
26.20
25.96
26.09
26.37
26.59
26.45
25.67
23.90
20.86
16.48
11.02
5.03
-0.84
-6.04
-10.39
-14.11
-17.74
-21.81
-26.69
-32.39
-38.62
-44.99
-51.08
-56.64
-61.62
-66.09
-70.31
-74.67
-79.66
-85.70
-92.96
-101.06
-109.02
-115.32
-118.31
-116.74
-110.16
-99.07
-84.71
-68.65
-52.31
-36.69
-22.46
-10.10
-0.11
6.92
10.43
10.23
6.66
0.68
-6.39
-13.22
-18.89
-23.16
-26.44
-29.58
-33.38
-38.14
-43.38
-47.91
-50.31
-49.54
-45.49
-39.14
-32.27
-26.80
-24.10
-24.49
-27.31
-31.35
-35.55
-39.46
-43.30
-47.63
-52.79
-58.43
-63.50
-66.57
-66.34
-62.07
-53.65
-41.58
-26.67
-9.87
7.70
24.80
40.15
52.58
61.46
66.85
69.55
70.90
72.33
74.87
78.82
83.54
87.78
90.01
89.06
84.51
76.86
67.23
56.84
46.52
36.54
26.70
16.73
6.56
-3.61
-13.46
-22.78
-31.67
-40.37
-49.06
-57.59
-65.58
-72.63
-78.68
-84.17
-89.82
-96.18
-103.06
-109.37
-113.36
-113.31
-108.28
-98.51
-85.36
-70.77
-56.52
-43.72
-32.64
-22.97
-14.15
-5.75
2.41
10.32
17.86
24.94
31.45
37.30
42.30
46.22
48.82
49.98
49.75
48.37
46.20
43.62
40.91
38.19
35.39
32.37
29.01
25.26
21.20
16.95
12.57
8.03
3.18
-2.11
-7.99
-14.52
-21.75
-29.60
-37.78
-45.64
-52.12
-55.95
-55.94
-51.48
-42.78
-30.90
-17.44
-3.97
8.33
18.93
27.84
35.41
42.01
47.89
53.17
57.80
61.71
64.80
66.96
68.09
68.16
67.26
65.60
63.50
61.31
59.26
57.39
55.60
53.68
51.43
48.69
45.34
41.28
36.41
30.65
24.05
16.76
9.10
1.40
-6.08
-13.19
-19.89
-26.25
-32.40
-38.61
-45.25
-52.65
-60.95
-69.81
-78.32
-85.05
-88.54
-87.70
-82.17
-72.48
-59.77
-45.42
-30.62
-16.21
-2.58
10.14
21.90
32.63
42.23
50.58
57.62
63.43
68.10
71.74
74.41
76.09
76.76
76.47
75.42
73.93
72.40
71.14
70.28
69.66
68.96
67.82
66.01
63.55
60.64
57.53
54.36
51.06
47.39
43.09
38.06
32.38
26.34
20.27
14.42
8.86
3.53
-1.73
-7.08
-12.60
-18.37
-24.41
-30.73
-37.29
-43.96
-50.54
-56.80
-62.64
-68.14
-73.68
-79.76
-86.79
-94.81
-103.22
-110.77
-115.87
-116.99
-113.19
-104.40
-91.47
-75.78
-58.88
-42.03
-25.98
-11.05
2.75
15.47
27.18
37.86
47.53
56.14
63.60
69.78
74.52
77.72
79.46
80.00
79.74
79.14
78.56
78.15
77.87
77.54
76.94
75.89
74.32
72.24
69.73
66.92
63.91
60.78
57.57
54.28
50.88
47.33
43.65
39.90
36.17
32.59
29.20
25.95
22.68
19.18
15.34
11.18
6.81
2.35
-2.13
-6.70
-11.49
-16.64
-22.18
-28.05
-34.09
-40.12
-46.02
-51.73
-57.30
-62.91
-68.88
-75.55
-83.12
-91.40
-99.63
-106.59
-110.80
-110.99
-106.52
-97.57
-85.10
-70.54
-55.33
-40.66
-27.20
-15.20
-4.61
4.77
13.21
20.86
27.79
33.96
39.26
43.57
46.85
49.17
50.74
51.86
52.80
53.78
54.87
56.06
57.30
58.43
59.31
59.73
59.51
58.50
56.65
54.08
51.09
48.02
45.14
42.61
40.38
38.25
35.97
33.37
30.36
27.01
23.44
19.83
16.27
12.84
9.44
5.97
2.30
-1.62
-5.76
-10.04
-14.36
-18.68
-23.01
-27.41
-31.92
-36.63
-41.67
-47.12
-52.96
-58.89
-64.21
-67.88
-68.85
-66.39
-60.46
-51.72
-41.34
-30.57
-20.38
-11.20
-3.07
4.13
10.49
15.95
20.35
23.65
25.95
27.48
28.53
29.33
29.97
30.50
30.92
31.28
31.60
31.88
32.05
32.03
31.78
31.39
30.98
30.66
30.39
29.94
29.02
27.43
25.10
22.20
18.92
15.42
11.66
7.54
2.97
-1.96
-7.02
-11.92
-16.54
-20.91
-25.24
-29.66
-34.14
-38.42
-42.22
-45.40
-48.11
-50.77
-53.90
-57.92
-62.91
-68.55
-74.19
-78.91
-81.76
-81.92
-78.86
-72.53
-63.34
-52.10
-39.89
-27.76
-16.52
-6.64
1.77
8.87
14.86
19.92
24.10
27.41
29.88
31.61
32.81
33.66
34.30
34.76
35.02
35.06
34.92
34.67
34.37
34.00
33.47
32.66
31.51
30.00
28.15
25.94
23.36
20.40
17.12
13.69
10.29
7.02
3.83
0.55
-3.03
-6.96
-11.12
-15.23
-19.00
-22.27
-25.06
-27.58
-30.13
-33.06
-36.67
-41.20
-46.68
-52.82
-58.94
-64.02
-66.95
-66.82
-63.24
-56.45
-47.21
-36.65
-25.90
-15.91
-7.29
-0.29
5.14
9.27
12.43
14.86
16.69
17.99
18.83
19.32
19.71
20.21
20.91
21.77
22.57
23.08
23.20
22.96
22.55
22.12
21.70
21.18
20.38
19.14
17.46
15.41
13.09
10.54
7.72
4.57
1.12
-2.45
-5.91
-9.07
-11.90
-14.55
-17.21
-20.00
-22.90
-25.79
-28.49
-31.00
-33.43
-36.07
-39.30
-43.37
-48.30
-53.79
-59.15
-63.41
-65.49
-64.52
-60.06
-52.29
-41.92
-30.03
-17.77
-6.12
4.28
13.15
20.53
26.67
31.90
36.53
40.78
44.70
48.23
51.20
53.49
55.06
56.02
56.59
57.01
57.42
57.88
58.31
58.60
58.68
58.54
58.21
57.76
57.20
56.44
55.31
53.49
50.69
46.69
41.43
35.02
27.70
19.78
11.52
3.14
-5.24
-13.58
-21.91
-30.29
-38.82
-47.51
-56.31
-65.01
-73.38
-81.26
-88.63
-95.58
-102.18
-108.17
-112.91
-115.43
-114.73
-110.26
-102.09
-91.02
-78.24
-65.00
-52.20
-40.36
-29.64
-20.10
-11.76
-4.63
1.30
6.18
10.21
13.56
16.30
18.34
19.51
19.70
18.94
17.44
15.59
13.75
12.27
11.34
10.96
10.92
10.87
10.42
9.26
7.37
4.92
2.27
-0.24
-2.50
-4.63
-6.95
-9.79
-13.29
-17.30
-21.46
-25.29
-28.32
-30.27
-31.00
-30.70
-29.86
-29.19
-29.39
-30.80
-33.10
-35.13
-35.27
-31.89
-24.06
-11.87
3.55
20.51
37.27
52.58
65.80
76.78
85.65
92.60
97.76
101.29
103.33
104.07
103.68
102.30
100.13
97.40
94.40
91.42
88.64
86.11
83.70
81.22
78.48
75.35
71.80
67.78
63.24
58.15
52.54
46.53
40.29
33.88
27.18
19.95
11.96
3.25
-5.77
-14.42
-22.08
-28.57
-34.29
-40.15
-47.15
-55.89
-66.29
-77.48
-88.06
-96.42
-101.05
-100.86
-95.40
-84.91
-70.37
-53.42
-36.06
-20.24
-7.44
1.75
7.68
11.45
14.45
17.77
21.90
26.58
31.04
34.40
36.04
35.82
34.11
31.67
29.40
28.14
28.44
30.44
33.73
37.40
40.17
40.75
38.22
32.46
24.32
15.45
7.67
2.25
-0.82
-3.04
-6.88
-14.79
-28.11
-46.30
-67.12
-87.45
-104.36
-116.14
-122.58
-124.65
-123.79
-121.15
-117.19
-111.65
-103.86
-93.14
-79.15
-62.01
-42.27
-20.71
1.79
24.40
46.25
66.48
84.15
98.37
108.41
113.90
114.85
111.66
104.96
95.48
83.93
70.95
57.18
43.24
29.80
17.46
6.76
-1.94
-8.56
-13.27
-16.50
-18.86
-20.94
-23.14
-25.64
-28.44
-31.46
-34.71
-38.20
-41.96
-45.92
-49.85
-53.43
-56.48
-59.04
-61.38
-63.95
-67.19
-71.29
-76.17
-81.35
-85.98
-88.97
-89.15
-85.60
-77.99
-66.74
-53.00
-38.34
-24.27
-11.89
-1.65
6.55
13.07
18.24
22.18
24.77
25.86
25.46
23.78
21.33
18.62
16.08
13.81
11.72
9.59
7.26
4.80
2.45
0.52
-0.86
-1.83
-2.83
-4.42
-7.03
-10.83
-15.63
-20.99
-26.40
-31.56
-36.37
-41.00
-45.71
-50.77
-56.35
-62.63
-69.75
-77.76
-86.37
-94.77
-101.56
-105.01
-103.60
-96.61
-84.42
-68.51
-50.91
-33.58
-17.83
-4.16
7.59
17.84
26.95
35.07
42.12
47.98
52.57
55.85
57.87
58.67
58.32
57.01
55.00
52.72
50.62
49.03
48.06
47.53
47.01
46.06
44.34
41.81
38.64
35.17
31.63
28.05
24.26
20.00
15.05
9.44
3.46
-2.44
-7.78
-12.28
-15.95
-19.19
-22.67
-27.12
-32.99
-40.16
-47.72
-54.12
-57.49
-56.21
-49.47
-37.46
-21.28
-2.57
17.11
36.60
55.29
72.99
89.63
105.07
119.08
131.43
142.09
151.28
159.37
166.76
173.74
180.43
186.69
192.09
195.86
196.89
193.98
186.28
173.70
157.16
138.40
119.36
101.61
85.83
71.89
59.19
47.17
35.65
24.76
14.75
5.63
-2.88
-11.25
-19.97
-29.24
-38.94
-48.65
-57.90
-66.33
-73.94
-81.01
-88.03
-95.34
-102.86
-109.93
-115.50
-118.37
-117.69
-113.15
-105.05
-94.12
-81.23
-67.22
-52.78
-38.57
-25.18
-13.20
-3.06
5.07
11.26
15.77
18.99
21.23
22.75
23.74
24.33
24.57
24.45
23.87
22.69
20.80
18.13
14.67
10.46
5.59
0.20
-5.58
-11.54
-17.57
-23.57
-29.57
-35.64
-41.82
-48.06
-54.21
-60.02
-65.29
-69.90
-73.95
-77.76
-81.82
-86.65
-92.64
-99.82
-107.82
-115.75
-122.35
-126.19
-125.95
-120.69
-110.19
-94.99
-76.35
-55.96
-35.55
-16.53
0.27
14.56
26.44
36.10
43.74
49.48
53.43
55.81
56.93
57.12
56.65
55.65
54.26
52.61
50.93
49.48
48.44
47.84
47.50
47.12
46.35
44.91
42.68
39.65
35.92
31.64
26.93
21.92
16.63
11.06
5.14
-1.19
-7.88
-14.76
-21.52
-27.85
-33.55
-38.71
-43.72
-49.17
-55.57
-63.10
-71.27
-78.98
-84.65
-86.64
-83.75
-75.60
-62.80
-46.79
-29.42
-12.49
2.61
15.16
25.06
32.60
38.30
42.62
45.94
48.44
50.20
51.21
51.45
50.89
49.55
47.48
44.87
41.99
39.21
36.89
35.24
34.21
33.47
32.51
30.82
28.10
24.41
20.12
15.74
11.70
8.13
4.78
1.23
-2.97
-8.01
-13.74
-19.71
-25.40
-30.40
-34.59
-38.18
-41.66
-45.68
-50.89
-57.63
-65.67
-74.05
-81.09
-84.77
-83.38
-76.16
-63.57
-47.21
-29.24
-11.69
4.01
17.22
27.96
36.54
43.36
48.67
52.66
55.44
57.13
57.86
57.79
57.08
55.86
54.27
52.40
50.35
48.26
46.24
44.40
42.78
41.30
39.74
37.80
35.18
31.65
27.18
21.94
16.30
10.66
5.36
0.57
-3.79
-7.96
-12.26
-16.91
-21.92
-27.10
-32.10
-36.63
-40.50
-43.82
-46.88
-50.18
-54.25
-59.51
-66.14
-73.88
-81.99
-89.14
-93.68
-93.94
-88.78
-78.00
-62.48
-43.98
-24.65
-6.42
9.42
22.33
32.42
40.07
45.70
49.65
52.20
53.63
54.27
54.40
54.13
53.42
52.07
49.97
47.19
44.05
41.01
38.49
36.70
35.58
34.87
34.14
32.99
30.98
27.81
23.40
17.95
11.99
6.22
1.23
-2.76
-6.03
-9.22
-13.02
-17.77
-23.30
-29.01
-34.17
-38.28
-41.33
-43.78
-46.37
-49.85
-54.71
-61.04
-68.36
-75.67
-81.54
-84.33
-82.59
-75.47
-63.04
-46.42
-27.48
-8.39
9.02
23.60
34.98
43.39
49.36
53.40
55.88
57.04
57.04
56.03
54.24
51.90
49.25
46.45
43.61
40.81
38.13
35.62
33.33
31.25
29.24
27.05
24.41
21.15
17.25
12.89
8.31
3.68
-1.01
-5.86
-11.05
-16.65
-22.56
-28.51
-34.19
-39.37
-44.04
-48.41
-52.94
-58.20
-64.68
-72.47
-81.05
-89.14
-94.90
-96.45
-92.46
-82.67
-67.94
-50.04
-31.05
-12.80
3.47
17.23
28.43
37.30
44.17
49.36
53.15
55.80
57.53
58.49
58.76
58.36
57.30
55.60
53.42
50.94
48.46
46.20
44.33
42.82
41.42
39.78
37.51
34.33
30.22
25.40
20.27
15.25
10.62
6.37
2.20
-2.30
-7.50
-13.45
-19.92
-26.44
-32.55
-37.99
-42.80
-47.32
-52.08
-57.57
-64.10
-71.61
-79.57
-86.94
-92.26
-93.98
-90.87
-82.42
-69.07
-52.14
-33.43
-14.77
2.38
17.13
29.19
38.60
45.62
50.55
53.68
55.34
55.89
55.69
55.04
54.07
52.78
51.06
48.83
46.18
43.40
40.92
39.07
37.92
37.24
36.50
35.14
32.74
29.21
24.77
19.89
15.01
10.40
6.07
1.79
-2.78
-7.96
-13.86
-20.31
-26.94
-33.29
-38.96
-43.82
-48.11
-52.33
-57.16
-63.14
-70.43
-78.52
-86.28
-92.05
-94.00
-90.72
-81.60
-67.13
-48.79
-28.69
-9.01
8.53
22.94
33.99
42.01
47.54
51.11
53.07
53.62
52.90
51.09
48.48
45.43
42.29
39.36
36.79
34.63
32.85
31.35
30.03
28.71
27.18
25.21
22.65
19.47
15.70
11.43
6.69
1.46
-4.27
-10.44
-16.86
-23.28
-29.51
-35.50
-41.35
-47.29
-53.56
-60.38
-67.93
-76.26
-85.06
-93.53
-100.24
-103.34
-101.11
-92.58
-78.03
-59.05
-38.04
-17.47
0.84
16.05
28.25
37.98
45.87
52.29
57.43
61.37
64.21
66.13
67.24
67.53
66.92
65.32
62.80
59.70
56.51
53.72
51.53
49.80
48.07
45.77
42.52
38.26
33.33
28.16
23.14
18.34
13.51
8.25
2.22
-4.66
-12.18
-19.92
-27.42
-34.34
-40.57
-46.26
-51.73
-57.52
-64.22
-72.28
-81.69
-91.66
-100.58
-106.31
-106.74
-100.53
-87.62
-69.32
-47.87
-25.80
-5.21
12.62
27.23
38.81
47.81
54.70
59.85
63.49
65.79
66.91
67.03
66.37
65.09
63.33
61.17
58.74
56.19
53.77
51.73
50.24
49.26
48.46
47.30
45.19
41.78
37.09
31.54
25.78
20.41
15.73
11.59
7.56
3.08
-2.24
-8.42
-15.17
-21.94
-28.17
-33.52
-38.00
-42.04
-46.35
-51.68
-58.62
-67.27
-77.09
-86.91
-95.03
-99.60
-99.01
-92.36
-79.76
-62.36
-42.12
-21.36
-2.11
14.21
27.06
36.60
43.41
48.17
51.44
53.52
54.60
54.76
54.10
52.76
50.93
48.85
46.78
44.90
43.33
42.08
41.01
39.93
38.63
36.95
34.74
31.91
28.39
24.17
19.26
13.75
7.81
1.61
-4.74
-11.13
-17.51
-23.84
-30.09
-36.23
-42.28
-48.43
-54.97
-62.30
-70.68
-79.96
-89.37
-97.41
-102.15
-101.78
-95.23
-82.58
-65.11
-44.89
-24.16
-4.76
12.21
26.35
37.72
46.63
53.39
58.26
61.48
63.27
63.85
63.45
62.25
60.45
58.19
55.66
53.03
50.54
48.39
46.66
45.27
43.94
42.21
39.67
36.08
31.49
26.25
20.85
15.71
11.03
6.66
2.27
-2.56
-8.09
-14.32
-20.93
-27.44
-33.41
-38.68
-43.49
-48.46
-54.42
-62.03
-71.48
-82.14
-92.53
-100.55
-103.96
-101.15
-91.56
-76.00
-56.37
-35.11
-14.47
3.95
19.41
31.85
41.60
49.10
54.80
59.06
62.25
64.65
66.43
67.57
67.93
67.38
65.89
63.65
61.02
58.42
56.20
54.53
53.35
52.39
51.18
49.22
46.12
41.75
36.31
30.28
24.21
18.53
13.32
8.33
3.15
-2.56
-8.86
-15.52
-22.13
-28.29
-33.79
-38.72
-43.44
-48.52
-54.55
-61.94
-70.62
-79.91
-88.41
-94.27
-95.64
-91.22
-80.75
-65.06
-45.97
-25.64
-6.19
10.90
24.87
35.65
43.64
49.33
53.10
55.18
55.66
54.69
52.60
49.82
46.90
44.22
41.97
40.16
38.65
37.32
36.10
34.94
33.73
32.25
30.20
27.31
23.49
18.86
13.68
8.21
2.62
-3.09
-9.02
-15.21
-21.58
-27.88
-33.84
-39.35
-44.53
-49.80
-55.74
-62.86
-71.36
-80.78
-89.91
-96.92
-99.71
-96.66
-87.15
-71.87
-52.69
-31.98
-12.00
5.77
20.67
32.76
42.40
49.95
55.60
59.48
61.66
62.35
61.80
60.30
58.14
55.56
52.81
50.10
47.64
45.53
43.77
42.15
40.36
38.04
34.93
30.97
26.36
21.42
16.48
11.70
6.96
1.98
-3.61
-9.99
-17.06
-24.44
-31.59
-38.07
-43.67
-48.57
-53.28
-58.48
-64.86
-72.84
-82.33
-92.51
-101.76
-107.92
-108.81
-102.94
-90.08
-71.50
-49.57
-27.03
-6.18
11.63
26.06
37.42
46.29
53.17
58.40
62.23
64.95
66.83
68.10
68.84
69.00
68.47
67.21
65.32
63.05
60.76
58.72
57.14
55.96
54.93
53.62
51.54
48.34
43.88
38.38
32.30
26.21
20.58
15.52
10.85
6.12
0.86
-5.16
-11.84
-18.81
-25.58
-31.75
-37.22
-42.17
-47.07
-52.50
-59.03
-67.02
-76.43
-86.57
-96.07
-102.92
-105.05
-100.91
-90.03
-73.29
-52.71
-30.82
-9.94
8.36
23.40
35.19
44.18
50.81
55.44
58.31
59.64
59.73
58.92
57.51
55.75
53.77
51.63
49.38
47.09
44.88
42.83
40.98
39.26
37.51
35.52
33.15
30.28
26.85
22.87
18.33
13.28
7.72
1.69
-4.74
-11.49
-18.33
-25.03
-31.32
-37.07
-42.34
-47.51
-53.15
-59.86
-67.91
-76.93
-85.81
-92.75
-95.74
-93.13
-84.18
-69.40
-50.36
-29.34
-8.59
10.14
25.88
38.34
47.69
54.24
58.28
60.05
59.83
58.08
55.38
52.35
49.50
47.09
45.15
43.51
41.97
40.36
38.59
36.62
34.42
31.94
29.14
26.01
22.50
18.53
13.88
8.35
1.80
-5.66
-13.61
-21.51
-28.86
-35.40
-41.26
-46.82
-52.71
-59.49
-67.63
-77.21
-87.78
-98.19
-106.65
-111.01
-109.45
-101.05
-86.25
-66.75
-45.05
-23.63
-4.34
11.88
24.94
35.17
43.05
48.95
53.13
55.81
57.21
57.56
57.03
55.70
53.60
50.74
47.22
43.25
39.09
35.03
31.24
27.66
24.11
20.29
15.84
10.55
4.37
-2.59
-10.04
-17.63
-25.10
-32.37
-39.59
-47.10
-55.20
-64.09
-73.67
-83.62
-93.62
-103.59
-113.78
-124.60
-136.28
-148.31
-159.27
-166.88
-168.56
-162.08
-146.27
-121.25
-88.36
-49.99
-9.33
29.81
63.19
86.96
98.53
97.69
86.85
70.44
53.43
39.59
30.52
25.63
23.27
21.94
21.13
21.27
23.06
26.70
31.54
36.41
40.25
42.59
43.75
44.63
46.22
49.19
53.54
58.66
63.52
66.96
68.12
66.64
62.67
56.80
49.70
41.93
33.81
25.42
16.78
7.88
-1.26
-10.73
-20.76
-31.54
-42.92
-54.05
-63.34
-68.80
-68.70
-62.36
-50.45
-34.82
-17.87
-1.77
12.15
23.45
32.46
39.76
45.80
50.77
54.58
57.03
58.08
57.84
56.67
55.05
53.42
52.11
51.24
50.82
50.67
50.61
50.37
49.68
48.23
45.77
42.24
37.75
32.57
26.98
21.12
14.94
8.28
1.00
-6.85
-15.02
-23.10
-30.73
-37.72
-44.20
-50.59
-57.54
-65.72
-75.58
-86.99
-99.00
-109.76
-116.87
-118.08
-112.00
-98.70
-79.65
-57.26
-34.09
-12.20
7.20
23.68
37.36
48.56
57.65
64.95
70.74
75.18
78.37
80.29
80.92
80.27
78.49
75.84
72.71
69.53
66.72
64.56
63.10
62.11
61.11
59.51
56.81
52.76
47.48
41.36
34.95
28.67
22.64
16.66
10.29
3.15
-4.93
-13.72
-22.65
-31.12
-38.67
-45.20
-51.08
-57.00
-63.78
-72.13
-82.33
-93.97
-105.76
-115.63
-121.23
-120.53
-112.60
-97.90
-78.18
-55.88
-33.36
-12.31
6.36
22.37
35.78
46.74
55.41
62.03
66.94
70.53
73.10
74.91
76.03
76.54
76.47
75.93
75.02
73.84
72.55
71.28
70.18
69.27
68.41
67.22
65.26
62.15
57.77
52.32
46.23
40.07
34.23
28.92
23.99
19.08
13.71
7.50
0.40
-7.38
-15.31
-22.86
-29.61
-35.50
-40.79
-46.02
-51.87
-58.98
-67.70
-77.85
-88.46
-97.74
-103.48
-103.61
-96.93
-83.65
-65.29
-44.27
-23.07
-3.63
12.99
26.50
37.09
45.15
51.06
55.16
57.79
59.28
59.93
59.92
59.34
58.19
56.43
54.10
51.39
48.58
46.04
44.00
42.51
41.34
40.04
38.13
35.26
31.36
26.62
21.45
16.19
11.06
5.99
0.73
-5.05
-11.49
-18.47
-25.60
-32.35
-38.31
-43.38
-47.86
-52.34
-57.55
-64.10
-72.25
-81.76
-91.68
-100.39
-105.80
-105.92
-99.49
-86.48
-68.20
-46.94
-25.28
-5.33
11.64
25.28
35.87
43.95
50.02
54.48
57.58
59.50
60.36
60.23
59.20
57.42
55.14
52.68
50.34
48.34
46.81
45.74
44.97
44.22
43.11
41.23
38.26
34.05
28.78
22.88
16.83
11.01
5.49
0.06
-5.61
-11.76
-18.34
-25.04
-31.42
-37.12
-42.13
-46.80
-51.84
-58.02
-65.99
-75.84
-86.93
-97.80
-106.32
-110.26
-107.87
-98.57
-83.16
-63.60
-42.34
-21.64
-3.01
12.91
26.13
36.92
45.55
52.23
57.14
60.55
62.75
64.05
64.61
64.43
63.47
61.78
59.49
56.93
54.45
52.36
50.78
49.64
48.65
47.39
45.43
42.46
38.40
33.45
28.07
22.75
17.82
13.27
8.74
3.66
-2.40
-9.53
-17.34
-25.15
-32.31
-38.45
-43.70
-48.49
-53.52
-59.37
-66.48
-74.92
-84.28
-93.56
-101.12
-104.95
-103.21
-94.90
-80.31
-61.13
-39.89
-19.21
-1.01
13.84
25.38
34.20
40.94
46.03
49.65
51.86
52.80
52.66
51.72
50.21
48.29
46.04
43.55
40.99
38.59
36.64
35.26
34.37
33.60
32.45
30.45
27.42
23.48
19.02
14.39
9.75
5.00
-0.09
-5.68
-11.69
-17.82
-23.71
-29.21
-34.44
-39.81
-45.83
-52.96
-61.40
-70.91
-80.71
-89.42
-95.19
-96.19
-91.11
-79.74
-63.16
-43.49
-23.22
-4.52
11.30
23.86
33.46
40.69
46.10
50.00
52.54
53.78
53.80
52.78
51.00
48.79
46.49
44.30
42.30
40.46
38.68
36.92
35.17
33.42
31.58
29.42
26.62
22.97
18.39
13.02
7.09
0.83
-5.66
-12.35
-19.22
-26.22
-33.13
-39.76
-45.97
-51.82
-57.62
-63.89
-71.17
-79.82
-89.57
-99.35
-107.27
-111.10
-108.89
-99.77
-84.29
-64.27
-42.26
-20.72
-1.42
14.75
27.69
37.70
45.22
50.72
54.61
57.31
59.17
60.38
60.94
60.70
59.57
57.62
55.16
52.61
50.37
48.67
47.41
46.32
45.01
43.16
40.61
37.33
33.39
28.89
23.92
18.55
12.82
6.79
0.51
-5.97
-12.60
-19.28
-25.95
-32.55
-39.10
-45.76
-52.83
-60.74
-69.85
-80.03
-90.46
-99.51
-105.01
-104.91
-98.00
-84.45
-65.77
-44.40
-22.91
-3.28
13.44
27.03
37.81
46.19
52.52
57.05
60.03
61.81
62.79
63.24
63.29
62.80
61.60
59.57
56.84
53.74
50.74
48.18
46.15
44.45
42.67
40.38
37.32
33.49
29.09
24.39
19.57
14.64
9.44
3.78
-2.43
-9.03
-15.70
-22.00
-27.64
-32.58
-37.09
-41.70
-47.02
-53.61
-61.76
-71.35
-81.59
-91.05
-97.72
-99.58
-95.14
-84.09
-67.41
-47.23
-26.11
-6.39
10.39
23.61
33.43
40.40
45.12
48.13
49.80
50.45
50.34
49.65
48.48
46.91
44.99
42.79
40.41
38.01
35.72
33.60
31.60
29.60
27.41
24.81
21.66
17.85
13.31
8.03
2.08
-4.40
-11.17
-17.91
-24.34
-30.26
-35.68
-40.76
-45.85
-51.37
-57.76
-65.41
-74.44
-84.51
-94.60
-103.00
-107.67
-106.78
-99.36
-85.69
-67.24
-46.26
-25.05
-5.49
11.39
25.24
36.23
44.77
51.32
56.28
59.99
62.68
64.48
65.43
65.52
64.78
63.30
61.29
59.01
56.76
54.73
52.97
51.39
49.75
47.71
44.99
41.35
36.81
31.49
25.68
19.63
13.48
7.13
0.42
-6.80
-14.47
-22.31
-29.90
-36.93
-43.30
-49.25
-55.28
-61.99
-69.91
-79.24
-89.58
-99.76
-107.94
-111.93
-109.84
-100.75
-85.10
-64.64
-41.89
-19.34
1.14
18.63
32.98
44.51
53.61
60.58
65.72
69.27
71.56
72.93
73.58
73.58
72.88
71.35
68.96
65.91
62.58
59.48
57.07
55.55
54.81
54.35
53.52
51.73
48.62
44.21
38.88
33.18
27.62
22.45
17.58
12.64
7.19
0.93
-6.17
-13.73
-21.22
-28.11
-34.11
-39.28
-44.06
-49.06
-54.99
-62.45
-71.61
-82.04
-92.49
-101.04
-105.46
-103.93
-95.63
-81.08
-62.03
-40.86
-19.97
-1.16
14.59
27.05
36.50
43.41
48.27
51.43
53.11
53.44
52.51
50.52
47.83
44.91
42.18
39.93
38.22
36.96
36.01
35.24
34.52
33.65
32.35
30.34
27.46
23.69
19.20
14.17
8.71
2.75
-3.81
-10.99
-18.58
-26.20
-33.40
-39.84
-45.45
-50.53
-55.66
-61.57
-68.93
-77.96
-88.12
-98.00
-105.44
-108.12
-104.33
-93.57
-76.79
-56.11
-34.12
-13.13
5.30
20.54
32.71
42.23
49.62
55.28
59.51
62.57
64.65
65.88
66.28
65.81
64.48
62.37
59.75
56.97
54.49
52.58
51.26
50.24
49.02
47.09
44.10
40.02
35.04
29.52
23.80
18.03
12.20
6.08
-0.54
-7.80
-15.56
-23.50
-31.14
-38.10
-44.29
-49.94
-55.68
-62.30
-70.48
-80.58
-92.19
-104.07
-114.16
-120.03
-119.56
-111.65
-96.70
-76.47
-53.60
-30.75
-9.91
7.95
22.71
34.73
44.52
52.43
58.74
63.65
67.38
70.11
71.93
72.82
72.73
71.70
69.89
67.63
65.30
63.23
61.56
60.28
59.23
58.16
56.79
54.82
52.03
48.23
43.39
37.69
31.43
25.04
18.86
13.04
7.48
1.86
-4.16
-10.80
-17.99
-25.40
-32.55
-39.04
-44.72
-49.79
-54.69
-60.03
-66.37
-74.16
-83.52
-94.05
-104.61
-113.30
-117.79
-115.98
-106.75
-90.49
-69.09
-45.37
-22.17
-1.60
15.35
28.67
38.92
46.74
52.63
56.89
59.75
61.46
62.27
62.40
61.98
61.04
59.57
57.64
55.40
53.16
51.22
49.78
48.86
48.20
47.35
45.80
43.13
39.18
34.15
28.48
22.75
17.42
12.70
8.38
4.05
-0.82
-6.57
-13.14
-20.17
-27.06
-33.21
-38.33
-42.48
-46.13
-50.06
-55.12
-61.92
-70.61
-80.56
-90.35
-97.95
-101.18
-98.31
-88.69
-72.91
-52.74
-30.62
-9.03
10.10
25.67
37.45
45.83
51.44
54.95
56.82
57.34
56.73
55.23
53.16
50.86
48.61
46.54
44.72
43.11
41.75
40.66
39.87
39.25
38.44
36.96
34.33
30.30
24.98
18.85
12.54
6.58
1.18
-3.87
-9.01
-14.71
-21.14
-28.08
-35.04
-41.41
-46.82
-51.29
-55.24
-59.41
-64.66
-71.66
-80.60
-90.88
-101.06
-108.97
-112.29
-109.19
-98.98
-82.41
-61.42
-38.52
-16.07
4.21
21.40
35.25
45.82
53.41
58.45
61.50
63.21
64.14
64.65
64.78
64.38
63.23
61.29
58.72
55.90
53.29
51.26
49.94
49.20
48.65
47.72
45.89
42.80
38.41
33.00
27.03
21.00
15.19
9.55
3.82
-2.38
-9.28
-16.87
-24.78
-32.52
-39.63
-45.88
-51.38
-56.58
-62.15
-68.86
-77.18
-87.05
-97.58
-107.00
-112.99
-113.33
-106.59
-92.74
-73.19
-50.49
-27.45
-6.44
11.15
24.91
35.21
42.69
47.99
51.62
53.91
55.16
55.60
55.42
54.68
53.39
51.57
49.30
46.84
44.50
42.54
41.02
39.80
38.49
36.70
34.12
30.68
26.51
21.84
16.91
11.76
6.26
0.17
-6.70
-14.24
-22.03
-29.41
-35.76
-40.87
-45.15
-49.66
-55.69
-64.15
-74.85
-86.22
-95.36
-98.99
-94.49
-81.04
-59.94
-34.28
-7.74
16.49
36.67
52.52
64.91
75.24
84.99
95.37
106.79
118.26
127.03
129.02
120.24
98.77
66.23
27.91
-8.88
-37.42
-53.91
-58.41
-53.97
-44.82
-34.57
-25.30
-17.81
-12.37
-9.33
-9.18
-12.23
-18.17
-26.04
-34.56
-42.61
-49.73
-56.13
-62.51
-69.57
-77.68
-86.64
-95.94
-105.05
-113.78
-122.42
-131.46
-141.09
-150.66
-158.48
-162.08
-158.99
-147.70
-128.30
-102.63
-73.66
-44.55
-17.84
5.14
24.20
39.92
53.09
64.36
74.03
82.11
88.45
92.98
95.72
96.91
96.86
95.91
94.39
92.53
90.58
88.75
87.27
86.21
85.45
84.58
83.03
80.36
76.37
71.31
65.73
60.26
55.22
50.53
45.73
40.26
33.80
26.47
18.80
11.46
4.87
-1.05
-6.95
-13.80
-22.58
-33.99
-48.18
-64.67
-82.27
-99.14
-112.99
-121.51
-122.90
-116.45
-102.74
-83.60
-61.52
-39.02
-18.09
0.15
15.34
27.65
37.51
45.37
51.63
56.61
60.53
63.49
65.47
66.43
66.30
65.16
63.27
61.04
58.93
57.30
56.26
55.62
54.96
53.76
51.54
48.09
43.46
37.97
32.10
26.26
20.63
15.05
9.15
2.46
-5.30
-14.05
-23.33
-32.48
-40.88
-48.27
-54.79
-61.05
-67.83
-75.87
-85.48
-96.22
-106.86
-115.45
-119.73
-117.83
-108.80
-93.11
-72.47
-49.42
-26.54
-5.77
11.90
26.32
37.94
47.30
54.81
60.71
65.14
68.25
70.25
71.38
71.90
71.96
71.71
71.21
70.63
70.17
70.04
70.33
70.89
71.28
70.88
69.12
65.71
60.80
54.95
48.86
43.11
37.94
33.07
28.03
22.28
15.57
8.05
0.17
-7.45
-14.38
-20.44
-25.90
-31.37
-37.70
-45.72
-55.93
-68.11
-81.11
-92.84
-100.81
-102.82
-97.76
-86.04
-69.43
-50.40
-31.32
-13.83
1.36
14.22
25.04
34.09
41.56
47.58
52.35
56.06
58.90
60.95
62.23
62.75
62.55
61.76
60.51
58.98
57.32
55.73
54.42
53.52
52.98
52.51
51.58
49.61
46.21
41.37
35.45
29.12
23.04
17.60
12.79
8.20
3.24
-2.62
-9.49
-17.09
-24.77
-31.84
-37.84
-42.74
-46.97
-51.21
-56.27
-62.85
-71.38
-81.76
-93.15
-103.85
-111.55
-113.88
-109.13
-97.01
-78.76
-56.80
-33.98
-12.69
5.59
20.44
32.10
41.14
48.09
53.33
57.09
59.61
61.09
61.73
61.75
61.30
60.49
59.42
58.14
56.71
55.23
53.80
52.50
51.34
50.23
48.91
47.07
44.37
40.62
35.84
30.35
24.61
19.13
14.22
9.88
5.78
1.43
-3.60
-9.53
-16.20
-23.16
-29.82
-35.71
-40.62
-44.74
-48.55
-52.72
-57.91
-64.55
-72.66
-81.73
-90.62
-97.75
-101.26
-99.58
-91.82
-78.19
-60.02
-39.49
-19.04
-0.72
14.17
25.33
33.11
38.30
41.64
43.74
44.89
45.24
44.88
43.94
42.66
41.25
39.94
38.83
37.91
37.07
36.20
35.18
33.90
32.27
30.21
27.61
24.41
20.62
16.33
11.67
6.69
1.37
-4.36
-10.57
-17.20
-24.01
-30.65
-36.82
-42.38
-47.47
-52.50
-58.04
-64.68
-72.71
-81.94
-91.37
-99.31
-103.60
-102.32
-94.41
-80.16
-61.18
-39.96
-19.01
-0.22
15.47
27.94
37.58
44.86
50.17
53.81
56.07
57.25
57.65
57.45
56.70
55.30
53.19
50.46
47.41
44.48
42.15
40.66
39.94
39.53
38.77
37.03
33.96
29.62
24.40
18.89
13.48
8.29
3.11
-2.47
-8.74
-15.73
-23.16
-30.49
-37.18
-42.94
-47.82
-52.18
-56.68
-62.03
-68.88
-77.52
-87.61
-97.96
-106.54
-110.94
-109.06
-99.90
-84.01
-63.38
-40.81
-19.02
0.06
15.65
27.90
37.46
45.02
51.06
55.78
59.31
61.71
63.13
63.71
63.61
62.92
61.68
59.94
57.84
55.58
53.48
51.76
50.56
49.76
49.01
47.83
45.76
42.53
38.14
32.84
27.05
21.17
15.53
10.28
5.37
0.56
-4.43
-9.86
-15.82
-22.13
-28.39
-34.16
-39.13
-43.27
-46.94
-50.77
-55.47
-61.67
-69.68
-79.39
-90.00
-100.03
-107.44
-110.01
-106.10
-95.16
-78.10
-57.04
-34.72
-13.65
4.44
18.84
29.66
37.46
42.87
46.49
48.78
50.12
50.82
51.06
50.85
50.14
48.82
46.90
44.57
42.16
40.02
38.45
37.57
37.22
37.03
36.54
35.29
32.99
29.58
25.26
20.41
15.46
10.75
6.41
2.28
-2.03
-6.97
-12.83
-19.58
-26.79
-33.80
-39.97
-44.95
-48.88
-52.31
-56.11
-61.14
-67.90
-76.32
-85.44
-93.56
-98.45
-98.09
-91.24
-77.95
-59.63
-38.65
-17.57
1.50
17.28
29.45
38.32
44.53
48.70
51.38
52.93
53.60
53.55
52.93
51.88
50.50
48.86
47.00
44.94
42.79
40.70
38.82
37.18
35.61
33.76
31.20
27.66
23.15
17.97
12.54
7.20
2.07
-3.05
-8.51
-14.68
-21.64
-29.15
-36.69
-43.68
-49.75
-54.93
-59.73
-64.99
-71.59
-80.05
-90.14
-100.65
-109.48
-114.16
-112.51
-103.48
-87.54
-66.62
-43.48
-20.83
-0.69
16.00
29.19
39.34
46.98
52.63
56.71
59.62
61.76
63.35
64.45
64.88
64.39
62.81
60.27
57.16
54.04
51.54
50.02
49.53
49.76
50.07
49.72
48.06
44.76
39.85
33.81
27.31
21.06
15.47
10.53
5.81
0.71
-5.30
-12.38
-20.22
-28.24
-35.79
-42.47
-48.18
-53.24
-58.30
-64.17
-71.65
-81.18
-92.51
-104.40
-114.71
-120.78
-120.29
-112.00
-96.30
-75.08
-51.17
-27.42
-5.99
12.07
26.64
38.25
47.51
54.90
60.71
65.08
68.16
70.15
71.32
71.85
71.78
71.09
69.71
67.71
65.30
62.86
60.75
59.16
58.07
57.19
56.15
54.57
52.20
48.92
44.73
39.70
34.01
27.93
21.73
15.73
10.04
4.63
-0.74
-6.37
-12.49
-19.16
-26.26
-33.50
-40.58
-47.27
-53.43
-59.12
-64.59
-70.36
-77.14
-85.59
-95.98
-107.68
-119.00
-127.38
-130.09
-125.22
-112.35
-92.88
-69.46
-45.19
-22.63
-3.25
12.49
24.91
34.48
41.66
46.78
50.18
52.27
53.48
54.13
54.40
54.30
53.74
52.72
51.35
49.89
48.66
47.91
47.73
47.94
48.12
47.73
46.22
43.35
39.22
34.27
29.11
24.24
19.87
15.80
11.54
6.54
0.43
-6.79
-14.74
-22.82
-30.36
-36.97
-42.59
-47.55
-52.54
-58.34
-65.66
-74.77
-85.23
-95.71
-104.07
-107.85
-105.03
-94.79
-77.87
-56.44
-33.33
-11.19
8.23
24.31
37.23
47.52
55.55
61.50
65.42
67.46
68.05
67.79
67.30
66.92
66.70
66.36
65.62
64.37
62.74
61.10
59.77
58.84
58.10
57.09
55.27
52.28
47.99
42.52
36.18
29.34
22.37
15.50
8.79
2.14
-4.72
-12.02
-19.78
-27.77
-35.58
-42.79
-49.22
-55.06
-60.82
-67.23
-75.00
-84.61
-96.04
-108.55
-120.56
-129.76
-133.67
-130.29
-118.91
-100.35
-76.87
-51.39
-26.70
-4.73
13.63
28.39
40.00
49.06
56.03
61.29
65.13
67.86
69.73
70.93
71.51
71.39
70.46
68.67
66.13
63.16
60.27
57.95
56.49
55.80
55.39
54.52
52.52
48.98
43.99
38.03
31.80
25.86
20.44
15.37
10.16
4.30
-2.57
-10.43
-18.94
-27.51
-35.56
-42.73
-49.03
-54.89
-61.05
-68.32
-77.35
-88.21
-100.15
-111.56
-120.08
-123.27
-119.31
-107.60
-89.11
-66.11
-41.48
-17.92
2.65
19.41
32.42
42.26
49.71
55.37
59.72
63.04
65.48
67.06
67.73
67.44
66.19
64.12
61.55
58.90
56.55
54.76
53.52
52.61
51.63
50.10
47.62
43.94
39.08
33.32
27.18
21.14
15.50
10.18
4.78
-1.19
-8.02
-15.62
-23.50
-31.08
-37.85
-43.77
-49.20
-54.82
-61.41
-69.54
-79.29
-89.97
-100.11
-107.57
-110.10
-106.03
-94.88
-77.58
-56.23
-33.43
-11.59
7.65
23.50
35.94
45.30
52.11
56.85
59.94
61.76
62.64
62.79
62.36
61.46
60.16
58.60
56.93
55.38
54.14
53.34
52.87
52.44
51.54
49.65
46.40
41.78
36.08
29.79
23.38
17.08
10.83
4.36
-2.62
-10.25
-18.39
-26.72
-34.78
-42.22
-48.84
-54.78
-60.49
-66.61
-73.97
-83.18
-94.42
-107.01
-119.22
-128.59
-132.46
-128.79
-117.04
-98.31
-75.06
-50.31
-26.69
-5.84
11.69
26.14
38.04
47.84
55.81
62.17
67.14
71.03
74.12
76.52
78.17
78.91
78.58
77.20
75.03
72.50
70.09
68.23
67.06
66.43
65.91
64.85
62.61
58.77
53.27
46.46
39.05
31.79
25.22
19.45
14.16
8.75
2.68
-4.29
-12.00
-19.99
-27.76
-34.94
-41.47
-47.56
-53.56
-59.96
-67.29
-76.04
-86.35
-97.74
-108.82
-117.42
-121.05
-117.69
-106.58
-88.56
-65.86
-41.32
-17.60
3.50
21.21
35.53
46.85
55.64
62.27
67.11
70.52
72.90
74.58
75.74
76.36
76.33
75.54
74.00
71.91
69.62
67.49
65.80
64.57
63.58
62.37
60.38
57.14
52.43
46.39
39.44
32.21
25.26
18.92
13.13
7.52
1.61
-5.00
-12.30
-20.00
-27.55
-34.44
-40.43
-45.66
-50.55
-55.73
-61.88
-69.49
-78.74
-89.22
-99.70
-108.24
-112.52
-110.52
-101.25
-85.19
-64.26
-41.21
-18.83
0.86
16.88
29.28
38.67
45.78
51.16
55.08
57.64
58.91
59.04
58.24
56.77
54.87
52.75
50.61
48.64
47.00
45.72
44.73
43.73
42.34
40.20
37.07
32.97
28.12
22.82
17.33
11.75
6.02
-0.08
-6.74
-14.04
-21.79
-29.57
-36.91
-43.44
-49.11
-54.32
-59.85
-66.62
-75.35
-86.16
-98.28
-109.95
-118.72
-122.10
-118.29
-106.82
-88.76
-66.39
-42.39
-19.15
1.79
19.80
34.89
47.25
57.11
64.64
70.11
74.00
76.94
79.52
82.13
84.73
86.94
88.24
88.22
86.87
84.69
82.54
81.30
81.54
83.15
85.42
87.23
87.59
85.92
82.32
77.51
72.66
69.08
67.81
69.19
72.34
75.03
73.93
65.47
47.02
17.93
-19.96
-62.68
-105.34
-143.40
-173.93
-195.99
-210.36
-218.73
-222.83
-223.73
-221.67
-216.17
-206.57
-192.44
-173.92
-151.77
-127.15
-101.46
-76.06
-52.10
-30.51
-11.86
3.65
16.30
26.71
35.70
43.96
51.91
59.57
66.70
72.98
78.30
82.93
87.52
92.98
100.07
108.99
119.00
128.42
135.01
136.66
132.24
121.97
107.41
90.78
74.25
59.31
46.61
36.17
27.68
20.81
15.19
10.35
5.63
0.31
-6.13
-13.75
-22.10
-30.41
-37.93
-44.29
-49.72
-55.01
-61.23
-69.31
-79.72
-92.07
-105.05
-116.48
-123.89
-125.04
-118.77
-105.28
-86.16
-63.89
-41.04
-19.68
-1.02
14.56
27.16
37.09
44.68
50.21
53.96
56.26
57.45
57.86
57.80
57.45
56.90
56.17
55.19
53.95
52.57
51.25
50.18
49.43
48.76
47.72
45.74
42.40
37.63
31.68
25.10
18.40
11.91
5.62
-0.71
-7.38
-14.57
-22.18
-29.91
-37.35
-44.19
-50.31
-55.90
-61.38
-67.34
-74.41
-83.03
-93.21
-104.19
-114.37
-121.41
-122.94
-117.28
-104.06
-84.57
-61.23
-36.88
-13.92
6.18
22.92
36.46
47.19
55.49
61.60
65.79
68.36
69.65
70.03
69.78
69.11
68.14
66.97
65.59
64.05
62.39
60.74
59.27
58.08
57.14
56.16
54.67
52.17
48.34
43.19
37.04
30.45
23.98
17.98
12.50
7.33
2.08
-3.62
-10.04
-17.21
-24.92
-32.75
-40.23
-46.95
-52.72
-57.70
-62.37
-67.45
-73.75
-81.90
-91.99
-103.34
-114.30
-122.53
-125.50
-121.26
-109.22
-90.36
-66.98
-41.96
-17.92
3.40
21.20
35.49
46.69
55.29
61.75
66.52
69.97
72.43
74.11
75.06
75.28
74.76
73.59
71.91
69.93
67.79
65.61
63.51
61.52
59.66
57.81
55.76
53.31
50.24
46.44
41.86
36.62
30.90
24.92
18.95
13.20
7.74
2.46
-2.85
-8.52
-14.72
-21.41
-28.32
-35.04
-41.20
-46.63
-51.47
-56.09
-61.07
-67.07
-74.65
-83.98
-94.61
-105.27
-113.98
-118.43
-116.63
-107.55
-91.58
-70.46
-46.79
-23.27
-2.07
15.59
29.40
39.68
47.10
52.30
55.81
57.99
59.09
59.36
59.00
58.25
57.30
56.32
55.47
54.93
54.85
55.37
56.45
57.74
58.69
58.60
56.95
53.62
48.91
43.32
37.39
31.34
25.09
18.35
10.88
2.62
-6.21
-15.24
-24.02
-32.17
-39.45
-45.78
-51.33
-56.53
-62.08
-68.68
-76.70
-85.86
-95.04
-102.33
-105.58
-103.00
-93.79
-78.44
-58.58
-36.44
-14.25
6.32
24.33
39.47
51.78
61.40
68.51
73.33
76.17
77.40
77.45
76.65
75.24
73.44
71.48
69.64
68.19
67.31
66.91
66.68
66.13
64.75
62.19
58.33
53.29
47.40
41.07
34.70
28.57
22.75
17.11
11.37
5.24
-1.44
-8.57
-15.81
-22.65
-28.60
-33.39
-37.10
-40.14
-43.22
-47.15
-52.50
-59.39
-67.17
-74.44
-79.32
-79.95
-75.13
-64.81
-50.08
-32.89
-15.44
0.45
13.76
24.33
32.62
39.32
45.00
49.93
54.09
57.27
59.23
59.83
59.06
57.01
53.85
49.74
44.91
39.66
34.33
29.27
24.71
20.71
17.12
13.63
9.91
5.72
0.97
-4.33
-10.07
-16.16
-22.46
-28.76
-34.81
-40.30
-45.02
-48.93
-52.23
-55.39
-59.00
-63.66
-69.70
-77.05
-85.05
-92.45
-97.59
-98.79
-94.84
-85.37
-71.10
-53.53
-34.63
-16.25
0.24
14.10
25.13
33.51
39.58
43.70
46.22
47.42
47.55
46.87
45.62
44.11
42.65
41.53
40.95
40.89
41.17
41.42
41.19
39.84
36.58
30.38
20.14
5.01
-15.13
-39.34
-65.54
-91.00
-113.06
-129.94
-141.14
-147.34
-149.98
-150.68
-150.86
-151.66
-153.90
-158.07
-164.03
-170.83
-176.65
-179.15
-176.00
-165.59
-147.47
-122.49
-92.54
-60.15
-27.88
2.12
28.47
50.63
68.82
83.68
95.88
105.87
113.73
119.34
122.67
123.89
123.43
121.80
119.32
115.99
111.57
105.79
98.57
90.19
81.19
72.19
63.64
55.69
48.17
40.77
33.13
24.99
16.17
6.63
-3.53
-14.05
-24.57
-34.67
-44.07
-52.82
-61.29
-70.19
-80.25
-91.85
-104.63
-117.31
-127.79
-133.57
-132.47
-123.30
-106.27
-82.96
-55.93
-27.96
-1.48
21.94
41.58
57.45
70.01
79.90
87.74
94.10
99.37
103.76
107.30
109.81
111.03
110.74
108.85
105.54
101.20
96.40
91.67
87.42
83.77
80.54
77.26
73.41
68.53
62.46
55.42
47.91
40.47
33.46
26.95
20.60
13.95
6.62
-1.47
-10.03
-18.51
-26.39
-33.31
-39.28
-44.64
-50.03
-56.23
-63.98
-73.67
-85.00
-96.80
-107.08
-113.43
-113.83
-107.24
-94.07
-76.05
-55.67
-35.36
-16.88
-1.08
11.94
22.44
30.81
37.35
42.39
46.32
49.55
52.39
54.89
56.84
57.80
57.38
55.50
52.41
48.70
44.99
41.76
39.12
36.84
34.43
31.39
27.40
22.47
16.84
10.95
5.17
-0.31
-5.53
-10.75
-16.29
-22.36
-28.96
-35.82
-42.52
-48.57
-53.66
-57.73
-61.07
-64.19
-67.78
-72.46
-78.54
-85.85
-93.58
-100.36
-104.45
-104.27
-98.83
-88.02
-72.62
-54.03
-33.83
-13.43
6.09
23.97
39.65
52.74
63.02
70.50
75.43
78.23
79.34
79.20
78.11
76.36
74.17
71.80
69.49
67.44
65.74
64.35
63.10
61.71
59.89
57.35
53.91
49.51
44.28
38.40
32.01
25.21
18.03
10.44
2.50
-5.66
-13.88
-21.99
-29.92
-37.74
-45.67
-54.10
-63.48
-74.14
-86.01
-98.43
-109.96
-118.70
-122.68
-120.64
-112.44
-99.18
-82.84
-65.56
-48.99
-33.94
-20.37
-7.81
4.20
15.87
27.17
37.87
47.71
56.38
63.39
68.10
69.82
68.13
63.20
55.89
47.57
39.69
33.31
28.83
25.98
24.03
22.17
19.80
16.64
12.82
8.67
4.51
0.45
-3.70
-8.43
-14.27
-21.52
-30.09
-39.50
-49.03
-58.02
-66.05
-73.04
-79.24
-85.11
-91.28
-98.47
-107.26
-117.77
-129.23
-139.86
-146.99
-147.84
-140.41
-124.27
-100.79
-72.71
-43.24
-15.19
9.64
30.52
47.56
61.27
72.34
81.46
89.27
96.28
102.71
108.47
113.11
116.09
116.97
115.64
112.41
107.95
103.03
98.32
94.18
90.61
87.32
83.89
79.97
75.38
70.15
64.41
58.32
51.99
45.51
38.99
32.53
26.26
20.22
14.33
8.38
2.12
-4.62
-11.79
-19.14
-26.29
-32.88
-38.67
-43.77
-48.51
-53.51
-59.50
-67.15
-76.77
-88.01
-99.67
-109.73
-115.74
-115.43
-107.42
-91.75
-69.87
-44.35
-18.11
6.30
27.17
43.83
56.40
65.44
71.63
75.54
77.58
78.11
77.47
75.99
74.01
71.78
69.44
67.02
64.55
62.09
59.79
57.83
56.31
55.18
54.10
52.62
50.22
46.55
41.52
35.31
28.33
21.02
13.80
6.94
0.55
-5.46
-11.35
-17.40
-23.86
-30.80
-38.08
-45.35
-52.22
-58.41
-63.93
-69.09
-74.50
-80.80
-88.53
-97.80
-108.12
-118.31
-126.63
-131.08
-129.83
-121.76
-106.78
-85.97
-61.33
-35.31
-10.27
11.98
30.45
44.89
55.55
62.94
67.58
69.97
70.58
69.86
68.32
66.38
64.42
62.63
61.12
59.89
58.93
58.23
57.78
57.50
57.18
56.54
55.16
52.68
48.84
43.65
37.39
30.52
23.55
16.80
10.36
4.01
-2.57
-9.66
-17.33
-25.40
-33.49
-41.17
-48.17
-54.43
-60.21
-66.02
-72.49
-80.23
-89.55
-100.16
-111.08
-120.55
-126.40
-126.61
-119.89
-106.13
-86.55
-63.26
-38.72
-15.10
6.11
24.20
39.09
51.09
60.61
68.04
73.66
77.64
80.08
81.10
80.89
79.68
77.80
75.53
73.11
70.67
68.24
65.90
63.68
61.64
59.70
57.60
54.98
51.46
46.84
41.24
35.03
28.71
22.65
17.02
11.69
6.42
0.96
-4.84
-10.97
-17.31
-23.73
-30.05
-36.10
-41.77
-47.06
-52.19
-57.60
-63.88
-71.51
-80.54
-90.36
-99.64
-106.50
-109.00
-105.65
-95.89
-80.24
-60.17
-37.81
-15.35
5.28
22.79
36.64
46.92
54.22
59.32
62.94
65.56
67.38
68.41
68.60
67.96
66.58
64.67
62.41
60.01
57.65
55.49
53.63
52.05
50.58
48.89
46.60
43.41
39.21
34.15
28.53
22.71
16.98
11.47
6.21
1.16
-3.67
-8.32
-12.80
-17.17
-21.52
-25.90
-30.31
-34.75
-39.34
-44.31
-49.90
-56.12
-62.43
-67.66
-70.21
-68.55
-61.72
-49.67
-33.20
-13.66
7.44
28.63
48.52
65.72
78.95
87.31
90.58
89.40
84.97
78.63
71.29
63.18
54.00
43.32
31.12
17.95
4.81
-7.26
-17.60
-26.17
-33.39
-39.85
-45.93
-51.61
-56.59
-60.56
-63.52
-65.80
-68.01
-70.61
-73.69
-76.80
-79.23
-80.35
-79.96
-78.54
-77.11
-76.92
-79.07
-84.20
-92.22
-102.28
-112.72
-121.35
-125.82
-124.25
-115.73
-100.65
-80.54
-57.61
-34.16
-12.00
7.70
24.40
38.04
48.78
56.95
62.99
67.35
70.42
72.41
73.35
73.13
71.69
69.17
65.93
62.54
59.52
57.18
55.49
54.10
52.44
49.97
46.41
41.78
36.40
30.70
25.01
19.48
13.98
8.24
1.99
-4.94
-12.54
-20.52
-28.48
-36.02
-42.87
-49.08
-55.04
-61.48
-69.22
-78.73
-89.75
-101.01
-110.34
-115.17
-113.34
-103.86
-87.25
-65.42
-41.08
-16.90
5.11
23.84
39.09
51.12
60.39
67.33
72.25
75.48
77.38
78.32
78.61
78.43
77.80
76.64
74.96
72.88
70.72
68.85
67.56
66.91
66.63
66.21
65.04
62.56
58.47
52.82
46.01
38.63
31.30
24.37
17.85
11.40
4.60
-2.88
-11.00
-19.38
-27.46
-34.68
-40.85
-46.14
-51.10
-56.52
-63.15
-71.45
-81.40
-92.27
-102.60
-110.37
-113.46
-110.20
-99.94
-83.31
-62.13
-38.87
-16.05
4.37
21.32
34.56
44.40
51.43
56.24
59.29
60.98
61.63
61.55
61.01
60.22
59.31
58.33
57.31
56.29
55.40
54.78
54.48
54.36
54.01
52.89
50.46
46.50
41.19
35.04
28.68
22.56
16.82
11.24
5.48
-0.67
-7.21
-13.88
-20.33
-26.32
-31.81
-36.95
-42.10
-47.73
-54.28
-62.07
-71.02
-80.50
-89.20
-95.32
-96.97
-92.85
-82.66
-67.31
-48.67
-28.94
-10.12
6.35
19.75
29.87
36.82
40.85
42.32
41.60
39.20
35.62
31.31
26.66
21.88
17.06
12.23
7.39
2.61
-1.91
-5.95
-9.35
-12.13
-14.59
-17.14
-20.10
-23.48
-26.92
-29.88
-31.79
-32.47
-32.10
-31.21
-30.44
-30.33
-31.15
-32.95
-35.63
-39.08
-43.33
-48.55
-54.98
-62.84
-72.06
-82.13
-91.96
-100.07
-104.82
-104.86
-99.42
-88.52
-72.93
-54.03
-33.47
-12.97
6.00
22.48
36.10
47.09
56.07
63.73
70.48
76.37
81.13
84.45
86.18
86.49
85.75
84.42
82.84
81.16
79.37
77.36
75.04
72.32
69.17
65.49
61.19
56.13
50.20
43.27
35.34
26.55
17.09
7.29
-2.56
-12.22
-21.57
-30.61
-39.49
-48.49
-58.02
-68.50
-80.14
-92.67
-105.10
-115.78
-122.58
-123.55
-117.45
-104.23
-85.05
-62.02
-37.54
-13.79
7.71
26.16
41.40
53.70
63.50
71.33
77.69
82.92
87.21
90.52
92.63
93.31
92.47
90.26
87.07
83.40
79.67
76.13
72.78
69.47
65.94
61.92
57.23
51.77
45.62
38.89
31.77
24.34
16.60
8.47
-0.08
-8.96
-17.89
-26.50
-34.41
-41.52
-48.00
-54.34
-61.28
-69.45
-79.10
-89.76
-100.11
-108.16
-111.65
-108.79
-98.81
-82.31
-61.07
-37.54
-14.16
7.23
25.60
40.66
52.62
61.86
68.79
73.78
77.13
79.11
79.98
79.97
79.28
78.05
76.37
74.28
71.86
69.25
66.67
64.39
62.57
61.17
59.85
58.06
55.27
51.19
45.89
39.80
33.53
27.59
22.19
17.17
12.13
6.57
0.19
-7.05
-14.86
-22.73
-30.18
-36.92
-43.01
-48.88
-55.19
-62.72
-71.94
-82.78
-94.34
-104.89
-112.17
-113.93
-108.62
-95.91
-76.85
-53.58
-28.75
-4.78
16.59
34.55
48.97
60.19
68.59
74.48
78.12
79.75
79.82
78.87
77.49
76.10
74.85
73.68
72.41
70.93
69.37
67.94
66.82
65.96
65.00
63.37
60.56
56.32
50.79
44.44
37.90
31.68
26.01
20.83
15.83
10.67
5.08
-0.99
-7.40
-13.87
-20.12
-25.99
-31.44
-36.63
-41.86
-47.52
-53.96
-61.34
-69.49
-77.72
-84.87
-89.47
-90.12
-85.96
-76.90
-63.72
-47.83
-30.82
-14.11
1.29
14.79
25.99
34.63
40.56
43.83
44.81
44.18
42.67
40.95
39.35
37.92
36.53
35.11
33.72
32.57
31.86
31.68
31.90
32.15
31.95
30.89
28.68
25.24
20.78
15.66
10.34
5.20
0.49
-3.82
-7.89
-11.96
-16.25
-20.80
-25.52
-30.21
-34.69
-38.85
-42.74
-46.60
-50.77
-55.67
-61.61
-68.54
-75.88
-82.43
-86.59
-86.84
-82.19
-72.60
-58.96
-42.84
-26.04
-10.08
3.97
15.55
24.53
31.05
35.36
37.80
38.71
38.47
37.44
36.02
34.53
33.22
32.19
31.42
30.82
30.29
29.81
29.42
29.13
28.82
28.28
27.16
25.21
22.35
18.75
14.73
10.63
6.63
2.72
-1.30
-5.63
-10.29
-15.11
-19.75
-23.86
-27.31
-30.26
-33.17
-36.62
-41.10
-46.79
-53.40
-60.10
-65.66
-68.67
-67.96
-62.91
-53.71
-41.37
-27.36
-13.21
-0.11
11.25
20.66
28.09
33.54
36.98
38.40
38.00
36.18
33.53
30.61
27.85
25.48
23.55
21.99
20.72
19.69
18.86
18.14
17.39
16.39
14.92
12.82
10.02
6.54
2.52
-1.91
-6.58
-11.33
-16.05
-20.69
-25.26
-29.89
-34.75
-40.06
-46.04
-52.79
-60.19
-67.71
-74.42
-79.06
-80.37
-77.46
-70.11
-58.85
-44.82
-29.45
-14.12
0.04
12.24
21.98
29.09
33.64
35.90
36.27
35.20
33.14
30.52
27.70
25.00
22.56
20.34
18.22
16.03
13.76
11.56
9.68
8.26
7.16
5.95
4.04
0.89
-3.70
-9.56
-16.17
-22.92
-29.31
-35.11
-40.44
-45.67
-51.32
-57.88
-65.66
-74.50
-83.73
-92.08
-97.97
-99.88
-96.78
-88.41
-75.40
-59.02
-40.86
-22.43
-4.99
10.64
23.96
34.79
43.18
49.33
53.51
55.97
56.91
56.50
54.96
52.56
49.61
46.44
43.32
40.40
37.74
35.33
33.12
31.04
28.91
26.47
23.33
19.13
13.68
7.05
-0.37
-8.03
-15.40
-22.19
-28.44
-34.54
-41.04
-48.50
-57.17
-66.81
-76.51
-84.81
-89.93
-90.24
-84.83
-73.75
-58.12
-39.73
-20.56
-2.25
14.16
28.19
39.75
48.89
55.73
60.40
63.10
64.13
63.85
62.62
60.79
58.56
56.07
53.37
50.51
47.50
44.43
41.40
38.50
35.68
32.74
29.33
25.08
19.71
13.19
5.73
-2.23
-10.15
-17.58
-24.27
-30.27
-35.92
-41.82
-48.64
-56.87
-66.56
-77.12
-87.30
-95.33
-99.41
-98.12
-90.84
-77.95
-60.71
-40.93
-20.57
-1.29
15.82
30.23
41.93
51.13
58.10
63.00
65.89
66.86
66.09
63.99
61.10
57.95
54.95
52.26
49.82
47.45
44.96
42.28
39.47
36.66
33.91
31.17
28.20
24.66
20.28
14.91
8.68
1.91
-4.97
-11.62
-17.88
-23.79
-29.57
-35.54
-42.06
-49.44
-57.84
-67.14
-76.75
-85.51
-91.84
-94.02
-90.77
-81.77
-67.83
-50.70
-32.56
-15.37
-0.41
11.85
21.54
29.03
34.64
38.49
40.57
40.84
39.52
37.01
33.94
30.98
28.63
27.17
26.54
26.52
26.79
27.16
27.48
27.66
27.57
26.95
25.52
23.03
19.38
14.61
8.98
2.81
-3.55
-9.82
-15.84
-21.66
-27.54
-33.94
-41.34
-50.06
-60.00
-70.47
-80.19
-87.51
-90.82
-88.97
-81.59
-69.25
-53.25
-35.31
-17.18
-0.28
14.44
26.60
36.25
43.72
49.44
53.75
56.86
58.91
59.99
60.23
59.80
58.85
57.54
55.99
54.35
52.80
51.58
50.83
50.50
50.33
49.81
48.42
45.82
41.98
37.18
31.88
26.50
21.24
16.00
10.53
4.52
-2.19
-9.52
-17.18
-24.73
-31.84
-38.37
-44.55
-50.96
-58.36
-67.32
-77.91
-89.41
-100.27
-108.43
-111.82
-108.93
-99.33
-83.76
-63.94
-42.08
-20.29
-0.18
17.37
32.09
44.17
53.94
61.75
67.87
72.47
75.72
77.74
78.67
78.68
77.91
76.55
74.80
72.86
70.96
69.28
67.95
66.98
66.26
65.57
64.57
62.96
60.52
57.19
53.07
48.41
43.47
38.54
33.75
29.17
24.74
20.30
15.67
10.70
5.37
-0.31
-6.14
-11.93
-17.52
-22.87
-28.13
-33.62
-39.74
-46.87
-55.23
-64.63
-74.35
-83.20
-89.71
-92.52
-90.78
-84.46
-74.27
-61.46
-47.48
-33.57
-20.66
-9.31
0.21
7.83
13.56
17.49
19.79
20.68
20.52
19.83
19.34
19.67
21.31
24.33
28.38
32.87
37.19
40.97
44.03
46.42
48.15
49.16
49.27
48.27
46.06
42.70
38.46
33.74
29.00
24.57
20.59
16.92
13.19
8.98
4.00
-1.73
-7.90
-14.05
-19.73
-24.79
-29.40
-34.08
-39.49
-46.22
-54.50
-64.03
-73.83
-82.30
-87.52
-87.69
-81.70
-69.57
-52.46
-32.48
-12.07
6.60
22.13
33.99
42.41
48.07
51.73
54.01
55.32
55.87
55.79
55.17
54.19
53.03
51.89
50.88
49.99
49.12
48.11
46.86
45.32
43.56
41.59
39.32
36.57
33.09
28.72
23.51
17.71
11.77
6.06
0.81
-4.05
-8.81
-13.87
-19.54
-25.96
-32.97
-40.20
-47.05
-52.90
-57.24
-59.87
-61.03
-61.39
-62.00
-63.98
-68.09
-74.41
-81.93
-88.76
-92.42
-90.62
-81.99
-66.53
-45.73
-22.00
1.99
24.11
43.09
58.52
70.55
79.46
85.45
88.65
89.25
87.63
84.40
80.27
75.79
71.30
66.86
62.45
58.09
53.92
50.14
46.86
43.98
41.20
38.20
34.73
30.79
26.57
22.37
18.45
14.96
11.93
9.25
6.74
4.12
1.09
-2.62
-7.12
-12.28
-17.75
-23.04
-27.78
-31.78
-35.21
-38.55
-42.43
-47.52
-54.31
-62.98
-73.16
-83.85
-93.50
-100.28
-102.58
-99.46
-90.95
-77.94
-61.94
-44.48
-26.90
-10.08
5.36
19.00
30.51
39.66
46.43
50.99
53.71
55.03
55.37
55.06
54.31
53.28
52.04
50.59
48.99
47.33
45.79
44.49
43.49
42.56
41.35
39.41
36.43
32.33
27.37
21.99
16.69
11.89
7.74
4.13
0.72
-2.90
-7.06
-11.86
-17.13
-22.50
-27.53
-31.93
-35.72
-39.21
-42.90
-47.40
-53.08
-60.00
-67.68
-75.06
-80.70
-83.00
-80.74
-73.43
-61.60
-46.61
-30.31
-14.50
-0.54
10.88
19.66
26.08
30.54
33.34
34.70
34.78
33.84
32.27
30.53
29.07
28.11
27.64
27.46
27.31
27.02
26.51
25.70
24.51
22.80
20.46
17.48
14.02
10.26
6.32
2.24
-2.10
-6.77
-11.81
-17.08
-22.35
-27.40
-32.06
-36.25
-40.08
-43.82
-47.93
-53.02
-59.46
-67.13
-75.10
-81.72
-85.01
-83.38
-76.25
-64.27
-49.14
-32.94
-17.51
-4.01
7.11
15.87
22.47
27.08
29.90
31.18
31.29
30.66
29.72
28.81
28.10
27.59
27.14
26.54
25.61
24.30
22.74
21.20
19.95
19.04
18.25
17.11
15.07
11.79
7.23
1.72
-4.22
-10.06
-15.47
-20.33
-24.69
-28.78
-32.88
-37.35
-42.59
-48.90
-56.30
-64.30
-71.79
-77.24
-79.04
-76.03
-67.96
-55.55
-40.32
-24.11
-8.59
5.13
16.51
25.54
32.47
37.57
41.11
43.29
44.31
44.42
43.88
42.96
41.91
40.84
39.76
38.56
37.05
35.07
32.56
29.63
26.46
23.22
20.00
16.67
12.99
8.68
3.59
-2.21
-8.36
-14.36
-19.73
-24.21
-27.82
-30.93
-34.13
-38.05
-43.17
-49.62
-57.05
-64.56
-70.77
-74.09
-73.13
-67.11
-56.17
-41.44
-24.70
-7.94
7.22
19.76
29.40
36.33
40.97
43.64
44.47
43.44
40.55
36.06
30.55
24.86
19.84
15.96
13.05
10.25
6.12
-0.99
-12.53
-29.29
-51.17
-77.01
-104.85
-132.18
-156.51
-175.78
-188.80
-195.28
-195.78
-191.42
-183.70
-174.27
-164.77
-156.69
-151.22
-149.04
-150.12
-153.68
-158.12
-161.29
-160.84
-154.71
-141.55
-121.04
-93.89
-61.63
-26.27
10.06
45.38
78.02
106.65
130.34
148.48
160.87
167.73
169.66
167.69
163.16
157.42
151.58
146.26
141.49
136.91
132.08
126.74
121.01
115.27
109.87
105.00
100.46
95.79
90.41
83.87
75.99
66.90
56.95
46.60
36.26
26.15
16.30
6.48
-3.64
-14.44
-26.21
-39.05
-52.66
-66.26
-78.50
-87.65
-91.95
-90.12
-81.74
-67.55
-49.19
-28.79
-8.43
10.39
26.88
40.88
52.61
62.33
70.17
76.12
80.13
82.22
82.55
81.49
79.44
76.77
73.72
70.46
67.12
63.82
60.70
57.85
55.25
52.69
49.83
46.25
41.64
35.88
29.15
21.85
14.49
7.50
1.13
-4.62
-9.99
-15.35
-21.13
-27.79
-35.66
-44.83
-54.96
-65.10
-73.71
-79.03
-79.53
-74.50
-64.29
-50.28
-34.39
-18.44
-3.74
9.16
20.23
29.69
37.71
44.36
49.58
53.36
55.80
57.05
57.33
56.82
55.72
54.18
52.34
50.32
48.13
45.80
43.32
40.75
38.14
35.55
32.86
29.79
25.94
20.99
14.84
7.72
0.12
-7.41
-14.44
-20.81
-26.70
-32.50
-38.70
-45.78
-54.10
-63.75
-74.38
-85.01
-94.10
-99.82
-100.50
-95.22
-84.21
-68.74
-50.80
-32.47
-15.35
-0.30
12.53
23.43
32.75
40.71
47.39
52.82
57.04
60.16
62.28
63.45
63.66
62.92
61.34
59.25
57.03
55.06
53.50
52.23
50.88
49.00
46.16
42.18
37.09
31.18
24.91
18.73
13.03
7.92
3.28
-1.27
-6.15
-11.66
-17.83
-24.40
-30.88
-36.84
-42.06
-46.73
-51.43
-56.97
-64.06
-72.96
-83.18
-93.39
-101.69
-106.03
-104.87
-97.61
-84.84
-68.06
-49.31
-30.51
-13.07
2.28
15.42
26.56
36.01
44.01
50.63
55.88
59.70
62.08
63.08
62.87
61.71
59.91
57.82
55.74
53.94
52.55
51.60
50.97
50.46
49.80
48.72
46.98
44.47
41.15
37.10
32.54
27.73
22.97
18.45
14.22
10.15
6.05
1.69
-3.08
-8.26
-13.78
-19.51
-25.28
-30.92
-36.26
-41.26
-45.94
-50.59
-55.64
-61.67
-69.13
-78.24
-88.65
-99.33
-108.59
-114.35
-114.70
-108.47
-95.67
-77.63
-56.57
-34.97
-14.88
2.49
16.85
28.53
38.05
45.86
52.26
57.39
61.37
64.36
66.50
67.89
68.54
68.38
67.36
65.54
63.21
60.75
58.62
57.07
56.06
55.25
54.14
52.27
49.47
45.87
41.83
37.73
33.82
30.11
26.45
22.65
18.59
14.27
9.85
5.43
1.13
-3.09
-7.37
-11.90
-16.78
-21.99
-27.38
-32.68
-37.66
-42.27
-46.71
-51.38
-56.77
-63.33
-71.31
-80.55
-90.33
-99.39
-105.90
-107.94
-103.99
-93.49
-77.11
-56.68
-34.65
-13.40
5.29
20.56
32.38
41.13
47.40
51.69
54.37
55.78
56.22
55.97
55.30
54.37
53.23
51.88
50.32
48.58
46.82
45.19
43.82
42.67
41.57
40.16
38.13
35.21
31.40
26.86
21.92
16.98
12.40
8.49
5.38
3.11
1.56
0.50
-0.43
-1.69
-3.79
-7.11
-11.78
-17.58
-24.01
-30.41
-36.29
-41.47
-46.15
-50.80
-56.02
-62.27
-69.80
-78.46
-87.55
-95.82
-101.45
-102.49
-97.41
-85.74
-68.36
-47.36
-25.42
-5.03
12.16
25.52
35.25
41.99
46.35
48.80
49.73
49.50
48.58
47.41
46.32
45.41
44.58
43.74
42.81
41.88
41.08
40.56
40.33
40.28
40.17
39.78
38.87
37.28
34.93
31.81
28.03
23.78
19.39
15.18
11.35
7.98
4.90
1.88
-1.42
-5.18
-9.41
-13.97
-18.57
-22.89
-26.72
-29.97
-32.73
-35.29
-38.15
-41.97
-47.31
-54.44
-62.93
-71.54
-78.35
-81.23
-78.52
-69.56
-54.99
-36.55
-16.52
2.85
19.91
33.72
44.00
50.97
55.02
56.63
56.21
54.20
50.97
46.93
42.47
37.98
33.80
30.12
27.13
24.90
23.46
22.71
22.45
22.31
21.82
20.49
17.95
14.09
9.02
3.12
-3.11
-9.18
-14.71
-19.56
-23.89
-28.05
-32.46
-37.36
-42.69
-48.05
-52.96
-57.11
-60.65
-64.16
-68.36
-73.69
-79.92
-86.10
-90.75
-92.19
-89.02
-80.36
-66.05
-46.64
-23.23
2.71
29.50
55.24
77.82
95.08
105.05
106.39
98.87
83.55
62.66
39.13
16.15
-2.98
-14.89
-16.49
-5.71
17.37
49.70
85.57
118.36
142.91
157.40
163.61
165.40
166.32
167.76
168.70
166.86
160.62
150.05
136.75
122.62
108.68
94.66
79.58
62.74
44.51
26.25
9.70
-3.91
-14.34
-22.25
-28.72
-34.66
-40.50
-46.11
-51.08
-55.00
-57.76
-59.57
-60.96
-62.48
-64.56
-67.20
-70.01
-72.29
-73.30
-72.58
-70.12
-66.39
-62.15
-58.22
-55.13
-53.08
-51.88
-51.17
-50.72
-50.49
-50.73
-51.71
-53.63
-56.48
-60.12
-64.36
-69.07
-74.17
-79.52
-84.80
-89.61
-93.54
-96.45
-98.44
-99.91
-101.29
-102.83
-104.54
-106.18
-107.41
-107.93
-107.60
-106.30
-103.94
-100.31
-95.19
-88.57
-80.78
-72.61
-65.24
-59.96
-57.91
-59.68
-65.13
-73.19
-81.98
-89.19
-92.67
-91.06
-84.20
-73.26
-60.30
-47.79
-37.72
-31.20
-28.19
-27.65
-27.91
-27.14
-23.93
-17.57
-8.30
2.80
14.14
24.15
31.81
37.00
40.70
44.79
51.48
62.44
78.02
96.76
115.77
131.59
141.45
144.11
140.12
131.31
119.93
107.71
95.53
83.44
71.10
58.20
44.71
30.88
17.14
4.07
-7.83
-18.18
-26.90
-34.27
-40.92
-47.75
-55.67
-65.46
-77.56
-91.96
-108.05
-124.58
-139.86
-152.15
-160.22
-163.82
-163.96
-162.48
-161.46
-162.44
-165.88
-171.17
-177.02
-182.14
-185.72
-187.72
-188.63
-189.17
-189.77
-190.15
-189.30
-185.61
-177.50
-163.98
-145.13
-122.10
-96.65
-70.55
-44.97
-20.38
3.28
26.16
48.27
69.27
88.56
105.34
118.62
127.31
130.40
127.22
117.85
103.22
84.89
64.60
43.76
23.14
3.06
-16.21
-34.08
-49.42
-60.85
-67.14
-67.61
-62.41
-52.39
-38.81
-22.98
-6.05
11.09
27.74
43.26
57.07
68.72
77.89
84.52
88.75
90.87
91.29
90.44
88.73
86.52
84.08
81.55
78.93
76.12
72.89
68.98
64.23
58.59
52.32
45.88
39.87
34.75
30.69
27.39
24.19
20.14
14.34
6.22
-4.23
-16.34
-28.91
-40.55
-50.09
-56.87
-60.93
-62.88
-63.65
-64.29
-65.67
-68.33
-72.23
-76.58
-79.88
-80.18
-75.66
-65.34
-49.48
-29.52
-7.58
14.20
34.24
51.79
66.65
78.86
88.38
94.96
98.38
98.76
96.76
93.63
90.78
89.44
90.26
93.27
98.14
104.51
112.22
121.33
131.83
143.38
155.20
166.16
175.05
180.84
182.93
181.32
176.50
169.39
160.90
151.51
140.91
127.99
111.17
89.30
62.41
32.13
1.43
-26.23
-48.04
-62.50
-69.65
-70.61
-67.14
-61.11
-54.37
-48.53
-44.67
-43.02
-42.77
-42.26
-39.67
-33.80
-24.60
-12.93
-0.07
13.02
26.01
38.88
51.46
63.02
72.46
78.79
81.77
82.11
81.09
79.90
79.10
78.43
77.26
75.10
71.94
68.31
64.83
61.85
59.31
56.96
54.58
52.23
50.05
48.11
46.19
43.93
41.07
37.72
34.31
31.28
28.78
26.46
23.69
19.96
15.16
9.67
4.04
-1.38
-6.70
-12.41
-19.19
-27.46
-37.24
-47.93
-58.48
-67.52
-73.65
-75.75
-73.20
-66.09
-55.06
-41.16
-25.61
-9.54
6.03
20.28
32.64
42.87
51.17
58.05
64.18
70.12
76.07
81.93
87.38
91.95
95.25
97.01
97.24
96.37
95.23
94.88
96.21
99.48
104.05
108.68
111.95
113.07
112.27
110.71
109.89
110.89
113.80
117.59
120.54
120.87
117.31
109.32
96.98
80.67
60.83
37.89
12.46
-14.54
-41.75
-67.44
-89.71
-106.66
-116.76
-118.99
-113.15
-99.99
-81.20
-59.20
-36.72
-16.24
0.49
12.63
20.32
24.31
25.66
25.35
24.11
22.31
20.10
17.45
14.39
11.01
7.52
4.22
1.43
-0.56
-1.52
-1.38
-0.24
1.67
3.96
6.21
7.99
8.98
9.09
8.46
7.50
6.74
6.68
7.58
9.31
11.25
12.47
11.90
8.67
2.35
-7.00
-18.96
-33.06
-48.94
-66.40
-85.15
-104.51
-123.33
-140.13
-153.45
-162.31
-166.45
-166.21
-162.31
-155.41
-146.06
-134.71
-121.92
-108.47
-95.34
-83.43
-73.28
-64.93
-57.96
-51.73
-45.68
-39.49
-33.08
-26.59
-20.18
-14.01
-8.19
-2.78
2.12
6.32
9.62
11.77
12.63
12.19
10.67
8.47
6.06
3.84
2.08
0.89
0.28
0.21
0.62
1.33
1.99
2.15
1.37
-0.59
-3.66
-7.55
-11.67
-15.37
-17.90
-18.65
-17.18
-13.39
-7.60
-0.46
7.25
14.84
22.02
28.87
35.78
43.18
51.28
59.95
68.67
76.77
83.63
88.90
92.56
94.77
95.77
95.72
94.69
92.81
90.37
87.80
85.53
83.78
82.43
81.08
79.28
76.71
73.37
69.42
65.14
60.63
55.79
50.38
44.10
36.81
28.50
19.27
9.27
-1.48
-12.97
-25.25
-38.21
-51.67
-65.26
-78.66
-91.56
-103.64
-114.53
-123.67
-130.44
-134.25
-134.86
-132.47
-127.67
-121.23
-113.83
-105.91
-97.67
-89.21
-80.72
-72.51
-64.87
-57.97
-51.68
-45.67
-39.56
-33.13
-26.42
-19.69
-13.28
-7.39
-2.03
2.96
7.86
12.89
18.23
24.03
30.26
36.73
43.03
48.56
52.80
55.64
57.55
59.65
63.33
69.80
79.57
92.24
106.63
121.12
134.02
143.94
149.91
151.47
148.66
142.08
132.82
122.30
111.94
102.70
94.85
87.95
81.16
73.70
65.26
56.05
46.60
37.43
28.75
20.45
12.34
4.32
-3.42
-10.53
-16.68
-21.79
-26.05
-29.78
-33.27
-36.56
-39.42
-41.42
-42.16
-41.42
-39.35
-36.41
-33.28
-30.70
-29.24
-29.15
-30.35
-32.45
-35.00
-37.63
-40.18
-42.73
-45.50
-48.68
-52.38
-56.48
-60.80
-65.17
-69.61
-74.33
-79.68
-85.93
-93.05
-100.55
-107.44
-112.46
-114.33
-112.18
-105.75
-95.54
-82.62
-68.36
-54.06
-40.75
-29.02
-19.09
-10.93
-4.38
0.71
4.56
7.41
9.51
11.14
12.46
13.55
14.34
14.71
14.61
14.13
13.53
13.16
13.27
13.85
14.60
15.02
14.64
13.21
10.81
7.78
4.55
1.38
-1.66
-4.70
-8.00
-11.71
-15.91
-20.57
-25.59
-30.81
-36.03
-41.03
-45.57
-49.51
-52.98
-56.35
-60.22
-65.15
-71.30
-78.20
-84.66
-89.10
-90.02
-86.51
-78.62
-67.28
-54.00
-40.32
-27.40
-15.86
-5.79
2.94
10.59
17.31
23.22
28.41
32.93
36.79
39.93
42.24
43.62
44.09
43.80
42.99
42.01
41.11
40.46
40.07
39.85
39.65
39.28
38.52
37.23
35.33
32.82
29.80
26.42
22.82
19.12
15.43
11.81
8.24
4.64
0.86
-3.25
-7.77
-12.62
-17.57
-22.35
-26.69
-30.57
-34.16
-37.86
-42.15
-47.48
-54.02
-61.53
-69.27
-76.03
-80.35
-80.94
-77.03
-68.64
-56.66
-42.50
-27.78
-13.87
-1.65
8.51
16.70
23.20
28.35
32.42
35.61
38.03
39.77
40.96
41.76
42.36
42.86
43.29
43.57
43.63
43.44
43.05
42.57
42.02
41.35
40.34
38.75
36.39
33.23
29.41
25.19
20.88
16.77
13.04
9.73
6.70
3.74
0.59
-2.97
-7.00
-11.46
-16.15
-20.87
-25.39
-29.62
-33.62
-37.60
-41.94
-47.07
-53.29
-60.53
-68.22
-75.25
-80.18
-81.66
-78.80
-71.48
-60.36
-46.71
-31.98
-17.48
-4.11
7.70
17.82
26.28
33.06
38.13
41.47
43.23
43.77
43.63
43.40
43.45
43.89
44.49
44.88
44.75
44.04
42.96
41.85
41.00
40.44
39.92
39.01
37.31
34.64
31.15
27.23
23.30
19.69
16.44
13.37
10.16
6.49
2.18
-2.78
-8.24
-13.89
-19.41
-24.55
-29.17
-33.31
-37.24
-41.37
-46.15
-51.93
-58.75
-66.12
-73.03
-78.05
-79.66
-76.77
-69.02
-57.02
-42.16
-26.18
-10.74
3.00
14.42
23.46
30.35
35.43
39.03
41.42
42.86
43.59
43.85
43.84
43.70
43.48
43.19
42.82
42.42
42.06
41.81
41.68
41.58
41.23
40.30
38.44
35.46
31.45
26.76
21.89
17.31
13.26
9.61
5.98
1.95
-2.73
-8.00
-13.45
-18.56
-22.90
-26.33
-29.09
-31.68
-34.73
-38.84
-44.35
-51.15
-58.60
-65.52
-70.38
-71.65
-68.27
-59.98
-47.48
-32.20
-15.98
-0.50
12.99
23.87
32.07
37.82
41.48
43.40
43.87
43.24
41.82
40.02
38.19
36.63
35.45
34.63
34.03
33.53
33.05
32.64
32.32
32.09
31.77
31.08
29.71
27.47
24.42
20.76
16.87
13.08
9.60
6.43
3.39
0.20
-3.44
-7.63
-12.31
-17.22
-22.00
-26.39
-30.32
-33.99
-37.78
-42.14
-47.41
-53.59
-60.21
-66.28
-70.47
-71.44
-68.27
-60.80
-49.70
-36.29
-22.14
-8.64
3.23
13.03
20.69
26.43
30.48
33.11
34.58
35.11
34.97
34.43
33.75
33.10
32.61
32.19
31.66
30.79
29.40
27.40
24.87
21.95
18.79
15.41
11.71
7.50
2.63
-2.90
-8.86
-14.87
-20.54
-25.64
-30.13
-34.26
-38.33
-42.71
-47.74
-53.67
-60.65
-68.52
-76.69
-84.04
-89.00
-90.01
-86.04
-76.94
-63.63
-47.76
-31.26
-15.76
-2.24
8.98
18.09
25.49
31.50
36.32
39.97
42.50
44.04
44.86
45.23
45.36
45.26
44.82
43.84
42.22
40.09
37.71
35.40
33.36
31.54
29.74
27.61
24.83
21.19
16.61
11.18
5.15
-1.15
-7.31
-13.05
-18.25
-23.00
-27.62
-32.61
-38.47
-45.63
-54.21
-63.84
-73.53
-81.82
-87.00
-87.61
-82.95
-73.28
-59.80
-44.24
-28.34
-13.41
-0.16
11.29
21.11
29.53
36.69
42.57
47.13
50.37
52.39
53.34
53.42
52.80
51.62
50.02
48.14
46.14
44.20
42.45
40.90
39.42
37.71
35.46
32.42
28.50
23.77
18.44
12.74
6.86
0.87
-5.18
-11.24
-17.18
-22.84
-28.13
-33.17
-38.37
-44.29
-51.47
-60.06
-69.56
-78.78
-86.00
-89.43
-87.78
-80.69
-68.84
-53.76
-37.31
-21.13
-6.31
6.69
17.87
27.37
35.32
41.73
46.70
50.36
53.02
54.93
56.23
56.88
56.72
55.68
53.91
51.78
49.79
48.32
47.45
46.93
46.25
44.86
42.48
39.07
34.91
30.37
25.71
21.00
16.13
10.89
5.18
-0.92
-7.19
-13.32
-19.10
-24.41
-29.32
-34.01
-38.77
-43.95
-49.95
-57.07
-65.25
-73.90
-81.73
-86.99
-87.98
-83.56
-73.66
-59.35
-42.45
-24.96
-8.48
6.10
18.58
29.10
37.94
45.24
51.03
55.35
58.30
60.11
61.02
61.22
60.79
59.80
58.30
56.47
54.56
52.83
51.47
50.47
49.66
48.68
47.14
44.71
41.25
36.82
31.73
26.37
21.07
15.91
10.70
5.05
-1.36
-8.65
-16.52
-24.45
-31.83
-38.25
-43.56
-47.98
-51.95
-56.01
-60.70
-66.39
-73.13
-80.49
-87.45
-92.53
-94.09
-90.89
-82.47
-69.40
-53.12
-35.50
-18.32
-2.89
10.09
20.48
28.44
34.30
38.37
40.93
42.21
42.39
41.68
40.30
38.50
36.62
34.93
33.68
32.98
32.77
32.87
33.01
32.89
32.27
30.96
28.84
25.89
22.15
17.67
12.55
6.90
0.88
-5.33
-11.54
-17.65
-23.60
-29.44
-35.21
-40.97
-46.81
-52.90
-59.48
-66.70
-74.39
-81.80
-87.62
-90.24
-88.29
-81.11
-69.06
-53.41
-35.92
-18.35
-2.07
12.18
24.16
34.06
42.21
49.01
54.73
59.52
63.39
66.29
68.26
69.45
70.13
70.57
71.01
71.57
72.30
73.24
74.35
75.60
76.85
77.98
78.89
79.69
80.62
82.05
84.17
86.86
89.65
91.76
92.52
91.58
89.00
85.25
80.98
76.67
72.53
68.34
63.57
57.61
49.96
40.52
29.79
18.85
9.19
2.30
-0.80
0.14
4.45
10.91
18.06
24.68
29.96
33.62
35.64
36.18
35.39
33.31
29.91
25.08
18.73
10.86
1.65
-8.52
-19.01
-29.08
-37.99
-45.10
-49.99
-52.54
-52.90
-51.47
-48.81
-45.58
-42.40
-39.83
-38.21
-37.63
-37.90
-38.61
-39.30
-39.73
-39.91
-40.15
-40.77
-41.85
-43.12
-43.95
-43.71
-42.03
-39.14
-35.80
-33.24
-32.82
-35.59
-42.05
-51.71
-63.01
-73.54
-80.60
-81.92
-76.49
-64.81
-48.73
-30.78
-13.37
1.85
14.15
23.51
30.19
34.46
36.52
36.47
34.59
31.31
27.22
22.89
18.78
15.11
11.96
9.32
7.16
5.53
4.53
4.20
4.55
5.33
6.11
6.28
5.24
2.67
-1.36
-6.30
-11.36
-15.86
-19.49
-22.48
-25.42
-28.92
-33.28
-38.26
-43.26
-47.64
-50.99
-53.37
-55.22
-57.19
-59.95
-64.02
-69.65
-76.68
-84.36
-91.26
-95.45
-94.97
-88.51
-75.89
-58.29
-37.87
-17.13
1.82
17.70
30.15
39.43
46.05
50.46
53.07
54.19
54.13
53.32
52.14
50.91
49.77
48.66
47.41
45.87
44.05
42.17
40.55
39.42
38.73
38.09
36.88
34.50
30.65
25.48
19.54
13.51
7.93
2.97
-1.70
-6.66
-12.50
-19.50
-27.44
-35.71
-43.55
-50.36
-55.89
-60.34
-64.18
-68.04
-72.42
-77.46
-82.68
-86.71
-87.32
-81.87
-68.13
-45.15
-13.98
22.46
60.18
95.32
125.32
149.36
168.06
182.71
194.40
203.58
210.05
213.36
213.16
209.41
202.34
192.36
179.88
165.42
149.56
132.96
116.32
100.15
84.72
69.98
55.59
41.10
26.20
10.82
-4.71
-19.85
-33.90
-46.28
-56.61
-64.82
-71.11
-75.85
-79.54
-82.63
-85.42
-88.11
-90.74
-93.26
-95.62
-97.84
-99.96
-102.06
-104.11
-105.98
-107.47
-108.39
-108.59
-108.04
-106.71
-104.62
-101.82
-98.42
-94.60
-90.59
-86.63
-82.85
-79.26
-75.79
-72.31
-68.80
-65.41
-62.44
-60.27
-59.21
-59.30
-60.25
-61.42
-61.98
-61.09
-58.19
-53.07
-45.89
-37.12
-27.43
-17.57
-8.28
-0.21
6.07
10.25
12.18
11.95
9.81
6.09
1.24
-4.26
-9.97
-15.49
-20.61
-25.33
-29.73
-33.91
-37.90
-41.61
-44.90
-47.70
-50.00
-51.84
-53.33
-54.51
-55.26
-55.28
-54.05
-50.94
-45.40
-37.19
-26.59
-14.40
-1.71
10.42
21.25
30.49
38.22
44.71
50.14
54.58
58.03
60.51
62.11
63.05
63.49
63.48
62.89
61.47
58.98
55.37
50.84
45.81
40.77
36.13
31.99
28.25
24.69
21.13
17.56
14.09
10.86
7.90
5.12
2.35
-0.60
-3.75
-6.99
-10.10
-12.82
-14.97
-16.58
-17.78
-18.88
-20.12
-21.63
-23.29
-24.78
-25.66
-25.59
-24.45
-22.35
-19.56
-16.35
-12.96
-9.55
-6.16
-2.93
0.01
2.49
4.37
5.61
6.29
6.60
6.67
6.67
6.67
6.74
6.91
7.24
7.68
8.16
8.51
8.55
8.12
7.16
5.71
3.89
1.84
-0.30
-2.47
-4.59
-6.61
-8.42
-9.90
-10.95
-11.55
-11.79
-11.88
-12.04
-12.46
-13.15
-14.00
-14.83
-15.51
-16.03
-16.45
-16.76
-16.77
-16.19
-14.73
-12.28
-8.98
-5.21
-1.38
2.12
5.09
7.42
9.01
9.82
9.82
9.09
7.84
6.39
5.05
4.07
3.52
3.31
3.21
2.94
2.34
1.36
0.17
-0.98
-1.85
-2.34
-2.47
-2.44
-2.46
-2.68
-3.20
-4.03
-5.14
-6.50
-7.99
-9.49
-10.81
-11.83
-12.49
-12.91
-13.28
-13.81
-14.64
-15.76
-17.10
-18.49
-19.80
-20.89
-21.57
-21.64
-20.85
-19.06
-16.32
-12.90
-9.21
-5.66
-2.55
0.05
2.17
3.91
5.25
6.19
6.71
6.85
6.72
6.42
6.00
5.43
4.64
3.63
2.49
1.35
0.30
-0.67
-1.71
-3.00
-4.70
-6.79
-9.13
-11.53
-13.90
-16.23
-18.64
-21.35
-24.47
-28.12
-32.28
-36.88
-41.74
-46.72
-51.67
-56.53
-61.42
-66.63
-72.47
-79.24
-87.02
-95.69
-104.92
-114.32
-123.58
-132.50
-141.03
-149.21
-157.20
-165.29
-173.98
-183.82
-195.14
-207.62
-219.97
-230.08
-235.59
-234.84
-227.46
-214.55
-198.04
-179.76
-160.78
-141.26
-120.79
-99.12
-76.43
-53.16
-29.58
-5.47
19.62
45.75
71.97
96.22
115.95
129.07
134.85
134.09
128.81
121.32
113.46
106.00
98.85
91.38
83.03
73.75
64.02
54.70
46.55
39.90
34.46
29.48
23.94
16.99
8.25
-2.05
-12.94
-22.93
-30.24
-33.19
-30.56
-21.87
-7.55
11.16
32.49
54.48
75.29
93.41
107.83
118.06
124.12
126.47
125.79
122.88
118.42
112.97
106.97
100.81
94.82
89.31
84.51
80.48
77.05
73.77
70.03
65.19
58.85
50.96
41.90
32.33
22.93
14.16
6.14
-1.32
-8.57
-15.90
-23.39
-30.93
-38.20
-44.93
-50.88
-56.03
-60.56
-64.88
-69.53
-74.86
-80.80
-86.50
-90.46
-90.74
-85.60
-73.96
-55.71
-31.72
-3.61
26.53
56.41
83.73
106.58
123.83
135.48
142.73
147.55
152.02
157.53
164.36
171.68
178.03
181.76
181.56
176.64
166.80
152.32
133.80
112.06
87.91
62.19
35.74
9.53
-15.39
-38.09
-58.12
-75.75
-91.92
-107.88
-124.58
-142.20
-160.12
-177.24
-192.36
-204.41
-212.33
-214.91
-211.03
-200.29
-183.84
-164.74
-147.30
-135.50
-131.19
-133.17
-137.66
-140.01
-136.71
-126.64
-110.89
-91.61
-70.59
-48.59
-25.74
-2.47
19.72
38.30
50.61
54.98
51.66
42.64
31.03
19.82
11.06
5.52
3.01
3.00
5.17
9.74
17.21
28.04
42.04
58.28
75.03
90.36
102.66
111.22
116.39
119.32
121.40
123.59
126.19
128.82
130.86
131.73
131.14
128.99
125.25
119.85
112.71
103.86
93.40
81.38
67.70
52.07
34.33
14.88
-5.04
-23.39
-37.84
-46.62
-49.16
-46.27
-39.85
-32.13
-24.99
-19.58
-16.23
-14.70
-14.46
-14.87
-15.20
-14.83
-13.37
-10.97
-8.44
-7.07
-8.10
-12.02
-17.90
-23.31
-25.11
-20.40
-7.81
11.97
36.45
62.21
86.19
106.53
122.68
134.93
143.77
149.35
151.48
149.96
144.93
137.06
127.41
117.15
107.30
98.55
91.15
84.89
79.17
73.15
66.06
57.49
47.64
37.29
27.72
20.29
16.28
16.69
21.96
31.75
44.66
58.43
70.54
79.07
83.56
85.08
85.58
86.85
89.46
92.65
94.81
94.59
91.59
86.50
80.56
74.73
69.26
63.73
57.59
50.71
43.53
36.83
31.24
26.83
23.02
18.87
13.51
6.50
-2.00
-11.31
-20.54
-28.95
-36.14
-42.16
-47.40
-52.34
-57.42
-62.93
-69.03
-75.83
-83.40
-91.64
-100.15
-108.03
-114.00
-116.60
-114.67
-107.73
-96.11
-80.96
-63.81
-46.26
-29.59
-14.59
-1.64
9.25
18.20
25.41
31.04
35.18
37.90
39.32
39.60
38.97
37.70
36.02
34.11
32.09
30.00
27.89
25.81
23.79
21.89
20.09
18.30
16.42
14.25
11.61
8.36
4.44
-0.06
-4.92
-9.82
-14.48
-18.75
-22.73
-26.70
-31.07
-36.31
-42.76
-50.49
-59.23
-68.21
-76.23
-81.83
-83.62
-80.74
-73.14
-61.61
-47.60
-32.69
-18.21
-4.96
6.75
16.90
25.61
32.88
38.70
43.12
46.25
48.32
49.58
50.23
50.44
50.35
50.25
50.42
51.16
52.55
54.40
56.22
57.42
57.51
56.37
54.25
51.66
49.16
47.06
45.30
43.44
40.93
37.39
32.88
27.95
23.39
19.77
16.97
14.16
9.99
3.28
-6.39
-18.38
-31.25
-43.36
-53.44
-61.00
-66.18
-69.40
-71.12
-71.87
-72.33
-73.40
-75.81
-79.40
-82.85
-84.12
-81.66
-75.80
-69.34
-66.69
-71.74
-85.61
-105.52
-125.57
-139.11
-141.47
-131.51
-111.48
-85.27
-56.39
-26.81
2.80
32.03
59.66
83.51
101.30
111.84
115.81
115.37
112.92
109.54
104.09
93.68
75.05
46.38
8.58
-34.44
-76.74
-111.92
-134.71
-142.29
-134.77
-115.08
-88.32
-60.71
-38.33
-26.01
-26.45
-39.81
-63.73
-93.84
-124.61
-150.53
-167.24
-172.44
-166.26
-150.89
-129.64
-105.81
-81.78
-58.75
-37.10
-16.76
2.26
19.90
36.14
51.28
65.77
80.25
95.55
112.63
132.43
155.38
180.66
205.89
227.41
241.37
245.15
238.44
223.26
203.12
181.58
161.30
143.74
129.63
119.47
113.71
112.18
113.39
114.27
110.80
99.42
78.60
49.69
16.58
-15.57
-42.30
-61.25
-72.55
-78.13
-80.45
-81.18
-80.77
-78.61
-73.96
-66.54
-57.00
-46.63
-36.85
-28.65
-22.35
-17.66
-14.00
-10.98
-8.50
-6.79
-6.19
-6.79
-8.26
-9.89
-10.80
-10.30
-8.16
-4.71
-0.67
3.16
6.28
8.61
10.44
12.14
13.87
15.41
16.28
16.00
14.40
11.73
8.60
5.68
3.39
1.73
0.34
-1.32
-3.70
-7.00
-11.16
-15.93
-20.98
-25.90
-30.24
-33.49
-35.21
-35.09
-33.07
-29.32
-24.09
-17.61
-10.01
-1.42
7.83
17.11
25.51
32.07
36.04
37.02
35.10
30.70
24.50
17.28
9.90
3.12
-2.43
-6.42
-8.83
-9.99
-10.31
-10.28
-10.27
-10.51
-11.06
-11.79
-12.49
-12.96
-13.20
-13.55
-14.62
-17.01
-20.82
-25.45
-29.58
-31.72
-30.94
-27.57
-23.19
-20.21
-20.77
-25.87
-34.88
-45.64
-55.01
-59.54
-56.11
-42.52
-18.12
15.59
54.83
94.13
127.90
152.29
166.65
173.51
177.23
181.77
188.95
197.87
205.92
210.34
209.53
203.41
192.75
178.39
160.75
140.02
116.72
91.99
67.47
44.82
25.00
7.96
-7.22
-21.88
-37.14
-53.42
-70.20
-86.22
-100.06
-110.77
-118.36
-123.87
-128.99
-135.24
-143.34
-152.95
-162.82
-171.29
-176.73
-177.85
-173.82
-164.47
-150.33
-132.68
-113.22
-93.62
-74.96
-57.46
-40.66
-24.03
-7.60
7.84
21.09
31.03
37.30
40.40
41.40
41.40
41.14
40.87
40.56
40.17
39.81
39.58
39.45
39.04
37.71
34.88
30.26
24.04
16.81
9.22
1.70
-5.81
-13.69
-22.49
-32.41
-43.09
-53.49
-62.07
-67.13
-67.34
-62.18
-52.17
-38.96
-24.90
-12.53
-3.95
-0.45
-2.30
-8.97
-19.45
-32.54
-47.10
-62.04
-76.37
-89.24
-100.02
-108.42
-114.55
-118.84
-121.86
-124.12
-125.82
-126.86
-126.80
-124.99
-120.64
-113.01
-101.54
-86.13
-67.32
-46.21
-24.21
-2.51
18.29
38.22
57.43
75.69
91.84
103.86
109.52
107.16
96.24
77.60
53.32
26.52
0.92
-19.80
-32.88
-37.48
-35.04
-28.81
-22.50
-18.66
-17.74
-18.19
-17.61
-14.01
-6.66
3.84
16.19
28.90
40.51
49.56
54.56
54.20
47.93
36.31
21.03
4.44
-11.23
-24.59
-35.29
-43.74
-50.55
-56.11
-60.51
-63.72
-65.81
-67.05
-67.69
-67.70
-66.78
-64.52
-60.71
-55.45
-48.86
-40.81
-30.81
-18.33
-3.30
13.52
30.67
46.78
61.20
74.44
87.86
102.97
120.67
140.83
162.20
182.74
200.01
211.72
216.30
213.26
203.31
188.09
169.55
149.45
128.95
108.73
89.10
70.00
50.80
30.33
7.44
-17.95
-43.61
-64.72
-75.22
-70.24
-48.95
-15.89
19.80
47.42
58.26
48.17
18.09
-27.48
-82.53
-141.10
-197.56
-246.22
-281.30
-297.73
-292.65
-266.59
-223.52
-169.27
-109.41
-47.64
13.91
73.06
125.75
165.77
186.55
184.24
160.27
121.60
78.30
39.76
11.37
-6.66
-18.14
-28.01
-39.62
-53.40
-67.17
-77.78
-82.77
-81.42
-74.80
-65.09
-54.61
-44.87
-36.44
-29.34
-23.67
-20.22
-20.36
-25.45
-35.92
-50.59
-66.55
-79.86
-86.73
-84.76
-73.90
-56.37
-35.88
-16.22
0.10
12.46
21.87
30.04
38.28
46.87
55.16
62.10
67.01
69.95
71.57
72.73
73.98
75.28
76.08
75.68
73.59
69.88
65.11
60.08
55.42
51.34
47.61
43.87
40.00
36.29
33.31
31.63
31.49
32.65
34.54
36.57
38.32
39.65
40.60
41.41
42.44
44.20
47.21
51.83
58.05
65.39
72.93
79.61
84.43
86.68
85.90
81.86
74.73
65.06
53.90
42.48
31.77
21.96
12.32
1.59
-11.40
-27.01
-44.54
-62.52
-79.32
-93.74
-105.27
-113.94
-119.90
-123.14
-123.42
-120.60
-115.00
-107.63
-100.17
-94.50
-92.16
-93.74
-98.63
-105.28
-111.79
-116.66
-119.36
-120.53
-121.46
-123.35
-126.53
-130.03
-131.92
-130.12
-123.50
-112.63
-99.72
-87.87
-79.96
-77.68
-81.05
-88.48
-97.19
-103.83
-105.19
-98.91
-84.06
-61.49
-33.60
-3.53
25.77
52.56
76.63
98.98
120.62
141.30
158.69
168.70
166.86
150.25
119.15
77.48
31.79
-10.74
-44.46
-66.63
-77.44
-79.10
-74.41
-65.70
-54.39
-41.25
-26.77
-11.55
3.68
18.17
31.52
44.01
56.53
70.05
84.79
99.61
112.07
119.33
119.56
113.13
102.85
93.00
87.60
88.70
95.46
104.55
111.60
113.08
107.47
95.61
79.84
62.64
45.69
29.48
13.97
-0.65
-13.41
-22.79
-27.62
-27.79
-24.59
-20.05
-16.19
-14.49
-16.03
-21.84
-32.89
-49.43
-69.96
-90.81
-106.89
-113.53
-108.62
-93.62
-73.04
-52.41
-36.00
-25.32
-19.35
-15.84
-12.79
-9.39
-5.88
-2.86
-0.69
0.68
1.45
1.69
1.24
-0.08
-2.14
-4.38
-5.98
-6.11
-4.25
-0.26
5.59
12.62
19.66
25.13
27.16
24.08
14.99
0.15
-19.02
-40.40
-61.85
-81.70
-98.92
-112.94
-123.33
-129.64
-131.52
-128.94
-122.43
-113.09
-102.11
-90.39
-78.20
-65.28
-51.27
-36.25
-20.87
-6.12
7.08
18.38
27.93
36.10
43.07
48.61
52.30
53.98
54.14
53.90
54.61
57.25
61.97
68.11
74.44
79.74
83.14
84.34
83.50
81.08
77.64
73.57
69.07
64.03
58.04
50.52
40.94
29.17
15.87
2.66
-8.00
-13.30
-11.12
-0.88
15.90
35.93
55.23
70.59
80.84
87.24
93.08
102.38
118.39
142.31
172.61
