1675150649
64
0
0
0
0
0
0
0
0
0
0
0
0.01
0.01
0
-0.03
-0.05
-0.05
0
0.13
0.36
0.66
1.01
1.37
1.72
2.06
2.4
2.79
3.24
3.8
4.42
5.06
5.66
6.2
6.68
7.15
7.68
8.31
9.14
10.09
11.04
11.88
12.56
13.14
13.76
14.65
15.96
17.91
20.32
22.9
25.38
27.58
29.57
31.68
34.32
37.81
42.54
48.15
54.1
59.83
64.97
69.58
74.14
79.34
85.71
93.76
103
112.62
121.73
129.77
136.75
143.3
150.75
157.77
166.64
177.95
191.79
206.97
220.57
228.25
225.36
208.53
176.87
132.76
80.05
23.07
-34.94
-92.44
-149.16
-205.23
-260.37
-313.74
-363.87
-409.83
-450.91
-486.5
-515.74
-537.23
-549.22
-549.96
-538.37
-514.21
-478.67
-433.88
-382.45
-327.02
-269.84
-212.63
-156.66
-102.95
-52.37
-5.9
35.58
71.43
101.35
125.5
144.38
158.69
169.15
176.37
180.75
182.57
182.07
179.51
175.23
169.65
163.18
156.15
148.81
141.3
133.69
126.02
118.33
110.69
103.16
95.8
88.68
81.83
75.25
68.95
62.95
57.25
51.86
46.78
42.03
37.59
33.45
29.61
26.07
22.81
19.83
17.11
14.67
12.48
10.54
8.83
7.35
6.07
4.97
4.05
3.27
2.62
2.09
1.65
1.3
1.01
0.79
0.61
0.47
0.37
0.29
0.23
0.2
0.17
0.16
0.16
0.17
0.19
0.22
0.25
0.28
0.33
0.37
0.41
0.46
0.51
0.56
0.6
0.65
0.71
0.77
0.86
0.95
1.04
1.1
1.13
1.13
1.1
1.1
1.16
1.29
1.49
1.74
2
2.24
2.43
2.61
2.82
3.1
3.48
3.95
4.47
4.97
5.38
5.71
6
6.35
6.86
7.6
8.53
9.52
10.38
10.95
11.23
11.34
11.55
12.11
13.19
14.68
16.25
17.42
17.77
17.12
15.57
13.49
11.3
9.23
7.13
4.53
0.81
-4.5
-11.35
-19.16
-26.95
-33.77
-38.94
-42.38
-44.49
-45.96
-47.49
-49.73
-53.15
-57.85
-63.19
-67.43
-68.01
-62.4
-49.31
-29.71
-6.9
14.5
30.31
38.24
38.6
33.61
26.14
18.48
11.83
6.56
2.86
1.07
1.61
4.42
8.67
12.94
15.72
16.04
13.96
10.51
7.05
4.69
3.79
4.03
4.72
5.26
5.31
4.7
3.42
1.33
-1.68
-5.66
-10.44
-15.68
-21.06
-26.35
-31.34
-35.5
-37.95
-37.54
-33.37
-25.2
-13.71
-0.34
13.39
25.59
34.97
41.05
44.02
44.22
41.73
36.43
28.23
17.54
5.45
-6.28
-15.78
-21.73
-23.78
-22.54
-19.2
-15.03
-11.01
-7.78
-5.59
-4.69
-5.33
-7.75
-11.97
-17.6
-23.93
-30.16
-35.75
-40.55
-44.71
-48.29
-50.86
-51.33
-48.16
-40.07
-26.72
-9.22
10.03
27.95
41.68
49.45
50.88
46.91
39.24
29.75
20.02
11.11
3.6
-2.27
-6.52
-9.29
-10.83
-11.61
-12.29
-13.54
-15.92
-19.63
-24.54
-30.36
-37.03
-44.86
-54.15
-64.64
-74.89
-82.55
-85.12
-81.25
-71.45
-57.87
-43.08
-28.64
-14.45
0.99
19.17
40.39
63.22
85.08
103.38
116.59
124.52
127.87
127.44
123.65
116.46
105.84
92.28
77.1
62.21
49.66
40.91
36.29
35.01
35.41
35.67
34.41
31.09
25.95
19.65
12.84
5.98
-0.73
-7.12
-12.91
-17.76
-21.38
-23.85
-25.7
-27.83
-31.18
-36.26
-42.78
-49.51
-54.55
-55.92
-52.23
-43.26
-30.13
-14.95
-0.18
12.07
20.53
24.93
25.75
23.94
20.61
16.84
13.7
12.04
12.47
15.09
19.54
25.05
30.65
35.47
38.89
40.57
40.39
38.27
34.18
28.24
20.72
12.14
3.11
-5.83
-14.31
-22.16
-29.41
-36.16
-42.58
-48.78
-54.74
-60.1
-64.11
-65.58
-63.27
-56.37
-44.92
-29.98
-13.39
2.89
17.29
28.98
37.8
44.02
47.98
49.91
49.96
48.33
45.37
41.59
37.52
33.57
30.01
26.93
24.28
21.94
19.75
17.54
15.06
12.13
8.59
4.38
-0.34
-5.33
-10.27
-14.93
-19.25
-23.38
-27.69
-32.6
-38.47
-45.28
-52.51
-58.97
-63.07
-63.14
-58.07
-47.71
-33.07
-16.06
1.04
16.31
28.61
37.72
44.04
48.26
50.94
52.42
52.87
52.41
51.21
49.4
47.08
44.27
40.97
37.21
33.18
29.11
25.2
21.56
18.1
14.67
11.06
7.14
2.85
-1.75
-6.51
-11.14
-15.31
-18.76
-21.47
-23.72
-26.09
-29.24
-33.69
-39.55
-46.43
-53.39
-59.05
-61.88
-60.55
-54.39
-43.64
-29.52
-13.94
1.1
14.06
24.18
31.49
36.48
39.66
41.32
41.5
40.24
37.8
34.71
31.71
29.38
27.93
27.11
26.37
25.16
23.19
20.56
17.68
15.02
12.87
11.2
9.68
7.8
5.07
1.16
-3.96
-10.04
-16.58
-23.03
-28.95
-34.21
-38.98
-43.68
-48.86
-54.99
-62.31
-70.66
-79.31
-86.97
-92.02
-92.91
-88.69
-79.41
-66.23
-51.07
-36.04
-22.77
-12.03
-3.76
2.69
8.1
13.06
17.87
22.6
27.24
31.81
36.37
40.88
45.18
49
52.07
54.24
55.59
56.34
56.69
56.63
55.97
54.41
51.75
47.97
43.24
37.8
31.86
25.62
19.24
12.93
6.96
1.51
-3.39
-7.94
-12.57
-17.78
-23.97
-31.2
-39.07
-46.66
-52.67
-55.68
-54.58
-48.88
-38.97
-26.02
-11.73
2.19
14.39
24.11
31.11
35.55
37.73
37.92
36.39
33.48
29.66
25.54
21.8
18.99
17.36
16.78
16.79
16.76
16.09
14.47
11.98
8.99
6.02
3.43
1.29
-0.7
-3.07
-6.24
-10.4
-15.37
-20.73
-25.89
-30.19
-32.95
-33.57
-31.68
-27.46
-21.72
-15.82
-11.14
-8.5
-7.64
-7.36
-6.07
-2.55
3.38
10.87
18.35
24.35
27.98
29.15
28.36
26.25
23.35
19.88
15.9
11.49
6.93
2.6
-1.13
-4.16
-6.68
-9.06
-11.56
-14.15
-16.39
-17.7
-17.67
-16.4
-14.56
-13.24
-13.57
-16.23
-21.17
-27.65
-34.43
-40.35
-44.68
-47.41
-49.13
-50.68
-52.8
-55.75
-59.29
-62.71
-65.05
-65.19
-62.06
-54.79
-43
-27.08
-8.22
11.75
30.85
47.46
60.71
70.52
77.3
81.58
83.68
83.58
81.15
76.48
70.25
63.83
59.15
58.14
62.18
71.36
84.31
98.33
110.23
117.3
118.11
112.96
103.56
92.32
81.5
72.67
66.58
63.3
62.21
61.74
59.16
50.91
33.85
6.85
-27.95
-65.37
-99.1
-124.25
-139.36
-146.55
-149.75
-152.22
-154.78
-155.82
-152.83
-144.4
-131.21
-115.71
-100.69
-87.86
-77.41
-68.37
-59.72
-51.11
-43.14
-36.88
-33.08
-31.68
-31.68
-31.52
-29.73
-25.49
-18.92
-10.98
-2.96
3.98
9.23
12.88
15.41
17.39
19.12
20.53
21.2
20.67
18.67
15.25
10.89
6.28
2.23
-0.73
-2.48
-3.41
-4.3
-6.06
-9.4
-14.5
-20.88
-27.41
-32.51
-34.65
-32.71
-26.31
-15.93
-2.82
11.39
25.15
37.4
47.74
56.41
63.97
70.96
77.48
83.09
86.79
87.43
84.26
77.3
67.46
56.22
45.1
34.99
26.09
18.07
10.6
3.7
-2.24
-6.82
-9.95
-12.06
-13.93
-16.2
-19.13
-22.63
-26.49
-30.7
-35.53
-41.4
-48.59
-57.11
-66.5
-75.99
-84.51
-90.86
-93.8
-92.38
-86.29
-76.05
-62.98
-48.81
-35.1
-22.71
-11.52
-0.59
11.44
25.8
43.08
62.95
84.21
105.18
124.24
140.32
153.21
163.25
171.07
177.16
181.79
184.99
186.46
185.15
178.96
164.92
140.17
103.4
56.03
2.34
-51.78
-100.68
-140.67
-170.49
-190.84
-203.25
-209.39
-210.89
-209.62
-207.75
-207.23
-208.91
-211.79
-213.06
-209.03
-196.5
-174.18
-143.35
-107.62
-71.78
-40.37
-16.27
-0.16
9.26
14.28
16.96
18.29
17.98
14.96
8.31
-1.94
-14.47
-26.89
-36.38
-40.49
-37.83
-28.33
-13.19
5.23
23.83
39.19
48.57
51.22
49.45
48.82
56.66
79.26
118.86
172.01
230.27
282.93
320.68
338.17
334.82
313.7
279.65
237.55
191.63
145.39
101.96
64.09
34.1
13.5
2.67
0.62
5.03
12.71
20.3
25.28
26.56
24.61
20.91
16.97
13.58
10.47
6.57
0.6
-8.42
-20.75
-35.9
-52.68
-69.53
-84.72
-96.71
-104.43
-107.42
-105.73
-99.78
-90.2
-77.65
-62.83
-46.33
-28.37
-8.64
13.58
38.64
65.41
90.44
108.22
112.92
100.88
72.59
32.89
-10.85
-51.52
-84.57
-108.49
-123.7
-130.96
-130.47
-122.35
-107.87
-90.15
-73.59
-62.3
-58.35
-61.12
-67.98
-75.73
-82.04
-85.96
-87.61
-87.48
-85.87
-82.79
-78.14
-72
-64.81
-57.34
-50.55
-45.37
-42.44
-41.97
-43.55
-46.31
-49.16
-51.25
-52.35
-52.89
-53.85
-56.35
-61.18
-68.51
-77.8
-87.9
-97.32
-104.54
-108.31
-107.9
-103.26
-94.98
-84.09
-71.79
-59.2
-47.28
-36.88
-28.67
-23.16
-20.33
-19.5
-19.37
-18.36
-15.25
-9.61
-2.11
5.94
13.25
19.38
25.17
32.53
43.63
59.84
80.95
105.09
129.34
150.69
167.08
177.88
183.81
186.53
188.02
190.16
194.17
200.12
206.34
209.48
205.22
189.96
162.46
124.86
82.17
40.54
5.15
-21.23
-38.44
-47.98
-51.75
-51.23
-47.51
-41.69
-35.16
-29.55
-26.14
-25.44
-27.12
-30.39
-34.46
-38.98
-44.13
-50.4
-58.27
-67.81
-78.47
-88.97
-97.62
-102.8
-103.51
-99.86
-92.99
-84.57
-76.02
-67.81
-59.42
-49.91
-38.72
-26.35
-14.25
-4.17
2.83
6.91
9.37
11.93
15.86
21.59
28.74
36.75
45.33
54.64
65.11
76.99
90.07
103.68
117.07
129.56
140.43
148.47
151.64
147.39
133.63
110.12
79.24
45.67
14.71
-9.87
-27.25
-39.53
-50.16
-61.92
-75.37
-89.02
-100.51
-108.23
-112.21
-113.83
-114.72
-115.69
-116.47
-115.96
-113.3
-108.44
-102.36
-96.52
-92.08
-89.21
-86.93
-83.46
-77.04
-66.75
-53.12
-37.99
-23.85
-12.81
-5.63
-1.36
2.27
7.77
16.83
29.65
45.04
61.15
76.32
89.61
100.7
109.5
115.63
118.28
116.59
110.08
98.94
83.99
66.19
46.28
24.71
1.92
-21.15
-42.95
-61.47
-74.97
-82.55
-84.5
-82.12
-77.13
-71.08
-64.86
-58.72
-52.56
-46.2
-39.67
-33.29
-27.55
-22.94
-19.82
-18.35
-18.55
-20.29
-23.36
-27.36
-31.65
-35.36
-37.64
-37.87
-35.86
-31.67
-25.29
-16.14
-2.8
16.5
42.98
76.27
113.75
150.72
181.56
201.19
206.42
196.58
173.27
139.48
98.65
54.01
8.45
-35.29
-74.55
-106.89
-130.7
-145.79
-153.7
-157.27
-159.66
-163.15
-168.24
-173.56
-176.3
-173.17
-161.27
-138.75
-105.42
-63.02
-15.43
31.79
72.4
101.09
115.08
115.09
105.07
90.86
78.25
71.29
71.51
78.11
88.84
101.09
112.59
121.78
127.66
129.75
127.87
122.25
113.64
103.19
92.39
82.62
74.82
69.33
65.88
63.83
62.6
62.01
62.42
64.7
69.87
78.52
90.43
104.29
118.09
129.58
137.14
140.04
138.43
132.9
123.95
111.9
97.06
80.11
62.15
44.52
28.12
13.13
-1.12
-15.65
-31.22
-47.87
-64.82
-80.73
-94.23
-104.29
-110.47
-112.96
-112.34
-109.39
-104.81
-99.05
-92.33
-84.83
-76.84
-68.94
-61.8
-55.99
-51.8
-49.28
-48.38
-49.16
-51.74
-56.06
-61.67
-67.75
-73.35
-77.76
-80.76
-82.5
-83.22
-82.94
-81.36
-78.02
-72.66
-65.35
-56.47
-46.59
-36.2
-25.65
-14.97
-3.79
8.68
23.47
41.41
62.47
85.41
107.86
126.99
140.41
146.94
146.85
141.47
132.5
121.32
108.73
95.08
80.52
65.37
50.18
35.65
22.38
10.77
0.84
-7.61
-14.95
-21.45
-27.21
-32.14
-36.12
-39.13
-41.3
-42.84
-43.78
-43.96
-43.12
-41.28
-39.02
-37.48
-38.01
-41.47
-47.73
-55.64
-63.48
-69.74
-73.7
-75.53
-75.95
-75.63
-74.68
-72.57
-68.38
-61.18
-50.58
-36.79
-20.7
-3.57
13.24
28.53
41.46
51.48
58.35
62.03
62.6
60.36
55.78
49.49
42.2
34.54
26.88
19.35
11.81
4.11
-3.79
-11.61
-18.86
-24.93
-29.39
-32.16
-33.48
-33.72
-33.19
-31.93
-29.81
-26.74
-22.93
-18.96
-15.74
-14.1
-14.43
-16.43
-19.08
-20.89
-20.38
-16.54
-9.23
0.8
12.22
23.51
33.33
40.8
45.46
47.21
46.18
42.67
37.19
30.44
23.21
16.29
10.21
5.19
1.2
-1.93
-4.31
-5.89
-6.51
-6.1
-4.8
-3.05
-1.48
-0.6
-0.59
-1.18
-1.93
-2.43
-2.64
-2.81
-3.4
-4.75
-6.88
-9.45
-11.76
-12.93
-12.03
-8.33
-1.65
7.37
17.19
25.7
30.92
31.76
28.4
22.31
15.65
10.5
8.21
8.98
11.87
15.08
16.44
14.18
7.58
-2.66
-14.56
-25.5
-33.3
-37.03
-37.35
-36.07
-35.35
-36.88
-41.37
-48.52
-57.33
-66.36
-74.09
-79.18
-80.88
-79.34
-75.75
-72.13
-70.53
-72.26
-77.26
-84.01
-90.12
-93.23
-91.84
-85.73
-75.78
-63.45
-50.27
-37.43
-25.75
-15.76
-7.84
-2.2
1.22
2.8
3.19
3.2
3.6
4.9
7.3
10.78
15.14
20.17
25.64
31.3
36.81
41.76
45.6
47.87
48.23
46.57
43.07
38.16
32.44
26.44
20.53
14.78
8.88
2.37
-5.19
-13.91
-23.31
-32.3
-39.38
-43.03
-42.23
-36.78
-27.45
-15.7
-3.33
8.02
17.22
23.72
27.53
28.91
28.32
26.11
22.59
18.02
12.71
7.11
1.83
-2.43
-5.05
-5.72
-4.53
-1.93
1.5
5.28
9.22
13.34
17.75
22.45
27.21
31.66
35.36
37.93
39.02
38.28
35.4
30.23
22.97
14.41
5.91
-0.83
-4.22
-3.32
1.78
10
19.52
28.4
35.09
38.82
39.53
37.7
33.98
29.01
23.24
17.08
10.99
5.47
1.06
-1.79
-2.83
-2.11
0
2.76
5.27
6.66
6.39
4.51
1.68
-1.04
-2.55
-2.16
0.22
4.04
8.37
12.07
14.18
14.07
11.58
6.96
0.81
-6.21
-13.51
-20.63
-27.08
-32.19
-34.94
-34.17
-29.03
-19.47
-6.62
7.4
19.98
28.94
33.12
32.72
29.04
23.9
19.02
15.68
14.51
15.6
18.57
22.6
26.44
28.52
27.4
22.39
14.09
4.39
-4.47
-11.18
-16.49
-23.09
-34.3
-51.92
-74.52
-97.21
-113.19
-116.46
-104.23
-77.81
-41.71
-1.52
38.1
74.39
106.18
132.91
153.98
168.76
177.16
180.31
180.61
181.08
184.08
190.37
198.73
206.53
211.03
210.45
204.49
194.16
180.9
165.83
149.46
131.84
112.85
92.49
70.87
48.19
24.88
1.76
-19.84
-38.42
-52.88
-63.15
-70.21
-75.58
-80.41
-84.78
-87.91
-88.89
-87.64
-85.3
-83.75
-84.71
-88.9
-95.85
-104.29
-112.84
-120.63
-127.27
-132.57
-136.08
-136.89
-133.87
-126.25
-114.09
-98.53
-81.42
-64.72
-49.83
-37.25
-26.6
-17.14
-8.25
0.25
7.96
14.22
18.38
20.1
19.39
16.69
12.73
8.4
4.61
2.05
1.01
1.28
2.19
2.87
2.5
0.57
-3
-7.92
-13.79
-20.21
-26.87
-33.6
-40.24
-46.72
-53.05
-59.34
-65.53
-71.32
-76.13
-79
-78.8
-74.57
-66.01
-53.84
-39.69
-25.52
-13.15
-3.85
1.87
4.24
4.04
2.33
0.04
-2.14
-3.44
-3.4
-2.01
0.4
3.51
7.2
11.58
16.61
21.96
28.18
35.59
43.81
51.59
57.39
60.04
58.92
53.89
45.4
36.93
32.12
32.81
37.97
44.68
50.06
52.47
51.81
49.29
50.72
61.21
82.14
109.89
138.18
161.5
176.61
182.7
181.07
180.13
189.17
214.53
257.01
313.37
379.2
450.34
523.11
561.57
538.87
450
316.65
170.2
33.89
-80.72
-169.54
-232.71
-273.51
-292.57
-292.12
-276.97
-254.4
-231.42
-212.42
-199.09
-191.63
-190.26
-190.34
-187.16
-178.6
-166.21
-153.39
-142.69
-134.63
-128.25
-122.07
-112.8
-98.28
-78.82
-57.37
-37.71
-22.61
-13.27
-10.07
-10.19
-10.52
-8.1
-0.92
11.45
28.01
46.71
64.84
79.53
88.5
90.8
87.03
78.91
68.47
57.45
46.83
36.61
25.88
13.26
-2.65
-22.27
-44.77
-68.3
-90.52
-109.24
-122.83
-130.35
-131.63
-127.4
-119.19
-109.15
-99.68
-92.86
-89.87
-90.66
-94.13
-98.57
-102.18
-103.31
-100.62
-93.27
-81.22
-65.52
-48.3
-32.27
-19.81
-12.15
-8.92
-8.46
-8.65
-7.81
-5.3
-1.52
2.55
5.81
7.54
7.44
5.58
2.18
-2.6
-8.68
-16.02
-24.45
-33.61
-42.85
-51.33
-58.23
-62.89
-65.08
-65.07
-63.58
-61.57
-59.84
-58.68
-57.68
-55.95
-52.53
-46.99
-39.69
-31.63
-24.07
-17.87
-13.28
-9.96
-7.34
-4.93
-2.5
0.07
2.91
6.24
10.19
14.58
18.77
21.85
22.88
21.29
17.1
10.88
3.54
-3.86
-10.39
-15.36
-18.5
-19.94
-20.32
-20.67
-21.95
-24.68
-28.57
-32.41
-34.46
-33.1
-27.47
-17.82
-5.42
7.91
20.42
30.91
38.85
44.18
47.06
47.6
45.89
42.06
36.54
30.08
23.64
18.18
14.35
12.28
11.6
11.61
11.57
10.94
9.47
7.24
4.5
1.53
-1.45
-4.34
-7.16
-10.05
-13.23
-17.07
-21.96
-28.06
-35.1
-42.15
-47.68
-49.96
-47.63
-40.22
-28.43
-13.88
1.4
15.55
27.36
36.34
42.61
46.54
48.51
48.7
47.22
44.17
39.8
34.59
29.18
24.26
20.25
17.23
14.98
13.08
11.2
9.16
6.96
4.6
2.01
-1.03
-4.69
-9.04
-13.97
-19.34
-25.06
-31.25
-38.08
-45.49
-52.86
-58.95
-62.09
-60.73
-54.06
-42.43
-27.26
-10.69
5.17
18.79
29.52
37.4
42.83
46.2
47.78
47.76
46.34
43.87
40.76
37.37
33.98
30.7
27.59
24.62
21.72
18.84
15.92
12.94
9.96
7.02
4.06
0.92
-2.61
-6.72
-11.48
-16.85
-22.74
-29.08
-35.75
-42.44
-48.42
-52.55
-53.56
-50.36
-42.52
-30.5
-15.52
0.7
16.39
30.11
40.92
48.45
52.83
54.52
54.16
52.43
49.93
47.13
44.32
41.65
39.12
36.7
34.34
32.07
29.92
27.88
25.85
23.67
21.12
18.07
14.52
10.54
6.28
1.85
-2.66
-7.2
-11.78
-16.44
-21.42
-26.97
-33.24
-39.93
-46.13
-50.36
-50.93
-46.6
-37.09
-23.28
-7.03
9.48
24.29
36.12
44.47
49.41
51.35
50.85
48.6
45.44
42.27
39.82
38.42
37.8
37.28
36.07
33.69
30.23
26.24
22.47
19.38
17.04
15.08
12.97
10.33
7.03
3.23
-0.84
-4.95
-9.06
-13.25
-17.72
-22.7
-28.36
-34.7
-41.51
-48.19
-53.8
-57.15
-57.08
-52.81
-44.19
-31.88
-17.22
-1.95
12.2
23.89
32.39
37.66
40.14
40.6
39.84
38.47
36.86
35.14
33.29
31.23
28.96
26.57
24.2
22.03
20.15
18.54
17.08
15.53
13.65
11.22
8.09
4.26
-0.18
-4.96
-9.77
-14.27
-18.31
-21.92
-25.47
-29.48
-34.4
-40.26
-46.45
-51.66
-54.26
-52.77
-46.42
-35.54
-21.43
-6.07
8.57
21
30.47
36.89
40.64
42.21
42.11
40.81
38.71
36.22
33.67
31.28
29.07
26.99
24.89
22.7
20.4
18.11
16.01
14.25
12.88
11.78
10.59
8.88
6.28
2.67
-1.7
-6.28
-10.48
-13.9
-16.54
-18.8
-21.36
-24.83
-29.55
-35.4
-41.73
-47.45
-51.2
-51.66
-47.95
-39.96
-28.48
-14.97
-1.23
11.18
21.27
28.72
33.69
36.6
37.84
37.67
36.36
34.23
31.66
29.09
26.83
25
23.52
22.21
20.89
19.45
17.9
16.36
14.94
13.73
12.65
11.54
10.13
8.12
5.36
1.83
-2.29
-6.68
-10.99
-14.96
-18.48
-21.71
-25.01
-28.8
-33.35
-38.6
-43.98
-48.44
-50.67
-49.5
-44.27
-35.17
-23.16
-9.69
3.63
15.49
25.07
32
36.34
38.36
38.42
36.99
34.55
31.63
28.73
26.19
24.21
22.74
21.58
20.48
19.2
17.64
15.85
13.99
12.28
10.87
9.76
8.76
7.5
5.59
2.76
-0.97
-5.29
-9.66
-13.6
-16.82
-19.39
-21.72
-24.36
-27.84
-32.38
-37.77
-43.31
-47.89
-50.2
-49.16
-44.21
-35.57
-24.2
-11.51
0.97
12.01
20.87
27.23
31.16
32.9
32.77
31.18
28.59
25.46
22.21
19.17
16.49
14.25
12.4
10.9
9.69
8.73
7.96
7.28
6.57
5.65
4.36
2.53
0.12
-2.81
-6.08
-9.41
-12.52
-15.21
-17.46
-19.43
-21.4
-23.74
-26.68
-30.2
-33.88
-36.89
-38.16
-36.64
-31.75
-23.55
-12.87
-1.02
10.52
20.54
28.34
33.72
36.86
38.09
37.73
36.06
33.4
30.17
26.85
23.85
21.37
19.35
17.58
15.81
13.94
12.06
10.37
9.07
8.18
7.52
6.76
5.53
3.61
0.94
-2.33
-5.97
-9.75
-13.49
-17.13
-20.67
-24.12
-27.57
-31.07
-34.72
-38.53
-42.34
-45.63
-47.54
-47.03
-43.19
-35.7
-25.01
-12.3
0.8
12.69
22.2
28.79
32.53
33.85
33.41
31.8
29.56
27.06
24.58
22.28
20.2
18.29
16.44
14.55
12.61
10.67
8.92
7.5
6.47
5.71
4.92
3.68
1.68
-1.2
-4.82
-8.81
-12.73
-16.26
-19.33
-22.13
-25.08
-28.61
-32.94
-37.83
-42.49
-45.73
-46.25
-43.11
-36.07
-25.75
-13.43
-0.7
10.97
20.58
27.65
32.15
34.33
34.59
33.37
31.18
28.57
26
23.82
22.11
20.73
19.39
17.84
15.97
13.91
11.93
10.25
8.88
7.6
6.04
3.85
0.88
-2.74
-6.72
-10.75
-14.57
-18.08
-21.27
-24.23
-27.14
-30.25
-33.86
-38.09
-42.72
-46.99
-49.71
-49.58
-45.67
-37.87
-26.98
-14.52
-2.23
8.39
16.48
21.85
24.88
26.18
26.38
25.94
25.11
23.96
22.48
20.71
18.7
16.63
14.67
13.01
11.75
10.9
10.34
9.85
9.16
7.94
5.99
3.19
-0.31
-4.29
-8.39
-12.31
-15.85
-18.98
-21.91
-25
-28.63
-32.99
-37.81
-42.3
-45.2
-45.2
-41.37
-33.61
-22.73
-10.23
2.16
12.97
21.34
27.05
30.33
31.65
31.43
30.02
27.69
24.73
21.45
18.21
15.3
12.98
11.35
10.38
9.96
9.82
9.65
9.11
7.87
5.75
2.77
-0.84
-4.68
-8.31
-11.48
-14.11
-16.47
-19.06
-22.42
-26.95
-32.58
-38.64
-43.84
-46.58
-45.4
-39.51
-29.16
-15.63
-0.9
12.87
23.95
31.45
35.32
36.18
35
32.72
30.1
27.59
25.41
23.57
21.95
20.37
18.69
16.85
14.91
13.05
11.45
10.16
9.05
7.79
6
3.43
0.05
-3.9
-8.06
-12.11
-15.86
-19.39
-22.91
-26.67
-30.89
-35.63
-40.73
-45.69
-49.64
-51.44
-49.95
-44.44
-34.95
-22.39
-8.35
5.32
17.06
25.95
31.82
35.04
36.3
36.25
35.44
34.18
32.68
31.01
29.19
27.29
25.34
23.44
21.7
20.2
18.98
17.94
16.92
15.64
13.83
11.29
7.94
3.9
-0.56
-5.07
-9.32
-13.12
-16.5
-19.73
-23.2
-27.31
-32.28
-37.99
-43.79
-48.57
-50.94
-49.6
-43.88
-34.01
-21.15
-7.08
6.36
17.8
26.63
32.94
37.18
39.78
40.97
40.8
39.3
36.71
33.51
30.34
27.72
25.87
24.66
23.71
22.61
21.15
19.36
17.43
15.57
13.84
12.09
10.02
7.31
3.79
-0.47
-5.2
-9.97
-14.38
-18.18
-21.35
-24.17
-27.04
-30.43
-34.6
-39.53
-44.77
-49.44
-52.42
-52.53
-48.9
-41.28
-30.17
-16.74
-2.62
10.56
21.55
29.69
34.9
37.52
38.07
37.11
35.14
32.62
29.98
27.58
25.7
24.43
23.67
23.13
22.45
21.35
19.75
17.77
15.72
13.87
12.32
10.96
9.46
7.45
4.63
0.91
-3.58
-8.5
-13.39
-17.81
-21.44
-24.22
-26.34
-28.26
-30.54
-33.64
-37.73
-42.57
-47.48
-51.41
-53.15
-51.62
-46.2
-36.95
-24.74
-11.02
2.57
14.62
24.26
31.27
35.87
38.46
39.46
39.23
38.09
36.4
34.52
32.82
31.5
30.61
30.07
29.66
29.16
28.44
27.46
26.28
24.98
23.64
22.23
20.7
18.94
16.89
14.57
11.94
8.97
5.51
1.45
-3.22
-8.36
-13.63
-18.68
-23.17
-27.01
-30.27
-33.22
-36.19
-39.54
-43.51
-48.16
-53.22
-58.09
-61.82
-63.26
-61.45
-55.81
-46.49
-34.38
-20.86
-7.54
4.17
13.34
19.6
23.12
24.36
23.93
22.39
20.24
17.91
15.78
14.18
13.32
13.25
13.82
14.77
15.79
16.68
17.35
17.88
18.36
18.82
19.1
18.95
18.13
16.61
14.64
12.66
11.23
10.71
11.11
11.99
12.65
12.3
10.33
6.59
1.34
-4.78
-10.96
-16.51
-20.97
-24.3
-26.78
-28.94
-31.32
-34.23
-37.59
-40.76
-42.72
-42.28
-38.48
-31.04
-20.45
-7.96
4.83
16.44
25.87
32.75
37.21
39.6
40.24
39.37
37.19
34.01
30.32
26.72
23.77
21.79
20.81
20.56
20.67
20.82
20.84
20.79
20.85
21.21
21.91
22.77
23.41
23.36
22.3
20.06
16.72
12.47
7.51
1.97
-4.05
-10.41
-16.88
-23.18
-29.04
-34.38
-39.27
-43.88
-48.35
-52.76
-57.06
-61.2
-65.01
-68.18
-70.18
-70.17
-67.29
-60.9
-50.97
-38.22
-23.86
-9.31
4.25
16.03
25.59
32.7
37.22
39.15
38.72
36.49
33.27
29.88
26.93
24.64
22.85
21.24
19.51
17.54
15.45
13.42
11.6
9.98
8.39
6.49
4
0.76
-3.18
-7.54
-11.99
-16.2
-20.01
-23.4
-26.44
-29.23
-31.89
-34.58
-37.53
-40.91
-44.72
-48.58
-51.64
-52.74
-50.83
-45.35
-36.57
-25.56
-13.84
-2.96
6
12.64
17.2
20.31
22.7
24.93
27.2
29.41
31.24
32.4
32.81
32.64
32.25
32.01
32.13
32.61
33.32
34.03
34.49
34.38
33.28
30.72
26.35
20.11
12.4
4.01
-4.17
-11.38
-17.27
-21.88
-25.55
-28.69
-31.68
-34.78
-38.16
-41.9
-45.89
-49.72
-52.67
-53.77
-52.08
-46.98
-38.49
-27.31
-14.77
-2.39
8.44
16.81
22.4
25.42
26.33
25.71
24
21.54
18.54
15.3
12.12
9.37
7.37
6.35
6.35
7.27
8.83
10.74
12.75
14.64
16.22
17.32
17.82
17.5
16.11
13.32
8.97
3.19
-3.56
-10.64
-17.35
-23.13
-27.82
-31.79
-35.63
-39.57
-43.12
-45.02
-43.76
-38.11
-27.44
-11.97
7.03
27.59
47.41
64.49
77.5
85.9
90.32
92.78
96.11
103.01
115.22
132.82
154.51
177.89
198.55
210.89
211.52
201.94
187.48
173.84
164.32
158.95
156.2
154.73
153.88
153.51
153.31
151.85
149.44
145.04
137.81
127.71
115.43
102.23
89.61
78.65
69.5
61.38
52.77
42.52
30.28
16.52
2.26
-11.27
-23.25
-33.71
-43.57
-54.44
-67.66
-83.76
-102.39
-122.53
-142.87
-162.41
-180.93
-198.97
-217.77
-238.61
-262.45
-289.63
-319.67
-350.98
-380.97
-406.41
-424.24
-432.44
-430.51
-419.46
-401.25
-378.02
-351.47
-322.64
-292.14
-260.48
-228.34
-196.69
-166.76
-139.98
-117.7
-100.77
-89.07
-81.18
-74.7
-67.12
-56.82
-43.73
-28.97
-13.92
0.93
16.29
33.41
52.76
72.99
91.08
103.59
108.45
106.14
99.49
92.27
87.32
85.31
84.85
83.72
80.38
74.85
68.53
63.16
59.72
57.91
56.36
53.4
47.98
40.02
30.38
20.3
10.84
2.39
-5.4
-13.31
-22.07
-31.84
-41.89
-50.76
-56.7
-58.2
-54.57
-46.05
-33.66
-18.84
-2.99
12.73
27.51
40.78
52.15
61.35
68.19
72.62
74.71
74.64
72.75
69.46
65.28
60.76
56.43
52.69
49.79
47.7
46.15
44.69
42.79
40.02
36.18
31.33
25.71
19.66
13.47
7.29
1.11
-5.26
-12.17
-19.93
-28.73
-38.25
-47.51
-54.87
-58.35
-56.26
-47.84
-33.59
-15.16
5.14
25.07
42.9
57.68
69.08
77.19
82.24
84.55
84.51
82.57
79.23
75.07
70.62
66.35
62.62
59.64
57.47
55.98
54.9
53.8
52.17
49.47
45.23
39.14
31.2
21.74
11.35
0.76
-9.35
-18.57
-26.82
-34.37
-41.72
-49.38
-57.55
-65.86
-73.2
-77.94
-78.36
-73.29
-62.55
-47.12
-28.81
-9.76
8.13
23.57
35.91
45.09
51.35
55.2
57.21
57.95
57.87
57.16
55.82
53.68
50.67
46.97
43.01
39.39
36.67
35.17
34.87
35.43
36.34
37.07
37.21
36.43
34.48
31.12
26.15
19.56
11.66
3.08
-5.33
-12.85
-19.16
-24.55
-29.7
-35.42
-42.13
-49.51
-56.52
-61.53
-62.85
-59.28
-50.44
-36.92
-20.16
-2.01
15.69
31.48
44.47
54.25
60.82
64.44
65.59
64.9
63.12
61
59.11
57.74
56.84
56.06
54.95
53.21
50.83
48.16
45.76
44.15
43.49
43.45
43.28
42.09
39.14
34.2
27.59
19.99
12.26
5.03
-1.39
-7.19
-12.93
-19.35
-27.11
-36.43
-46.88
-57.19
-65.45
-69.59
-67.94
-59.77
-45.64
-27.15
-6.56
13.84
32.19
47.29
58.59
66.03
69.87
70.61
68.94
65.73
61.86
58.11
54.97
52.58
50.78
49.23
47.62
45.76
43.67
41.51
39.42
37.43
35.32
32.7
29.07
24.1
17.78
10.45
2.73
-4.67
-11.31
-17.09
-22.26
-27.36
-32.92
-39.26
-46.34
-53.63
-60.12
-64.45
-65.11
-60.9
-51.31
-36.82
-18.9
0.35
18.74
34.51
46.66
54.87
59.36
60.44
58.37
53.36
45.7
35.91
24.8
13.39
2.71
-6.42
-13.47
-18.24
-20.73
-21.09
-19.54
-16.36
-11.92
-6.75
-1.5
3.08
6.31
7.72
7.17
4.89
1.39
-2.76
-7.16
-11.77
-16.86
-22.81
-29.95
-38.26
-47.27
-56.07
-63.36
-67.69
-67.78
-62.85
-52.93
-38.94
-22.52
-5.66
9.8
22.51
31.84
37.76
40.7
41.21
39.89
37.25
33.78
29.98
26.3
23.16
20.79
19.21
18.18
17.37
16.5
15.47
14.37
13.36
12.45
11.4
9.81
7.23
3.44
-1.48
-7.1
-12.92
-18.51
-23.68
-28.52
-33.27
-38.25
-43.68
-49.64
-56
-62.3
-67.81
-71.47
-72.17
-68.99
-61.6
-50.4
-36.56
-21.76
-7.78
3.8
12
16.43
17.28
15.08
10.65
5.16
0.1
-2.81
-2.09
2.98
11.94
23.21
34.71
44.68
52.32
57.89
62.22
65.99
69.26
71.55
72.32
71.65
70.46
70.6
74.38
84.06
101.17
125.86
156.4
189.17
219.45
242.81
256.63
260.9
258.05
251.73
245.25
240.45
237.53
235.61
233.67
231.05
227.39
222.21
214.52
202.96
186.23
163.68
135.69
103.4
68.45
32.47
-2.91
-36.18
-65.82
-90.64
-110.15
-125.07
-137.35
-149.7
-164.69
-183.9
-207.4
-233.72
-260.24
-283.83
-301.48
-310.91
-311.11
-302.65
-287.5
-268.55
-248.71
-230.11
-213.79
-199.65
-186.91
-174.45
-161.14
-146.03
-128.51
-108.74
-87.81
-67.76
-50.88
-38.9
-32.34
-30.34
-31.12
-32.68
-33.42
-32.23
-28.29
-20.84
-9.24
6.62
25.89
46.54
65.8
81.11
91.19
96.59
99.51
102.78
108.58
117.51
128.47
139.23
147.55
152.09
152.73
150.37
146.52
142.99
141.78
144.9
153.84
168.82
188.22
208.64
225.87
236.35
238.33
232.2
219.9
203.72
185.42
165.84
145.2
123.65
101.56
79.41
57.42
35.29
12.09
-13.37
-42.1
-74.3
-109.03
-144.09
-176.49
-203.29
-222.48
-233.69
-238.21
-238.4
-236.77
-235.06
-233.96
-233.23
-232.26
-230.54
-227.92
-224.48
-220.38
-215.65
-210.25
-204.22
-197.76
-191.26
-185.27
-180.29
-176.82
-175.3
-176.18
-179.99
-187.24
-198.31
-213.16
-231.04
-250.31
-268.47
-282.68
-290.4
-289.97
-280.95
-263.99
-240.52
-212.41
-181.68
-150.49
-120.95
-94.9
-73.48
-56.84
-44.15
-33.97
-24.96
-16.42
-8.52
-2.07
2.09
3.61
3.01
1.68
1.53
4.45
11.76
23.81
39.93
58.65
78.1
96.45
112.32
124.94
134.17
140.38
144.12
145.87
145.81
143.8
139.49
132.65
123.35
112.06
99.65
87.16
75.61
65.78
58
52.03
46.99
41.62
34.67
25.3
13.46
-0.19
-14.55
-28.54
-41.45
-53.14
-64
-74.6
-85.44
-96.55
-107.36
-116.55
-122.36
-122.91
-116.77
-103.41
-83.4
-58.34
-30.57
-2.71
22.75
43.88
59.59
69.78
75.23
77.25
77.25
76.27
74.74
72.59
69.49
65.27
60.06
54.31
48.59
43.27
38.42
33.78
28.89
23.33
16.91
9.71
1.99
-5.9
-13.77
-21.54
-29.33
-37.31
-45.74
-54.86
-64.84
-75.57
-86.45
-96.24
-103.05
-104.75
-99.61
-86.98
-67.66
-43.84
-18.42
5.81
26.95
44.17
57.59
67.69
74.9
79.4
81.25
80.7
78.3
74.85
71.1
67.44
63.79
59.74
54.86
48.99
42.36
35.49
28.89
22.83
17.17
11.41
4.99
-2.53
-11.14
-20.33
-29.26
-37.03
-43.12
-47.68
-51.43
-55.36
-60.03
-65.05
-69.01
-69.85
-65.42
-54.2
-35.56
-9.79
22.09
58.34
96.57
133.89
167.21
193.87
212.32
222.4
225.1
221.97
214.42
203.41
189.52
173.28
155.42
136.88
118.6
101.23
85.16
70.43
56.94
44.45
32.64
21.23
10.02
-0.93
-11.27
-20.52
-28.29
-34.48
-39.43
-43.82
-48.58
-54.57
-62.18
-71.03
-79.68
-85.77
-86.61
-80.11
-65.64
-44.46
-19.46
5.78
27.93
44.68
55.02
58.94
57.16
50.81
41.27
30.04
18.57
8.09
-0.57
-6.89
-10.71
-12.06
-11.26
-8.94
-6.01
-3.44
-1.97
-1.79
-2.61
-3.94
-5.48
-7.46
-10.44
-14.95
-21.1
-28.45
-36.39
-44.51
-52.84
-61.64
-70.78
-79.32
-85.4
-86.72
-81.36
-68.54
-48.87
-24.2
2.92
29.82
54.21
74.4
89.53
99.53
105.08
107.33
107.55
106.72
105.28
103.19
100.03
95.43
89.25
81.72
73.31
64.52
55.73
47.15
38.86
30.89
23.25
15.87
8.46
0.53
-8.49
-19.13
-31.65
-45.98
-61.63
-77.69
-92.73
-104.98
-112.45
-113.44
-107.07
-93.62
-74.57
-52.14
-28.66
-5.93
15.01
33.76
50.12
63.77
74.21
80.96
84
83.9
81.8
78.92
76.11
73.42
70.23
65.63
59
50.33
40.24
29.66
19.43
10.03
1.64
-5.7
-11.88
-16.78
-20.43
-23.25
-25.99
-29.59
-34.85
-42.1
-51.05
-60.69
-69.48
-75.55
-77.12
-72.94
-62.63
-46.9
-27.37
-6.15
14.63
33.31
48.87
60.91
69.43
74.66
76.91
76.58
74.12
70.04
64.76
58.56
51.54
43.69
35.08
25.96
16.81
8.28
0.93
-5.01
-9.74
-13.83
-18
-22.87
-28.78
-35.77
-43.65
-52.16
-61.06
-70.3
-79.96
-90.1
-100.58
-110.79
-119.55
-125.24
-126.12
-120.86
-108.98
-91.1
-68.92
-44.87
-21.62
-1.54
13.85
24.07
29.74
32.25
33.26
34.33
36.78
41.79
50.45
63.6
81.36
102.65
125.01
144.97
159
164.46
160.38
147.38
127.15
101.68
72.84
42.24
11.7
-16.44
-39.23
-53.74
-57.97
-51.84
-37.63
-19.44
-1.93
11.29
18.72
21
20.19
18.42
17.07
16.56
16.75
17.66
19.66
23.32
28.8
35.43
41.66
45.7
46.21
42.91
36.71
29.3
22.44
17.34
14.43
13.32
13.17
12.97
11.75
8.64
3
-5.31
-15.84
-27.39
-38.36
-47.23
-53.15
-56.26
-57.66
-58.87
-61.35
-65.98
-72.89
-81.42
-90.2
-97.42
-101.07
-99.37
-91.31
-76.99
-57.79
-36
-14.27
5.15
20.87
32.45
40.13
44.36
45.44
43.44
38.35
30.42
20.35
9.3
-1.46
-10.83
-18.2
-23.47
-26.9
-28.94
-30.03
-30.63
-31.22
-32.31
-34.34
-37.57
-41.93
-46.99
-52.11
-56.64
-60.18
-62.75
-64.76
-66.86
-69.61
-73.07
-76.61
-78.88
-78.17
-73.03
-62.83
-48.06
-30.21
-11.21
7.12
23.54
37.43
48.59
56.9
62.21
64.39
63.59
60.43
55.91
51.14
47
43.84
41.51
39.57
37.58
35.29
32.63
29.59
26.12
22.06
17.2
11.42
4.77
-2.56
-10.39
-18.59
-27.1
-35.9
-44.91
-53.99
-62.94
-71.51
-79.3
-85.64
-89.57
-89.88
-85.54
-76.05
-61.84
-44.22
-25.09
-6.38
10.42
24.44
35.46
43.55
48.84
51.42
51.32
48.67
43.83
37.43
30.2
22.94
16.31
10.72
6.25
2.7
-0.41
-3.58
-7.26
-11.62
-16.58
-21.87
-27.16
-32.27
-37.21
-42.2
-47.58
-53.69
-60.78
-68.89
-77.64
-86.12
-92.85
-96.02
-93.9
-85.33
-70.14
-49.24
-24.46
1.87
27.43
50.28
69.16
83.49
93.25
98.79
100.65
99.42
95.77
90.42
84.14
77.66
71.55
66.04
61.07
56.4
51.74
46.91
41.86
36.64
31.35
26.11
20.93
15.75
10.42
4.68
-1.73
-9.04
-17.34
-26.51
-36.04
-44.97
-51.83
-55
-53.09
-45.5
-32.73
-16.38
1.33
18.18
32.56
43.67
51.47
56.28
58.53
58.5
56.42
52.55
47.3
41.2
34.86
28.84
23.56
19.22
15.81
13.16
11.01
9.17
7.51
5.98
4.6
3.35
2.13
0.74
-1.1
-3.7
-7.25
-11.75
-16.89
-21.96
-25.88
-27.25
-24.69
-17.1
-4.15
13.56
34.31
55.71
75.18
90.58
100.71
105.33
105.02
100.7
93.32
83.7
72.61
60.83
49.17
38.33
28.74
20.37
12.83
5.58
-1.85
-9.58
-17.4
-24.85
-31.46
-36.98
-41.44
-45.2
-48.81
-52.88
-57.83
-63.82
-70.71
-78.05
-85.17
-91.18
-95.07
-95.89
-92.92
-85.96
-75.42
-62.24
-47.72
-33.1
-19.38
-7.28
2.72
10.19
14.76
16.15
14.41
10.03
3.89
-2.89
-9.26
-14.49
-18.27
-20.71
-22.17
-23.07
-23.69
-24.17
-24.46
-24.49
-24.29
-24.1
-24.38
-25.77
-28.83
-33.97
-41.2
-49.97
-59.16
-67.09
-71.89
-71.91
-66.24
-55.03
-39.61
-22.13
-4.99
9.75
20.77
27.65
30.74
30.85
28.91
25.79
22.1
18.22
14.26
10.1
5.49
0.13
-6.1
-12.98
-19.82
-25.57
-29.14
-29.9
-28.07
-24.81
-21.93
-21.31
-24.28
-31.19
-41.38
-53.46
-65.74
-76.5
-84.19
-87.46
-85.24
-76.98
-62.91
-44.24
-22.99
-1.61
17.82
34.04
46.84
56.72
64.37
70.17
74.13
76.04
75.82
73.79
70.51
66.57
62.31
57.7
52.49
46.4
39.28
31.15
22.21
12.76
3.17
-6.16
-14.88
-22.83
-30.08
-36.9
-43.66
-50.6
-57.66
-64.4
-69.9
-72.91
-71.97
-65.89
-54.06
-36.91
-15.96
6.47
27.84
46.01
59.67
68.37
72.4
72.35
68.96
62.97
55.17
46.36
37.25
28.38
20
12.15
4.89
-1.52
-6.63
-9.97
-11.38
-11.19
-10.25
-9.63
-10.27
-12.7
-16.97
-22.81
-29.78
-37.33
-44.68
-50.65
-53.7
-52.23
-45.15
-32.39
-15.05
4.83
24.9
43.03
57.64
67.59
72.02
70.24
61.95
47.53
28.32
6.52
-15.28
-34.83
-50.66
-62.4
-70.59
-76.24
-80.41
-83.94
-87.25
-90.45
-93.3
-95.34
-95.91
-94.42
-90.43
-83.99
-75.8
-67.05
-59.06
-52.75
-48.14
-44.27
-39.55
-32.37
-21.71
-7.46
9.88
29.47
50.64
72.86
95.47
117.31
136.66
151.55
160.42
162.81
159.67
153.09
145.51
138.77
133.56
129.3
124.68
118.37
109.67
98.63
85.81
71.97
57.88
44.52
33.15
25.32
22.16
23.63
28.13
32.97
35.61
35.01
32.36
30.63
33.19
42.24
57.92
78.42
100.8
122.09
139.96
153.09
161.11
164.62
164.99
164.03
163.42
164.05
165.8
167.66
168.5
167.83
166.41
166.27
170.16
180.5
198.28
222.24
248.86
273.17
290.17
296.34
290.57
274.17
250.1
221.77
192.08
163.06
136.03
111.96
91.65
75.56
63.5
54.52
47.16
40.09
32.72
25.5
19.69
16.76
17.58
21.87
28.29
34.85
39.81
42.21
42.16
40.47
38.06
35.33
31.83
26.42
17.71
4.74
-12.63
-33.63
-56.99
-81.41
-106.13
-131.12
-156.94
-184.42
-214.44
-247.64
-284.2
-323.38
-363.05
-399.66
-428.84
-446.77
-451.51
-443.86
-426.98
-404.84
-380.6
-355.48
-328.96
-299.89
-267.85
-233.82
-200.02
-169.03
-142.95
-122.81
-108.61
-99.63
-94.88
-93.46
-94.64
-97.78
-102.4
-108.23
-115.24
-123.62
-133.6
-145.25
-158.35
-172.24
-185.86
-197.57
-205.28
-206.68
-200
-184.83
-162.81
-137.47
-113.04
-92.65
-76.98
-64.25
-51.56
-37.03
-20.93
-5.31
7.57
16.83
23.38
28.94
34.36
38.6
39.23
34.17
23.5
10.22
-0.85
-5.22
-0.72
11.86
29.8
50.23
71.48
93.01
114.11
132.37
143.53
142.81
127.64
99.75
65.5
33.66
11.96
4.12
8.93
21.65
36.7
50.07
60.19
67.4
72.48
75.76
77.05
76.27
74.17
72.27
72.22
74.57
78.26
80.79
79.45
72.61
60.44
44.72
28.02
12.74
0.45
-8.18
-13.14
-14.77
-13.6
-10.09
-4.47
3.53
14.45
28.6
45.39
63.04
79.07
91.33
99.1
103.43
106.42
109.96
114.7
119.81
123.61
124.62
122.32
117.26
110.64
103.62
96.92
90.6
84.17
76.87
67.91
56.87
43.98
30.11
16.58
4.66
-4.84
-11.88
-17.04
-21.02
-24.38
-27.41
-30.29
-33.49
-37.79
-44.03
-52.75
-63.86
-76.68
-90.27
-103.78
-116.61
-128.22
-137.88
-144.53
-147.05
-144.71
-137.65
-126.88
-113.91
-100.19
-86.69
-74.01
-62.59
-52.98
-45.73
-41.15
-39.07
-38.74
-39.11
-39.26
-38.59
-36.89
-34.22
-30.73
-26.64
-22.38
-18.53
-15.74
-14.41
-14.47
-15.32
-16.11
-16.04
-14.61
-11.71
-7.47
-2.25
3.48
9.02
13.59
16.48
17.28
16.12
13.57
10.49
7.55
5.08
3.03
1.2
-0.45
-1.63
-1.79
-0.42
2.68
7.22
12.53
17.78
22.22
25.29
26.68
26.21
23.82
19.68
14.2
8.13
2.34
-2.37
-5.64
-7.65
-9.11
-10.89
-13.65
-17.48
-21.86
-25.81
-28.28
-28.61
-26.75
-23.25
-18.98
-14.73
-10.97
-7.83
-5.22
-2.99
-1.09
0.51
1.87
3.09
4.25
5.26
5.9
5.86
5.01
3.53
1.93
0.83
0.69
1.63
3.37
5.46
7.38
8.75
9.37
9.15
8.07
6.16
3.55
0.41
-3.04
-6.62
-10.22
-13.86
-17.53
-21.11
-24.3
-26.66
-27.82
-27.61
-26.19
-23.95
-21.35
-18.74
-16.25
-13.81
-11.29
-8.6
-5.78
-2.92
-0.15
2.41
4.7
6.63
8.14
9.17
9.72
9.85
9.74
9.53
9.39
9.37
9.45
9.54
9.5
9.25
8.74
8
7.11
6.16
5.22
4.24
3.1
1.56
-0.64
-3.64
-7.43
-11.76
-16.25
-20.49
-24.16
-27.08
-29.11
-30.18
-30.15
-28.93
-26.51
-22.97
-18.52
-13.42
-7.96
-2.44
2.88
7.73
11.92
15.36
18.03
19.94
21.13
21.63
21.52
21.02
20.4
19.95
19.85
20.13
20.62
21.02
20.99
20.3
18.9
16.97
14.91
13.24
12.37
12.36
12.91
13.35
12.95
11.32
8.62
5.67
3.87
4.81
9.99
20.28
35.65
54.9
75.89
95.9
112.37
123.56
128.87
128.88
124.86
118.28
110.44
102.29
94.6
88.04
83.39
81.4
82.77
87.99
97.16
109.78
124.6
139.6
152.35
160.46
162.21
156.83
144.62
126.75
104.98
81.36
58.01
36.81
19.03
5.01
-5.96
-15.41
-25.13
-36.49
-49.91
-64.83
-79.94
-93.76
-105.07
-113.2
-118
-119.71
-118.75
-115.66
-111
-105.42
-99.56
-94.03
-89.2
-85.05
-81.24
-77.26
-72.7
-67.51
-61.96
-56.61
-51.91
-48.07
-44.97
-42.29
-39.67
-36.93
-34.06
-31.24
-28.61
-26.28
-24.27
-22.49
-20.88
-19.36
-17.94
-16.61
-15.41
-14.4
-13.64
-13.2
-13.06
-13.12
-13.12
-12.72
-11.63
-9.7
-7
-3.82
-0.56
2.4
4.84
6.69
8.08
9.21
10.33
11.61
13.04
14.38
15.23
15.18
14.02
11.82
8.97
5.94
3.21
1.06
-0.45
-1.39
-1.88
-2.06
-2.05
-1.94
-1.84
-1.85
-2.09
-2.67
-3.63
-4.95
-6.43
-7.86
-9
-9.7
-9.87
-9.43
-8.32
-6.5
-4.02
-1.1
1.9
4.57
6.62
7.93
8.54
8.58
8.21
7.58
6.91
6.44
6.43
7.06
8.27
9.77
11.14
11.97
11.98
11.16
9.74
8.1
6.63
5.56
4.92
4.54
4.14
3.48
2.46
1.15
-0.32
-1.75
-3.05
-4.09
-4.79
-5.06
-4.82
-4.08
-2.93
-1.48
0.15
1.86
3.56
5.15
6.49
7.47
7.99
8.03
7.66
6.97
6.1
5.19
4.39
3.81
3.53
3.5
3.57
3.54
3.23
2.6
1.74
0.82
0.02
-0.48
-0.69
-0.64
-0.58
-0.79
-1.5
-2.81
-4.59
-6.52
-8.26
-9.6
-10.55
-11.35
-12.28
-13.47
-14.86
-16.13
-16.9
-16.78
-15.59
-13.37
-10.39
-7.1
-3.97
-1.39
0.46
1.61
2.27
2.66
2.98
3.36
3.84
4.46
5.22
6.03
6.71
7.11
7.08
6.63
5.93
5.17
4.57
4.21
4.11
4.2
4.35
4.41
4.25
3.79
3.06
2.19
1.32
0.5
-0.35
-1.42
-2.81
-4.49
-6.29
-7.98
-9.38
-10.46
-11.23
-11.62
-11.44
-10.45
-8.57
-5.99
-3.18
-0.67
1.23
2.51
3.44
4.32
5.32
6.3
6.96
7.04
6.52
5.6
4.67
4.11
4.08
4.52
5.16
5.65
5.71
5.25
4.4
3.44
2.71
2.39
2.48
2.77
2.98
2.84
2.24
1.2
-0.14
-1.55
-2.83
-3.8
-4.43
-4.82
-5.18
-5.81
-6.88
-8.39
-10.05
-11.43
-12.04
-11.58
-10
-7.57
-4.68
-1.79
0.76
2.78
4.24
5.21
5.8
6.13
6.25
6.21
6.03
5.76
5.43
5.04
4.59
4.1
3.62
3.26
3.13
3.27
3.64
4.09
4.45
4.6
4.44
4.02
3.4
2.61
1.72
0.81
0.01
-0.57
-0.91
-1.14
-1.53
-2.43
-4.1
-6.52
-9.35
-11.98
-13.74
-14.11
-12.99
-10.64
-7.6
-4.47
-1.64
0.75
2.79
4.68
6.61
8.63
10.7
12.73
14.63
16.34
17.84
19.12
20.13
20.69
20.59
19.63
17.74
15.1
12.08
9.12
6.5
4.3
2.34
0.41
-1.55
-3.36
-4.78
-5.59
-5.81
-5.7
-5.58
-5.73
-6.24
-6.98
-7.73
-8.23
-8.28
-7.72
-6.46
-4.48
-1.87
1.14
4.22
7.03
9.24
10.7
11.4
11.41
10.85
9.72
7.94
5.37
1.93
-2.26
-6.86
-11.41
-15.46
-18.68
-20.93
-22.21
-22.55
-21.97
-20.56
-18.52
-16.13
-13.68
-11.44
-9.5
-7.91
-6.67
-5.87
-5.66
-6.14
-7.39
-9.25
-11.46
-13.66
-15.5
-16.62
-16.79
-15.82
-13.64
-10.31
-6.05
-1.25
3.63
8.07
11.64
14.09
15.4
15.79
15.59
15.18
14.82
14.61
14.48
14.25
13.73
12.85
11.64
10.3
9.07
8.13
7.49
7.02
6.53
5.86
4.91
3.71
2.28
0.69
-0.98
-2.62
-4.02
-5.02
-5.55
-5.77
-5.97
-6.44
-7.31
-8.36
-9.06
-8.76
-6.93
-3.36
1.68
7.6
13.68
19.22
23.77
27.06
29.02
29.65
29
27.19
24.44
21.07
17.47
13.96
10.66
7.54
4.42
1.17
-2.12
-5.16
-7.52
-8.87
-9.15
-8.7
-8.08
-7.84
-8.29
-9.3
-10.52
-11.52
-12.12
-12.42
-12.81
-13.66
-15.1
-16.99
-18.9
-20.35
-20.94
-20.45
-18.83
-16.13
-12.5
-8.24
-3.74
0.51
4.09
6.76
8.51
9.55
10.16
10.57
10.94
11.32
11.7
12.06
12.31
12.38
12.19
11.78
11.3
10.99
11.03
11.51
12.36
13.4
14.39
15.19
15.69
15.86
15.68
15.21
14.55
13.8
13.02
12.14
10.94
9.22
6.88
4.02
0.91
-2.1
-4.68
-6.66
-7.95
-8.61
-8.67
-8.25
-7.48
-6.53
-5.57
-4.76
-4.25
-4.1
-4.33
-4.9
-5.78
-6.87
-8.03
-9.14
-10.06
-10.72
-11.1
-11.22
-11.12
-10.86
-10.51
-10.1
-9.69
-9.28
-8.88
-8.51
-8.22
-8.09
-8.2
-8.6
-9.3
-10.33
-11.67
-13.26
-15
-16.71
-18.06
-18.69
-18.27
-16.63
-13.85
-10.27
-6.41
-2.84
-0.02
1.83
2.77
3.12
3.32
3.73
4.45
5.33
6.07
6.42
6.33
5.96
5.58
5.41
5.46
5.61
5.68
5.5
5.04
4.39
3.66
2.91
2.12
1.24
0.16
-1.2
-2.84
-4.74
-6.83
-9.03
-11.23
-13.25
-14.8
-15.53
-15.17
-13.63
-11.1
-8
-4.82
-1.97
0.35
2.19
3.74
5.17
6.56
7.85
8.83
9.33
9.23
8.59
7.62
6.62
5.84
5.37
5.12
4.89
4.51
3.9
3.1
2.22
1.31
0.4
-0.54
-1.57
-2.73
-4.04
-5.52
-7.24
-9.17
-11.3
-13.51
-15.66
-17.55
-19.02
-19.85
-19.85
-18.8
-16.55
-13.14
-8.82
-4.07
0.52
4.45
7.39
9.34
10.47
11.08
11.39
11.53
11.54
11.38
11.14
10.87
10.74
10.83
11.1
11.4
11.47
11.17
10.44
9.45
8.45
7.62
7
6.42
5.64
4.49
2.97
1.19
-0.66
-2.48
-4.32
-6.34
-8.69
-11.31
-13.94
-16.12
-17.33
-17.18
-15.57
-12.73
-9.17
-5.47
-2.06
0.86
3.36
5.54
7.5
9.19
10.47
11.24
11.5
11.4
11.11
10.81
10.54
10.3
10.03
9.69
9.3
8.95
8.72
8.58
8.51
8.35
8
7.43
6.69
5.88
5.03
4.14
3.16
2.1
1.02
0.05
-0.75
-1.44
-2.3
-3.66
-5.76
-8.58
-11.8
-14.86
-17.15
-18.19
-17.78
-15.98
-13.18
-9.87
-6.52
-3.42
-0.69
1.72
3.85
5.69
7.12
8.02
8.37
8.29
8
7.7
7.51
7.46
7.53
7.7
7.99
8.38
8.8
9.08
9.07
8.65
7.88
6.91
5.9
5.05
4.38
3.9
3.5
3.06
2.43
1.49
0.15
-1.6
-3.7
-6.05
-8.5
-10.88
-12.97
-14.5
-15.19
-14.8
-13.23
-10.56
-7.15
-3.38
0.3
3.58
6.28
8.34
9.74
10.57
10.93
10.96
10.83
10.67
10.58
10.58
10.62
10.62
10.52
10.27
9.87
9.37
8.79
8.16
7.56
7.02
6.58
6.27
5.99
5.58
4.88
3.8
2.44
1.04
-0.1
-0.85
-1.38
-2.07
-3.37
-5.57
-8.66
-12.22
-15.62
-18.19
-19.41
-19.03
-17.18
-14.2
-10.62
-6.94
-3.52
-0.53
2.01
4.16
6.02
7.64
9.08
10.36
11.44
12.23
12.58
12.39
11.67
10.65
9.65
8.95
8.68
8.75
8.94
9.04
8.97
8.69
8.2
7.52
6.62
5.49
4.23
2.96
1.82
0.89
0.1
-0.66
-1.49
-2.43
-3.46
-4.57
-5.85
-7.44
-9.46
-11.89
-14.45
-16.67
-18.01
-18.05
-16.68
-14.06
-10.59
-6.79
-3.08
0.22
2.93
4.99
6.43
7.38
8.04
8.62
9.27
10
10.66
11.03
10.91
10.3
9.34
8.28
7.42
6.91
6.73
6.75
6.78
6.67
6.35
5.83
5.17
4.41
3.56
2.65
1.71
0.86
0.16
-0.33
-0.75
-1.33
-2.39
-4.2
-6.77
-9.87
-13.02
-15.68
-17.37
-17.82
-17.02
-15.12
-12.41
-9.18
-5.76
-2.37
0.77
3.46
5.54
6.9
7.6
7.82
7.88
8.09
8.6
9.37
10.18
10.76
10.92
10.6
9.83
8.75
7.5
6.27
5.25
4.65
4.56
4.93
5.48
5.87
5.75
4.99
3.63
1.9
0.11
-1.5
-2.76
-3.66
-4.31
-4.96
-5.84
-7.13
-8.89
-10.91
-12.85
-14.27
-14.76
-14.05
-12.12
-9.19
-5.7
-2.18
0.9
3.23
4.81
5.83
6.54
7.05
7.34
7.31
6.91
6.26
5.67
5.42
5.63
6.2
6.8
7.1
6.86
6.1
4.98
3.73
2.53
1.45
0.52
-0.29
-0.93
-1.37
-1.58
-1.66
-1.78
-2.23
-3.2
-4.72
-6.62
-8.56
-10.24
-11.44
-12.16
-12.46
-12.41
-11.96
-10.99
-9.4
-7.19
-4.57
-1.86
0.61
2.63
4.08
4.97
5.38
5.37
5
4.4
3.69
3.05
2.63
2.54
2.77
3.17
3.54
3.65
3.39
2.81
2.1
1.55
1.35
1.49
1.75
1.75
1.15
-0.14
-1.96
-3.98
-5.91
-7.58
-9.01
-10.31
-11.51
-12.47
-12.94
-12.58
-11.22
-8.88
-5.85
-2.54
0.61
3.27
5.27
6.55
7.18
7.26
6.95
6.45
5.94
5.58
5.46
5.53
5.65
5.62
5.24
4.46
3.35
2.1
0.96
0.17
-0.14
0
0.37
0.63
0.45
-0.4
-1.94
-4.03
-6.42
-8.85
-11.07
-12.88
-14.08
-14.54
-14.23
-13.19
-11.56
-9.49
-7.1
-4.44
-1.64
1.06
3.34
4.88
5.61
5.71
5.6
5.61
5.92
6.39
6.74
6.73
6.35
5.78
5.28
5.01
4.96
4.92
4.65
4.03
3.14
2.18
1.37
0.82
0.47
0.08
-0.61
-1.76
-3.4
-5.33
-7.36
-9.31
-11.06
-12.52
-13.54
-13.93
-13.45
-11.99
-9.56
-6.43
-2.98
0.35
3.21
5.42
6.93
7.88
8.39
8.59
8.49
8.02
7.19
6.17
5.29
4.97
5.43
6.53
7.81
8.67
8.69
7.82
6.39
4.88
3.61
2.63
1.7
0.57
-0.93
-2.76
-4.71
-6.64
-8.48
-10.31
-12.26
-14.39
-16.59
-18.57
-19.91
-20.13
-18.96
-16.38
-12.69
-8.43
-4.23
-0.57
2.29
4.34
5.7
6.58
7.15
7.53
7.79
8
8.21
8.46
8.75
9.02
9.18
9.14
8.88
8.45
7.99
7.7
7.69
7.94
8.24
8.26
7.71
6.47
4.62
2.47
0.31
-1.62
-3.29
-4.81
-6.39
-8.22
-10.46
-13.15
-16.19
-19.32
-22.09
-23.95
-24.39
-23.11
-20.16
-16
-11.35
-6.93
-3.28
-0.58
1.32
2.78
4.13
5.55
7.01
8.32
9.34
10.04
10.53
10.94
11.33
11.64
11.75
11.55
11.03
10.32
9.57
8.89
8.28
7.69
7.01
6.13
4.99
3.57
1.9
0.08
-1.74
-3.43
-4.97
-6.47
-8.19
-10.37
-13.06
-16.11
-19.14
-21.67
-23.28
-23.78
-23.16
-21.59
-19.26
-16.3
-12.73
-8.61
-4.08
0.53
4.77
8.2
10.5
11.6
11.76
11.39
10.95
10.8
11.1
11.8
12.72
13.6
14.2
14.37
14.11
13.55
12.9
12.33
11.95
11.75
11.66
11.57
11.33
10.85
10.1
9.17
8.38
8.19
9.1
11.49
15.29
19.89
24.32
27.57
29
28.68
27.32
25.99
25.62
26.71
29.19
32.51
35.98
39.09
41.59
43.51
44.96
45.94
46.28
45.68
43.91
40.93
36.99
32.57
28.19
24.2
20.74
17.7
14.88
12.13
9.37
6.67
4.16
1.92
-0.06
-1.86
-3.57
-5.11
-6.13
-6.11
-4.57
-1.42
2.86
7.27
10.65
12.15
11.49
8.94
5.1
0.49
-4.67
-10.3
-16.27
-22.24
-27.59
-31.68
-34.04
-34.61
-33.62
-31.51
-28.7
-25.5
-22.15
-18.92
-16.13
-14.12
-13.15
-13.24
-14.17
-15.6
-17.14
-18.54
-19.75
-20.84
-21.87
-22.92
-23.84
-24.41
-24.34
-23.31
-21.15
-17.88
-13.79
-9.39
-5.23
-1.74
0.99
3.11
4.92
6.63
8.26
9.6
10.35
10.25
9.2
7.3
4.83
2.11
-0.5
-2.73
-4.44
-5.6
-6.3
-6.68
-6.85
-6.94
-7.01
-7.11
-7.31
-7.64
-8.11
-8.7
-9.37
-10.06
-10.73
-11.32
-11.78
-12.08
-12.17
-12.01
-11.62
-11.04
-10.37
-9.8
-9.45
-9.43
-9.68
-9.99
-10.15
-9.96
-9.43
-8.79
-8.39
-8.58
-9.57
-11.31
-13.57
-15.97
-18.12
-19.68
-20.39
-20.13
-18.87
-16.72
-13.88
-10.65
-7.32
-4.14
-1.32
1.07
3
4.53
5.75
6.76
7.63
8.3
8.64
8.48
7.77
6.64
5.46
4.65
4.5
5.04
5.99
6.89
7.34
7.16
6.43
5.47
4.62
4.08
3.84
3.73
3.49
2.95
2.1
1.03
-0.13
-1.27
-2.43
-3.63
-4.87
-6.07
-7.14
-8.05
-8.92
-9.97
-11.39
-13.17
-15.02
-16.41
-16.76
-15.78
-13.54
-10.5
-7.32
-4.57
-2.5
-1.05
0.09
1.19
2.41
3.57
4.36
4.51
4.01
3.12
2.3
1.95
2.28
3.15
4.23
5.14
5.63
5.68
5.46
5.2
5.1
5.18
5.37
5.54
5.54
5.36
5.02
4.6
4.08
3.4
2.43
1.04
-0.69
-2.53
-4.15
-5.29
-5.95
-6.41
-7.07
-8.27
-10.02
-11.92
-13.35
-13.7
-12.62
-10.21
-6.93
-3.41
-0.2
2.33
4.12
5.24
5.91
6.25
6.33
6.2
5.92
5.62
5.45
5.56
5.93
6.44
6.89
7.1
7.02
6.72
6.32
5.92
5.54
5.14
4.65
4.09
3.5
2.98
2.56
2.19
1.75
1.18
0.5
-0.23
-0.89
-1.39
-1.75
-2.08
-2.6
-3.46
-4.75
-6.39
-8.19
-9.88
-11.2
-11.96
-12.1
-11.66
-10.68
-9.19
-7.18
-4.71
-1.94
0.78
3.02
4.36
4.61
3.87
2.56
1.3
0.66
0.92
2.01
3.5
4.83
5.56
5.55
4.95
4.16
3.55
3.31
3.39
3.58
3.62
3.39
2.83
1.99
0.96
-0.18
-1.31
-2.31
-3.11
-3.66
-4.12
-4.73
-5.73
-7.24
-9.09
-10.84
-11.95
-11.95
-10.68
-8.38
-5.57
-2.81
-0.53
1.1
2.18
2.92
3.51
4.03
4.46
4.71
4.7
4.45
4.01
3.52
3.12
2.92
2.95
3.19
3.54
3.92
4.23
4.46
4.61
4.69
4.66
4.43
3.92
3.14
2.27
1.6
1.51
2.29
4.07
6.71
9.84
13.02
15.82
18.09
19.9
21.6
23.62
26.27
29.53
33
36.01
37.85
38.11
36.79
34.36
31.43
28.51
25.74
22.8
19.07
13.93
7.13
-1.07
-9.86
-18.11
-24.66
-28.67
-29.8
-28.27
-24.77
-20.24
-15.62
-11.64
-8.69
-6.61
-4.73
-1.99
2.61
9.38
17.52
25.18
30.04
30.39
26.04
18.57
10.78
5.6
4.88
8.8
16.02
24.39
31.89
37.14
39.54
39.06
35.95
30.54
23.28
14.73
5.64
-3.19
-11
-17.36
-22.21
-25.99
-29.35
-32.93
-37.01
-41.36
-45.35
-48.23
-49.48
-49.07
-47.53
-45.62
-44.03
-43.06
-42.52
-41.97
-41.02
-39.56
-37.78
-36.13
-34.97
-34.49
-34.62
-35.09
-35.58
-35.82
-35.56
-34.64
-32.92
-30.37
-27
-23
-18.6
-14.14
-9.97
-6.4
-3.6
-1.53
0.01
1.31
2.62
3.99
5.27
6.13
6.29
5.69
4.58
3.43
2.78
3.05
4.32
6.41
8.96
11.58
13.96
15.98
17.57
18.66
19.11
18.81
17.8
16.39
15.03
14.15
13.81
13.66
13.09
11.58
9.07
6.07
3.46
2.07
2.2
3.57
5.37
6.79
7.27
6.76
5.55
4.06
2.54
1.03
-0.6
-2.46
-4.42
-6.16
-7.24
-7.35
-6.49
-4.93
-3.13
-1.47
-0.1
1.02
1.98
2.82
3.35
3.28
2.38
0.64
-1.7
-4.27
-6.75
-8.99
-11.04
-13.04
-15.04
-16.9
-18.35
-19.08
-18.89
-17.73
-15.74
-13.11
-10.13
-7.01
-3.94
-1.04
1.6
3.93
5.9
7.53
8.89
10.07
11.27
12.6
14.04
15.44
16.46
16.77
16.15
14.63
12.49
10.11
7.86
6.03
4.75
4.02
3.73
3.68
3.57
3.14
2.26
0.99
-0.39
-1.51
-2.11
-2.14
-1.78
-1.31
-0.97
-0.78
-0.61
-0.33
0.1
0.55
0.88
1.07
1.22
1.54
2.15
2.97
3.75
4.16
4.05
3.48
2.75
2.22
2.16
2.57
3.29
4.05
4.6
4.85
4.83
4.65
4.41
4.19
3.99
3.8
3.55
3.21
2.73
2.04
1.14
0.06
-1.07
-2.1
-2.88
-3.42
-3.83
-4.34
-5.15
-6.29
-7.65
-8.98
-10
-10.46
-10.22
-9.27
-7.73
-5.82
-3.92
-2.37
-1.39
-0.94
-0.67
-0.17
0.91
2.55
4.34
5.68
6.04
5.3
3.75
2
0.69
0.18
0.48
1.34
2.37
3.3
3.96
4.29
4.31
4.05
3.48
2.57
1.42
0.21
-0.77
-1.29
-1.22
-0.77
-0.3
-0.22
-0.8
-1.98
-3.48
-4.97
-6.27
-7.47
-8.8
-10.39
-12.14
-13.63
-14.32
-13.81
-12.01
-9.17
-5.79
-2.43
0.41
2.45
3.65
4.19
4.38
4.5
4.75
5.12
5.5
5.76
5.82
5.76
5.74
5.95
6.44
7.14
7.83
8.26
8.25
7.77
6.93
5.94
5
4.22
3.6
3.05
2.49
1.82
1.01
0
-1.3
-2.98
-5.07
-7.43
-9.72
-11.52
-12.39
-12.06
-10.54
-8.06
-5.06
-2.02
0.71
2.91
4.57
5.78
6.69
7.44
8.05
8.51
8.72
8.59
8.06
7.19
6.14
5.17
4.54
4.39
4.73
5.37
6.04
6.5
6.56
6.19
5.39
4.29
2.95
1.49
0.02
-1.36
-2.63
-3.86
-5.16
-6.62
-8.16
-9.68
-11.01
-12.08
-12.92
-13.56
-13.97
-13.93
-13.13
-11.33
-8.52
-4.97
-1.18
2.4
5.47
7.96
9.9
11.35
12.22
12.38
11.81
10.64
9.3
8.32
8.09
8.74
10.01
11.42
12.43
12.7
12.17
11.04
9.65
8.34
7.31
6.61
6.16
5.82
5.44
4.91
4.13
3.09
1.82
0.4
-1.07
-2.52
-3.88
-5.16
-6.34
-7.49
-8.69
-10
-11.42
-12.84
-13.92
-14.23
-13.4
-11.26
-8.01
-4.17
-0.43
2.63
4.77
6.06
6.86
7.48
8.06
8.49
8.58
8.2
7.46
6.7
6.32
6.58
7.39
8.44
9.26
9.54
9.28
8.67
7.97
7.31
6.63
5.75
4.6
3.31
2.13
1.31
0.83
0.43
-0.24
-1.42
-3.05
-4.76
-6.1
-6.78
-6.74
-6.26
-5.75
-5.65
-6.22
-7.51
-9.21
-10.81
-11.7
-11.35
-9.52
-6.39
-2.5
1.44
4.8
7.23
8.68
9.33
9.51
9.43
9.27
9.04
8.72
8.31
7.83
7.36
6.94
6.63
6.37
6.12
5.82
5.48
5.17
4.9
4.66
4.38
3.99
3.43
2.77
2.16
1.74
1.6
1.69
1.83
1.72
1.1
-0.17
-2.02
-4.13
-6.08
-7.47
-8.16
-8.33
-8.41
-8.86
-9.91
-11.41
-12.8
-13.42
-12.77
-10.71
-7.55
-3.87
-0.25
2.89
5.38
7.22
8.49
9.28
9.61
9.51
9.03
8.3
7.45
6.63
5.94
5.4
4.95
4.5
3.98
3.38
2.79
2.33
2.13
2.21
2.44
2.61
2.49
1.97
1.06
-0.07
-1.21
-2.22
-3.12
-4.02
-5.04
-6.23
-7.53
-8.86
-10.08
-11.15
-12
-12.54
-12.58
-11.93
-10.43
-8.14
-5.29
-2.22
0.7
3.23
5.21
6.61
7.36
7.45
6.85
5.7
4.23
2.81
1.78
1.38
1.61
2.26
3.03
3.61
3.83
3.67
3.26
2.82
2.48
2.29
2.15
1.89
1.36
0.49
-0.63
-1.84
-2.92
-3.77
-4.37
-4.88
-5.54
-6.52
-7.8
-9.17
-10.29
-10.8
-10.48
-9.29
-7.36
-4.92
-2.21
0.56
3.19
5.49
7.27
8.41
8.85
8.7
8.17
7.51
6.91
6.39
5.86
5.17
4.21
2.98
1.69
0.66
0.2
0.48
1.43
2.75
4.04
4.9
5.12
4.62
3.52
1.96
0.17
-1.59
-3.06
-4.03
-4.44
-4.46
-4.45
-4.84
-5.9
-7.63
-9.75
-11.69
-12.84
-12.6
-10.72
-7.31
-2.92
1.66
5.6
8.34
9.72
9.97
9.55
8.92
8.35
7.87
7.4
6.82
6.07
5.15
4.1
2.97
1.82
0.76
-0.13
-0.81
-1.28
-1.63
-1.91
-2.21
-2.52
-2.84
-3.16
-3.53
-4.04
-4.76
-5.75
-6.98
-8.46
-10.17
-12.15
-14.38
-16.7
-18.74
-19.95
-19.83
-18.1
-14.99
-11.06
-7.12
-3.85
-1.55
-0.09
0.89
1.81
2.9
4.17
5.5
6.75
7.73
8.31
8.38
7.97
7.26
6.64
6.52
7.24
8.86
11.08
13.42
15.39
16.7
17.38
17.73
18.32
19.92
23.45
29.72
38.88
50.08
61.28
69.74
72.91
69.54
60.24
47.21
33.39
21.21
11.79
4.86
-0.63
-5.8
-11.16
-16.64
-21.82
-26.42
-30.34
-33.69
-36.52
-38.7
-39.97
-40.02
-38.71
-36.18
-32.83
-29.17
-25.71
-22.83
-20.66
-19.13
-17.95
-16.79
-15.35
-13.53
-11.46
-9.51
-8.11
-7.53
-7.78
-8.62
-9.71
-10.77
-11.64
-12.3
-12.73
-12.85
-12.59
-12.01
-11.32
-10.87
-10.93
-11.48
-12.23
-12.62
-12.19
-10.75
-8.44
-5.66
-2.81
-0.2
2.03
3.81
5.12
5.89
6.03
5.56
4.61
3.44
2.39
1.75
1.6
1.9
2.4
2.84
3.06
3
2.72
2.28
1.73
1.01
0.06
-1.09
-2.34
-3.48
-4.38
-4.97
-5.33
-5.56
-5.85
-6.33
-7.09
-8.17
-9.45
-10.76
-11.81
-12.29
-11.91
-10.53
-8.19
-5.09
-1.55
2.12
5.59
8.6
11.02
12.78
13.94
14.61
14.86
14.7
14.1
13.05
11.64
10.15
8.88
8.16
8.11
8.61
9.3
9.76
9.67
8.94
7.78
6.53
5.52
4.86
4.46
4.05
3.37
2.33
1.01
-0.36
-1.6
-2.63
-3.52
-4.4
-5.36
-6.45
-7.64
-8.94
-10.33
-11.84
-13.36
-14.67
-15.4
-15.09
-13.43
-10.34
-6.09
-1.3
3.26
6.88
9.17
10.14
10.18
9.79
9.44
9.34
9.48
9.69
9.79
9.61
9.12
8.39
7.53
6.76
6.3
6.26
6.65
7.26
7.8
7.96
7.61
6.75
5.52
4.12
2.72
1.49
0.61
0.21
0.28
0.67
1.02
0.91
0.04
-1.63
-3.77
-5.85
-7.39
-8.15
-8.28
-8.21
-8.42
-9.18
-10.45
-11.86
-12.87
-12.95
-11.84
-9.54
-6.34
-2.68
1
4.34
7.09
9.16
10.55
11.33
11.67
11.76
11.8
11.91
12.16
12.6
13.32
14.52
16.49
19.52
23.75
29.08
35.14
41.41
47.39
52.78
57.59
61.96
66.15
70.2
73.96
77.08
79.19
79.96
79.29
77.29
74.23
70.45
66.28
61.9
57.3
52.29
46.51
39.6
31.37
22
12.01
2.12
-6.96
-14.7
-20.9
-25.56
-28.86
-31.02
-32.33
-33.16
-33.97
-35.29
-37.54
-40.99
-45.65
-51.27
-57.44
-63.7
-69.64
-75.09
-80.1
-84.9
-89.74
-94.68
-99.39
-103.12
-104.92
-103.91
-99.71
-92.62
-83.57
-73.81
-64.5
-56.3
-49.28
-43.06
-37.17
-31.37
-25.83
-20.99
-17.2
-14.53
-12.6
-10.85
-8.79
-6.24
-3.49
-1.04
0.57
1.03
0.34
-1.18
-3.01
-4.56
-5.31
-5.03
-3.77
-1.88
0.11
1.79
2.98
3.73
4.19
4.51
4.73
4.82
4.78
4.66
4.55
4.54
4.58
4.57
4.43
4.24
4.3
5.06
6.94
10.15
14.53
19.61
24.63
28.8
31.46
32.27
31.31
29.03
26.06
22.99
20.03
16.92
13
7.58
0.34
-8.42
-17.82
-26.75
-34.23
-39.65
-42.64
-42.99
-40.49
-35.07
-27.08
-17.48
-7.69
0.83
7.16
11.23
13.68
15.37
16.88
18.22
18.98
18.69
17.19
14.77
12.07
9.76
8.21
7.41
6.98
6.44
5.46
3.96
2.14
0.28
-1.34
-2.63
-3.62
-4.34
-4.74
-4.71
-4.19
-3.28
-2.27
-1.52
-1.26
-1.5
-2.05
-2.67
-3.19
-3.54
-3.74
-3.79
-3.54
-2.73
-1.15
1.3
4.53
8.26
12.11
15.69
18.7
20.89
22.15
22.49
22.03
20.99
19.6
18.08
16.63
15.38
14.4
13.7
13.23
12.93
12.72
12.55
12.41
12.33
12.33
12.31
12.06
11.33
9.94
7.92
5.55
3.21
1.28
-0.09
-0.94
-1.49
-1.98
-2.67
-3.72
-5.22
-7.19
-9.52
-11.95
-14.01
-15.21
-15.12
-13.59
-10.8
-7.26
-3.59
-0.32
2.27
4.15
5.48
6.43
7.08
7.45
7.47
7.16
6.56
5.8
5.08
4.58
4.48
4.85
5.64
6.58
7.35
7.62
7.27
6.43
5.37
4.43
3.78
3.41
3.15
2.81
2.23
1.37
0.22
-1.15
-2.7
-4.41
-6.2
-8.03
-9.8
-11.36
-12.57
-13.26
-13.34
-12.79
-11.7
-10.15
-8.19
-5.84
-3.11
-0.11
2.94
5.65
7.68
8.82
9.07
8.68
8.02
7.39
6.96
6.73
6.6
6.42
6.15
5.84
5.54
5.36
5.31
5.38
5.59
5.91
6.31
6.75
7.11
7.19
6.85
6.01
4.69
3.02
1.16
-0.71
-2.46
-4.03
-5.45
-6.78
-8.09
-9.48
-10.9
-12.15
-12.89
-12.69
-11.23
-8.46
-4.64
-0.38
3.63
6.79
8.83
9.85
10.24
10.49
10.99
11.9
13.12
14.42
15.57
16.51
17.4
18.56
20.36
23.06
26.8
31.52
37.08
43.17
49.37
55.1
59.82
63.1
64.82
65.27
64.89
64.14
63.21
61.98
60.19
57.68
54.6
51.32
48.27
45.45
42.37
37.97
31.11
21.07
8.01
-6.87
-21.7
-34.55
-44.04
-49.76
-52.22
-52.42
-51.39
-49.8
-47.97
-45.95
-43.82
-41.76
-39.9
-38.26
-36.69
-34.89
-32.61
-29.78
-26.54
-23.15
-19.94
-17.22
-15.22
-13.92
-13.08
-12.2
-10.72
-8.31
-5.09
-1.62
1.21
2.61
2.21
0.05
-3.34
-7.26
-11.07
-14.24
-16.49
-17.77
-18.27
-18.38
-18.53
-19.06
-20.15
-21.77
-23.74
-25.74
-27.43
-28.34
-28.09
-26.42
-23.33
-19.19
-14.61
-10.28
-6.73
-4.21
-2.64
-1.76
-1.22
-0.64
0.28
1.91
4.53
8.25
12.94
18
22.56
25.63
26.54
25.14
21.91
17.67
13.24
9
4.94
0.72
-3.93
-8.88
-13.69
-17.69
-20.4
-21.85
-22.58
-23.44
-25.25
-28.44
-32.85
-37.94
-43.03
-47.62
-51.51
-54.72
-57.22
-58.77
-58.78
-56.67
-52.1
-45.3
-37
-28.23
-19.76
-11.91
-4.51
2.86
10.41
17.92
24.76
30.12
33.42
34.45
33.46
30.97
27.6
23.91
20.31
16.99
14.06
11.52
9.39
7.69
6.45
5.57
4.87
4.06
2.85
1.1
-1.2
-3.84
-6.57
-9.17
-11.47
-13.43
-15.06
-16.48
-17.77
-18.97
-19.95
-20.41
-19.95
-18.27
-15.33
-11.43
-7.19
-3.21
0.05
2.4
3.89
4.63
4.68
4.06
2.83
1.2
-0.44
-1.63
-1.99
-1.45
-0.22
1.26
2.58
3.54
4.16
4.63
5.13
5.63
5.97
5.88
5.18
3.87
2.09
0.06
-2.05
-4.09
-6.01
-7.71
-9.15
-10.28
-11.11
-11.77
-12.4
-13.17
-14.13
-15.19
-16.07
-16.27
-15.28
-12.7
-8.48
-3.04
2.85
8.41
13.03
16.6
19.33
21.6
23.66
25.51
26.97
27.79
27.84
27.13
25.78
23.96
21.94
19.91
18.14
16.77
15.85
15.3
14.93
14.6
14.17
13.58
12.8
11.87
10.85
9.9
9.18
8.87
8.99
9.41
9.86
10.06
9.73
8.73
7.06
4.85
2.29
-0.43
-3.12
-5.65
-7.83
-9.46
-10.21
-9.78
-7.96
-4.87
-0.97
3.06
6.54
9.05
10.51
11.1
11.12
10.8
10.25
9.55
8.86
8.25
7.85
7.59
7.3
6.84
6.13
5.31
4.61
4.26
4.34
4.77
5.36
5.84
6.02
5.73
4.94
3.71
2.21
0.64
-0.73
-1.74
-2.36
-2.73
-3.07
-3.63
-4.56
-5.88
-7.56
-9.46
-11.44
-13.33
-14.86
-15.73
-15.59
-14.22
-11.56
-7.95
-3.95
-0.18
2.89
5.16
6.82
8.11
9.15
9.78
9.72
8.82
7.23
5.44
4.05
3.43
3.64
4.37
5.18
5.74
5.92
5.82
5.57
5.3
5.05
4.82
4.6
4.35
4.08
3.75
3.31
2.69
1.86
0.81
-0.4
-1.68
-2.93
-4.1
-5.28
-6.58
-8.17
-10.11
-12.26
-14.22
-15.44
-15.42
-13.89
-11
-7.26
-3.43
-0.23
1.94
3.09
3.53
3.75
4.13
4.77
5.54
6.13
6.3
5.95
5.24
4.43
3.81
3.53
3.62
4
4.55
5.18
5.77
6.2
6.31
5.96
5.14
4.01
2.82
1.88
1.33
1.16
1.15
1.06
0.67
-0.08
-1.18
-2.6
-4.32
-6.31
-8.45
-10.53
-12.19
-13.05
-12.87
-11.65
-9.54
-6.9
-3.99
-1.08
1.7
4.2
6.23
7.65
8.32
8.3
7.8
7.08
6.4
5.89
5.55
5.32
5.2
5.14
5.11
5.07
4.98
4.8
4.58
4.4
4.27
4.21
4.16
4.04
3.78
3.32
2.61
1.62
0.4
-0.98
-2.35
-3.6
-4.68
-5.69
-6.84
-8.31
-10.16
-12.23
-14.24
-15.76
-16.43
-15.99
-14.34
-11.61
-8.11
-4.31
-0.66
2.39
4.57
5.78
6.18
6.02
5.62
5.24
4.99
4.87
4.77
4.65
4.48
4.35
4.32
4.4
4.52
4.58
4.48
4.2
3.78
3.28
2.77
2.24
1.7
1.12
0.5
-0.17
-0.97
-1.95
-3.24
-4.83
-6.65
-8.54
-10.3
-11.77
-12.88
-13.65
-14.05
-14
-13.23
-11.54
-8.8
-5.18
-1.1
2.89
6.27
8.79
10.4
11.26
11.57
11.47
11.11
10.56
9.97
9.46
9.15
9
8.93
8.77
8.4
7.81
7.1
6.43
6
5.89
6.06
6.35
6.5
6.23
5.41
4.05
2.41
0.8
-0.5
-1.43
-2.13
-2.85
-3.86
-5.24
-6.92
-8.69
-10.34
-11.63
-12.33
-12.22
-11.14
-9.13
-6.41
-3.39
-0.54
1.79
3.43
4.45
5.07
5.49
5.88
6.25
6.53
6.52
6.01
4.95
3.47
1.9
0.67
0.14
0.5
1.73
3.6
5.83
8.1
10.05
11.33
11.65
10.9
9.19
6.93
4.61
2.68
1.28
0.31
-0.55
-1.61
-2.99
-4.56
-6.06
-7.19
-7.76
-7.68
-6.97
-5.59
-3.53
-0.87
2.21
5.33
8.04
10
11.1
11.52
11.65
11.88
12.45
13.4
14.64
15.94
17.13
18.01
18.39
18.17
17.28
15.79
13.89
11.84
9.83
7.93
6.02
3.85
1.18
-2.05
-5.74
-9.59
-13.23
-16.39
-18.96
-21.02
-22.73
-24.33
-25.88
-27.33
-28.44
-28.89
-28.46
-27.12
-25.03
-22.52
-19.92
-17.46
-15.19
-13.04
-10.89
-8.74
-6.77
-5.29
-4.61
-4.85
-5.76
-6.83
-7.44
-7.12
-5.76
-3.74
-1.65
-0.09
0.65
0.62
0.08
-0.61
-1.24
-1.71
-1.99
-2.05
-1.86
-1.45
-0.96
-0.6
-0.64
-1.25
-2.46
-4.11
-5.97
-7.76
-9.3
-10.43
-11.05
-11.08
-10.46
-9.09
-6.98
-4.27
-1.25
1.66
4.04
5.6
6.33
6.47
6.39
6.4
6.58
6.82
6.93
6.83
6.63
6.56
6.83
7.49
8.31
8.95
9.11
8.71
7.96
7.26
6.97
7.19
7.71
8.01
7.62
6.34
4.38
2.27
0.6
-0.32
-0.56
-0.56
-0.83
-1.74
-3.35
-5.44
-7.68
-9.7
-11.26
-12.11
-12.08
-11.02
-8.92
-5.99
-2.6
0.8
3.74
5.83
6.92
7.11
6.69
6.1
5.77
5.9
6.44
7.1
7.52
7.48
6.97
6.23
5.57
5.22
5.2
5.31
5.33
5.11
4.63
4.05
3.56
3.21
3
2.74
2.27
1.5
0.44
-0.79
-2.03
-3.13
-3.97
-4.48
-4.64
-4.48
-4.11
-3.71
-3.53
-3.81
-4.72
-6.31
-8.38
-10.58
-12.38
-13.27
-12.86
-11.09
-8.24
-4.88
-1.6
1.12
3.16
4.62
5.75
6.71
7.51
8
8.06
7.67
6.97
6.19
5.54
5.09
4.85
4.76
4.74
4.73
4.72
4.65
4.57
4.54
4.61
4.76
4.89
4.81
4.36
3.53
2.5
1.54
0.9
0.62
0.55
0.42
0.01
-0.77
-1.78
-2.81
-3.71
-4.43
-5.08
-5.83
-6.76
-7.87
-9.04
-10.15
-11.17
-12.17
-13.16
-14.08
-14.68
-14.61
-13.62
-11.67
-9.03
-6.19
-3.64
-1.74
-0.63
-0.28
-0.55
-1.31
-2.45
-3.79
-5.16
-6.32
-7.05
-7.25
-6.92
-6.27
-5.63
-5.4
-5.85
-7.06
-8.83
-10.78
-12.43
-13.45
-13.77
-13.62
-13.43
-13.61
-14.4
-15.81
-17.6
-19.49
-21.28
-22.97
-24.69
-26.71
-29.23
-32.39
-36.2
-40.61
-45.53
-50.75
-55.93
-60.55
-64
-65.8
-65.81
-64.34
-62.03
-59.63
-57.76
-56.76
-56.64
-57.12
-57.8
-58.29
-58.3
-57.71
-56.62
-55.24
-53.75
-52.18
-50.36
-47.96
-44.73
-40.58
-35.53
-29.54
-22.41
-13.8
-3.5
8.3
20.87
33.1
43.77
51.96
57.15
59.23
58.37
54.94
49.44
42.54
34.99
27.61
20.93
15.12
9.89
4.61
-1.29
-7.88
-14.32
-18.91
-19.55
-14.59
-3.56
12.43
30.96
49.24
64.95
76.95
85.22
90.38
93.13
93.86
92.68
89.73
85.4
80.34
75.29
70.81
67.1
64
61.14
58.13
54.77
51.14
47.5
44.18
41.38
39.1
37.06
34.83
31.98
28.19
23.41
17.81
11.81
5.89
0.45
-4.31
-8.43
-12.2
-16.09
-20.58
-26.06
-32.71
-40.33
-48.11
-54.6
-57.87
-56.05
-48.06
-34.18
-16.23
3.02
20.69
34.76
44.45
50.15
52.75
53.18
51.96
49.43
45.9
41.93
38.17
35.2
33.22
32.03
31.13
30.03
28.47
26.51
24.47
22.73
21.54
20.89
20.47
19.8
18.34
15.71
11.83
6.91
1.46
-3.95
-8.83
-12.97
-16.47
-19.68
-23.05
-26.92
-31.5
-36.76
-42.52
-48.42
-53.84
-57.95
-59.72
-58.1
-52.36
-42.43
-29.1
-13.89
1.29
14.72
25.24
32.46
36.63
38.25
37.84
35.72
32.15
27.51
22.42
17.71
14.1
12
11.37
11.77
12.58
13.3
13.69
13.74
13.53
13.03
12.02
10.1
6.93
2.33
-3.54
-10.25
-17.15
-23.59
-29.08
-33.38
-36.64
-39.29
-42.01
-45.44
-50.01
-55.71
-62.01
-68.02
-72.6
-74.66
-73.3
-68.01
-58.81
-46.32
-31.74
-16.67
-2.69
9
17.88
24.09
28.19
30.8
32.36
33.06
32.99
32.34
31.4
30.56
30.07
29.97
30.04
29.99
29.64
28.95
28.08
27.17
26.29
25.28
23.87
21.76
18.7
14.64
9.71
4.32
-1.07
-5.99
-10.25
-14.07
-18.02
-22.79
-28.91
-36.42
-44.65
-52.3
-57.73
-59.32
-56.02
-47.61
-34.9
-19.5
-3.46
11.27
23.33
32.09
37.6
40.32
40.8
39.55
37.04
33.75
30.25
26.98
24.28
22.18
20.55
19.16
17.82
16.5
15.27
14.25
13.42
12.64
11.64
10.1
7.84
4.87
1.36
-2.4
-6.19
-9.88
-13.52
-17.27
-21.36
-26.06
-31.58
-37.98
-45.03
-52.05
-57.86
-61.04
-60.27
-54.87
-45.02
-31.87
-17.14
-2.71
9.82
19.41
25.65
28.75
29.35
28.39
26.89
25.75
25.58
26.58
28.56
31.02
33.36
35.03
35.67
35.25
34.01
32.43
31.06
30.27
30.16
30.4
30.44
29.67
27.72
24.63
20.76
16.66
12.82
9.42
6.25
2.77
-1.68
-7.68
-15.4
-24.51
-34.02
-42.46
-48.21
-49.92
-47
-39.87
-29.86
-18.84
-8.61
-0.45
5.12
8.22
9.37
9.15
8.09
6.55
4.84
3.13
1.56
0.14
-1.21
-2.55
-3.84
-4.9
-5.49
-5.47
-4.94
-4.36
-4.36
-5.46
-7.82
-11.22
-15.12
-19.02
-22.65
-26.07
-29.55
-33.42
-37.92
-43.2
-49.29
-56.03
-62.89
-68.87
-72.62
-72.79
-68.61
-60.24
-48.81
-36.04
-23.65
-12.8
-3.91
3.19
8.98
13.88
18.08
21.54
24.1
25.65
26.27
26.23
26
26.04
26.67
27.87
29.27
30.33
30.5
29.47
27.28
24.23
20.72
17
13.14
9.03
4.45
-0.82
-6.97
-14.13
-22.25
-30.9
-39.2
-45.81
-49.23
-48.29
-42.62
-32.88
-20.59
-7.64
4.29
14.17
21.7
27.11
30.8
33.1
34.22
34.29
33.43
31.81
29.67
27.25
24.81
22.61
20.88
19.73
19.1
18.75
18.34
17.6
16.42
14.84
12.96
10.81
8.22
4.95
0.73
-4.65
-11.21
-18.81
-27.02
-35.05
-41.75
-45.71
-45.62
-40.75
-31.35
-18.64
-4.51
9.1
20.7
29.59
35.8
39.85
42.4
43.94
44.77
44.92
44.35
43.03
41.02
38.53
35.87
33.36
31.23
29.55
28.19
26.86
25.27
23.2
20.58
17.49
14.08
10.41
6.42
1.9
-3.42
-9.72
-16.93
-24.63
-31.99
-37.92
-41.21
-40.88
-36.45
-28.22
-17.19
-4.86
7.19
17.73
26.08
32.13
36.15
38.5
39.56
39.59
38.9
37.75
36.4
35
33.54
31.97
30.16
28.07
25.77
23.39
21.07
18.9
16.89
14.93
12.92
10.63
7.78
4.06
-0.8
-6.97
-14.4
-22.74
-31.24
-38.81
-44.18
-46.16
-43.96
-37.5
-27.5
-15.31
-2.57
9.25
19.16
26.75
32.1
35.52
37.35
37.93
37.51
36.38
34.89
33.28
31.72
30.22
28.68
27.03
25.27
23.58
22.07
20.78
19.51
17.93
15.7
12.65
8.87
4.63
0.26
-4.1
-8.45
-13.01
-18.07
-23.87
-30.51
-37.81
-45.18
-51.56
-55.6
-55.97
-51.83
-43.2
-31.07
-17.09
-3.11
9.35
19.39
26.78
31.71
34.64
36.08
36.58
36.62
36.56
36.55
36.54
36.35
35.8
34.81
33.46
31.9
30.25
28.63
27.05
25.56
24.19
22.9
21.58
19.96
17.74
14.63
10.48
5.38
-0.34
-6.18
-11.62
-16.27
-20.03
-23.1
-25.91
-29.02
-32.93
-37.9
-43.83
-50.24
-56.2
-60.51
-61.92
-59.5
-52.91
-42.62
-29.8
-16.02
-2.85
8.56
17.62
24.26
28.76
31.54
33.01
33.5
33.33
32.78
32.07
31.39
30.8
30.31
29.91
29.62
29.53
29.68
30.06
30.44
30.48
29.83
28.23
25.67
22.38
18.72
15.07
11.62
8.38
5.19
1.84
-1.8
-5.7
-9.66
-13.44
-16.83
-19.78
-22.41
-24.98
-27.84
-31.36
-35.76
-40.99
-46.56
-51.5
-54.49
-54.21
-49.73
-40.9
-28.49
-13.94
1.04
14.95
26.87
36.59
44.4
50.82
56.27
60.91
64.63
67.25
68.68
69.04
68.72
68.19
67.87
68
68.6
69.6
70.9
72.46
74.22
76.12
78.04
79.85
81.52
83.11
84.78
86.73
89.1
91.97
95.35
99.26
103.61
108.17
112.48
115.93
118.01
118.52
117.77
116.56
115.83
116.42
118.78
122.95
128.66
135.33
142.05
147.53
150.22
148.72
142.33
131.61
118.35
105.07
93.99
86.08
80.58
75.41
68.14
57.19
42.45
25.2
7.4
-9.25
-23.83
-36.21
-46.64
-55.21
-61.74
-65.95
-67.89
-68.35
-68.74
-70.6
-74.96
-81.88
-90.51
-99.67
-108.46
-116.69
-124.82
-133.43
-142.65
-151.93
-160.09
-165.86
-168.39
-167.45
-163.3
-156.4
-147.13
-135.81
-122.81
-108.68
-94.06
-79.57
-65.57
-52.16
-39.23
-26.56
-13.97
-1.35
11.28
23.69
35.3
45.2
52.36
55.95
55.72
52.04
45.79
37.86
28.81
18.77
7.62
-4.63
-17.49
-30.08
-41.52
-51.56
-60.96
-71.49
-85.42
-104.6
-129.56
-159.07
-190.32
-219.83
-244.51
-262.72
-274.45
-281.07
-284.62
-287.18
-290.32
-294.85
-300.54
-305.9
-308.04
-303.12
-287.39
-258.69
-217.82
-168.82
-118.02
-72.19
-36.46
-13.1
-1.42
1.31
-1.39
-6.25
-10.66
-12.84
-11.78
-7.3
-0.14
8.2
15.97
21.77
25.07
26.18
25.87
24.96
23.92
22.85
21.6
19.96
17.76
14.88
11.19
6.69
1.59
-3.61
-8.23
-11.64
-13.51
-13.91
-13.34
-12.39
-11.67
-11.56
-12.16
-13.25
-14.36
-14.81
-13.91
-11.13
-6.28
0.43
8.51
17.28
26.05
34.29
41.58
47.59
52.02
54.6
55.16
53.78
50.85
47.09
43.36
40.37
38.54
37.87
38.01
38.49
38.88
38.95
38.72
38.39
38.21
38.37
38.82
39.3
39.3
38.29
35.91
32.13
27.29
22.02
16.91
12.4
8.55
5.16
1.77
-2.09
-6.83
-12.66
-19.45
-26.7
-33.48
-38.54
-40.55
-38.39
-31.58
-20.42
-6.04
9.82
25.24
38.62
48.91
55.82
59.56
60.67
59.75
57.39
54.06
50.18
46.17
42.38
39.09
36.49
34.66
33.54
32.99
32.72
32.38
31.61
30.09
27.63
24.24
20.05
15.35
10.51
5.83
1.55
-2.29
-5.91
-9.72
-14.21
-19.72
-26.23
-33.08
-39.04
-42.5
-41.96
-36.55
-26.37
-12.6
2.86
17.89
30.73
40.39
46.63
49.76
50.28
48.61
45.15
40.37
34.98
29.94
26.1
23.93
23.27
23.44
23.54
22.9
21.41
19.41
17.49
16.01
14.92
13.78
12.07
9.41
5.81
1.52
-3.09
-7.68
-12.09
-16.3
-20.4
-24.55
-28.97
-33.9
-39.47
-45.5
-51.27
-55.46
-56.49
-52.94
-44.22
-30.84
-14.36
3.04
19.2
32.54
42.24
48.29
51.22
51.82
50.92
49.28
47.46
45.84
44.6
43.75
43.2
42.84
42.61
42.53
42.67
43.13
43.95
45
46.01
46.56
46.25
44.94
42.76
40.16
37.64
35.54
33.95
32.66
31.34
29.68
27.54
25.05
22.57
20.76
20.5
22.52
26.99
32.98
38.36
40.19
35.82
23.97
5.45
-16.99
-39.73
-59.53
-74.54
-84.47
-90.07
-92.33
-91.93
-89.17
-84.25
-77.66
-70.22
-62.85
-56.22
-50.46
-45.2
-39.92
-34.37
-28.83
-24.05
-21.03
-20.55
-22.91
-27.89
-34.91
-43.24
-52.2
-61.09
-69.14
-75.59
-79.79
-81.61
-81.55
-80.6
-79.97
-80.53
-82.61
-85.97
-89.9
-93.49
-95.76
-95.7
-92.41
-85.15
-73.62
-58.17
-39.84
-20.25
-1.25
15.57
29.21
39.41
46.49
51.14
54.06
55.86
56.96
57.71
58.44
59.4
60.66
61.97
62.97
63.28
62.82
61.83
60.69
59.65
58.6
57.07
54.49
50.52
45.2
38.95
32.34
25.88
19.99
14.91
10.75
7.45
4.61
1.56
-2.58
-8.38
-15.72
-23.51
-29.91
-32.94
-31.18
-24.45
-13.83
-1.28
11.08
21.67
29.79
35.55
39.47
42.11
43.73
44.36
43.98
42.67
40.77
38.75
37.07
35.93
35.31
34.88
34.31
33.36
32.08
30.78
29.83
29.46
29.54
29.55
28.75
26.5
22.48
16.9
10.34
3.57
-2.81
-8.54
-13.78
-18.97
-24.64
-31.15
-38.51
-46.13
-52.9
-57.27
-57.69
-53.11
-43.4
-29.53
-13.37
2.91
17.4
28.93
37.14
42.37
45.25
46.4
46.33
45.35
43.69
41.6
39.33
37.16
35.3
33.84
32.73
31.8
30.86
29.81
28.65
27.52
26.52
25.65
24.66
23.13
20.62
16.75
11.45
4.99
-2.02
-8.89
-15.01
-20.14
-24.41
-28.29
-32.35
-37.07
-42.71
-49.24
-56.34
-63.28
-68.89
-71.72
-70.33
-63.83
-52.32
-36.98
-19.78
-2.9
11.96
23.9
32.83
39.12
43.32
45.86
47.05
47.21
46.65
45.72
44.68
43.64
42.58
41.42
40.13
38.76
37.41
36.19
35.13
34.16
33.09
31.69
29.79
27.25
24.03
20.13
15.58
10.43
4.73
-1.33
-7.52
-13.52
-19.05
-23.96
-28.26
-32.14
-35.92
-39.96
-44.63
-50.19
-56.69
-63.75
-70.44
-75.34
-76.82
-73.62
-65.27
-52.46
-36.77
-20.29
-4.92
8.05
18.14
25.57
30.89
34.7
37.35
39.01
39.72
39.49
38.48
36.94
35.18
33.4
31.67
29.91
28.03
25.96
23.74
21.46
19.22
17.08
15.03
12.99
10.81
8.28
5.1
1.04
-3.98
-9.82
-16.05
-22.09
-27.37
-31.5
-34.39
-36.31
-37.78
-39.52
-42.28
-46.62
-52.64
-59.78
-66.75
-71.75
-72.9
-68.87
-59.33
-45.18
-28.33
-11.12
4.34
16.78
25.89
32.19
36.59
39.9
42.55
44.6
45.85
46.1
45.38
43.93
42.18
40.51
39.13
37.98
36.84
35.43
33.62
31.49
29.27
27.23
25.48
23.87
22
19.41
15.73
10.88
5.04
-1.37
-7.81
-13.78
-18.92
-23.1
-26.46
-29.36
-32.39
-36.14
-41.12
-47.53
-54.98
-62.41
-68.14
-70.27
-67.32
-58.83
-45.65
-29.76
-13.56
0.92
12.58
21.32
27.63
32.15
35.22
36.93
37.23
36.3
34.58
32.7
31.25
30.48
30.27
30.17
29.67
28.48
26.67
24.63
22.82
21.54
20.68
19.78
18.24
15.6
11.7
6.75
1.17
-4.53
-9.9
-14.67
-18.73
-22.27
-25.66
-29.51
-34.36
-40.42
-47.3
-53.83
-58.38
-59.2
-55.08
-45.84
-32.46
-16.86
-1.25
12.39
22.91
30.02
34.15
36.03
36.39
35.79
34.64
33.3
32.06
31.13
30.53
30
29.17
27.7
25.54
23.04
20.76
19.26
18.71
18.84
18.91
18.11
15.78
11.73
6.27
0.09
-5.99
-11.3
-15.57
-19.02
-22.32
-26.39
-32.01
-39.51
-48.42
-57.44
-64.71
-68.24
-66.59
-59.32
-47.27
-32.24
-16.49
-2.1
9.64
18.35
24.47
28.76
31.97
34.49
36.4
37.53
37.77
37.17
35.95
34.48
33.09
31.97
31.16
30.51
29.84
28.96
27.76
26.23
24.39
22.29
19.95
17.35
14.36
10.83
6.58
1.55
-4.2
-10.38
-16.57
-22.32
-27.4
-31.86
-36.04
-40.52
-45.88
-52.49
-60.28
-68.59
-76.1
-81.08
-81.81
-77.12
-66.9
-52.2
-35.03
-17.67
-2.08
10.64
20.25
27.19
32.14
35.7
38.23
39.92
40.87
41.18
41
40.48
39.72
38.81
37.81
36.83
35.99
35.45
35.22
35.18
35
34.31
32.76
30.25
26.94
23.16
19.26
15.44
11.65
7.66
3.2
-1.89
-7.51
-13.36
-19.01
-24.09
-28.43
-32.11
-35.45
-38.92
-43.05
-48.32
-54.93
-62.64
-70.51
-76.94
-79.94
-77.75
-69.54
-55.83
-38.49
-20.09
-3.12
10.86
21.37
28.85
34.13
37.88
40.47
41.95
42.37
41.93
41.04
40.14
39.5
39.12
38.78
38.2
37.25
36.05
34.89
34.09
33.81
33.89
33.9
33.29
31.59
28.66
24.67
20.1
15.44
11.02
6.88
2.78
-1.66
-6.64
-12.12
-17.73
-22.97
-27.46
-31.11
-34.24
-37.39
-41.22
-46.19
-52.46
-59.71
-67.06
-73.12
-76.23
-74.85
-68.09
-56.09
-40.11
-22.27
-4.86
10.22
22
30.35
35.8
39.08
40.79
41.34
41.01
40.05
38.78
37.53
36.53
35.85
35.39
34.95
34.36
33.62
32.83
32.21
31.94
31.96
31.96
31.44
29.87
26.95
22.8
17.88
12.87
8.29
4.38
0.96
-2.38
-6.03
-10.19
-14.78
-19.53
-24.07
-28.11
-31.51
-34.38
-37.08
-40.14
-44.12
-49.36
-55.67
-62.17
-67.3
-69.23
-66.43
-58.25
-45.27
-29.14
-12.11
3.65
16.6
26.09
32.22
35.58
36.87
36.7
35.56
33.83
31.85
29.91
28.21
26.8
25.67
24.75
23.97
23.33
22.76
22.23
21.67
21.01
20.25
19.36
18.25
16.73
14.48
11.27
7.05
2.09
-3.13
-8.11
-12.54
-16.39
-19.87
-23.35
-27.17
-31.64
-36.95
-43.11
-49.76
-56.11
-60.89
-62.62
-60.06
-52.67
-40.91
-26.15
-10.32
4.64
17.25
26.76
33.04
36.46
37.52
36.78
34.74
31.95
29.01
26.46
24.67
23.71
23.3
22.92
22.08
20.51
18.34
16.04
14.17
13.14
12.89
12.95
12.57
11.01
7.83
3.13
-2.56
-8.49
-13.98
-18.65
-22.56
-26.12
-30
-34.82
-40.91
-48.06
-55.34
-61.23
-63.92
-61.9
-54.55
-42.37
-26.98
-10.55
4.82
17.69
27.47
34.28
38.6
40.96
41.77
41.31
39.87
37.79
35.44
33.16
31.11
29.34
27.77
26.28
24.81
23.41
22.15
21.12
20.3
19.54
18.53
16.91
14.37
10.74
6.13
0.88
-4.53
-9.67
-14.26
-18.3
-22.07
-25.97
-30.47
-35.83
-42.08
-48.77
-54.9
-59.05
-59.61
-55.35
-45.83
-31.71
-14.67
3.09
19.5
33.1
43.25
50.02
53.8
55.04
54.11
51.4
47.41
42.85
38.46
34.81
32.05
29.9
27.83
25.34
22.27
18.79
15.4
12.55
10.44
8.94
7.59
5.84
3.2
-0.57
-5.44
-11.13
-17.17
-22.97
-28.08
-32.21
-35.43
-38.16
-41.06
-44.83
-49.91
-56.26
-63.18
-69.3
-72.84
-72.14
-66.13
-54.79
-39.25
-21.45
-3.56
12.55
25.78
35.77
42.76
47.24
49.72
50.61
50.26
49.01
47.22
45.17
43.05
40.93
38.81
36.79
35.02
33.76
33.2
33.33
33.95
34.63
34.84
34.07
31.92
28.1
22.57
15.51
7.35
-1.25
-9.61
-17.18
-23.7
-29.25
-34.18
-38.93
-43.94
-49.54
-55.87
-62.73
-69.48
-74.94
-77.58
-75.87
-68.92
-56.86
-41.05
-23.69
-7.2
6.55
16.6
23.01
26.49
27.94
28.09
27.34
25.88
23.81
21.26
18.43
15.6
13.07
11.09
9.86
9.37
9.44
9.76
9.97
9.85
9.33
8.45
7.22
5.6
3.39
0.39
-3.47
-8.04
-12.93
-17.66
-21.81
-25.25
-28.09
-30.74
-33.64
-37.18
-41.55
-46.65
-52.03
-56.89
-60.04
-60.15
-56.12
-47.48
-34.75
-19.41
-3.5
10.96
22.52
30.58
35.26
37.06
36.56
34.26
30.65
26.4
22.25
18.91
16.87
16.13
16.28
16.67
16.73
16.21
15.28
14.42
14.06
14.38
15.06
15.43
14.66
12.16
7.83
2.13
-4.1
-9.95
-14.71
-18.1
-20.3
-21.86
-23.57
-26.2
-30.26
-35.69
-41.6
-46.29
-47.61
-43.66
-33.54
-17.9
1.08
20.38
37.13
49.5
57.21
61.32
63.52
65.39
67.73
70.48
72.99
74.57
74.97
74.54
74.2
74.95
77.57
82.32
88.86
96.33
103.43
108.53
109.93
106.29
97.08
82.98
65.82
48.12
32.26
19.78
11.11
5.85
3.25
2.67
3.63
5.53
7.33
7.62
5.11
-0.75
-9.27
-18.57
-26.04
-29.05
-25.54
-14.5
3.6
26.44
49.73
67.89
75.59
69.78
51.39
25.53
-0.2
-18.73
-26.45
-24.55
-17.95
-12.57
-12.33
-17.49
-25.23
-31.69
-34.49
-33.86
-32.31
-33.13
-38.71
-49.84
-65.94
-85.95
-108.99
-134.42
-161.08
-186.6
-207.44
-219.74
-220.82
-210.35
-190.55
-165.27
-138.66
-114.09
-93.82
-79.38
-71.89
-71.92
-78.94
-90.84
-104.25
-115.62
-122.6
-124.91
-123.95
-121.61
-119.07
-116.17
-111.8
-104.82
-94.64
-81.28
-64.99
-45.81
-23.67
1.34
28.52
56.56
83.74
108.4
129.23
145.44
156.83
163.89
167.73
169.91
172.13
175.73
181.3
188.58
196.54
203.82
209.2
212.1
212.92
212.97
214.07
217.95
225.45
236.23
248.8
261.12
271.32
278.15
281.16
280.39
275.94
267.6
254.79
236.83
213.34
184.66
151.93
116.88
81.31
46.57
13.35
-18.21
-48.07
-75.84
-100.63
-121.28
-136.94
-147.53
-154.07
-158.54
-163.49
-171.55
-184.87
-204.51
-230.09
-259.5
-289.26
-315.3
-334.09
-343.68
-344.25
-337.69
-326.69
-313.71
-300.26
-286.91
-273.78
-261.02
-249.05
-238.3
-228.64
-218.98
-207.29
-191.16
-168.62
-138.97
-103.16
-63.63
-23.7
13.21
44.14
66.91
80.35
84.49
80.75
71.92
61.6
53.25
49.04
49.26
52.47
56.48
59.41
60.39
59.47
57.13
53.67
49.07
43.32
36.8
30.45
25.61
23.48
24.67
29.02
35.62
43.08
49.93
55.09
58.13
59.44
60.03
61.01
62.98
65.62
67.64
67.21
62.72
53.47
40.08
24.43
9.17
-3.1
-10.57
-12.68
-10.11
-4.29
3.2
11.24
19.23
27.07
34.95
43.01
51.13
58.56
63.76
64.47
58.33
43.77
20.84
-8.53
-41.1
-73.35
-102.74
-128.04
-149.1
-166.08
-178.78
-186.5
-188.43
-184.17
-173.99
-158.93
-140.45
-120.26
-100.08
-81.62
-66.44
-55.86
-50.74
-51.23
-56.67
-65.47
-75.38
-83.82
-88.6
-88.43
-83.15
-73.68
-61.4
-47.64
-33.24
-18.51
-3.55
11.48
26.01
39.2
49.92
57.17
60.23
58.94
53.77
45.8
36.56
27.81
21.07
17.3
16.68
18.54
21.62
24.44
25.71
24.73
21.45
16.45
10.72
5.31
1.13
-1.28
-1.89
-1.27
-0.42
-0.46
-2.23
-5.92
-11.06
-16.68
-21.72
-25.3
-26.75
-25.67
-21.94
-15.9
-8.64
-1.99
2.01
2.06
-1.39
-5.81
-7.28
-1.97
12.22
34.84
63.22
93.82
123.7
151.18
175.63
196.55
212.97
223.63
227.73
225.77
219.79
212.61
206.6
202.72
200.32
197.84
194.13
189.35
185.31
184.74
189.93
201.39
217.1
233.02
244.53
248.44
244.42
235.16
224.9
217.41
214.05
213.3
211.7
205.5
191.99
170.18
140.74
105.74
68.48
33.07
3.5
-17.9
-31.86
-42.3
-54.83
-74.14
-101.54
-134.25
-166.58
-192.61
-208.62
-214.35
-212.73
-208.54
-206.76
-211.13
-223.08
-241.16
-261.32
-278.26
-287.15
-285.27
-272.69
-251.86
-226.61
-201.07
-179.35
-165.18
-161.2
-167.76
-181.78
-197.22
-207.1
-206.71
-196.02
-179.81
-165.22
-158.15
-160.56
-170.12
-181.9
-190.94
-193.96
-189.55
-177.32
-156.92
-127.72
-89.52
-43.54
7.03
57.55
103.08
139.92
166.69
184.54
196.48
206.13
216.51
229.13
243.58
257.71
268.28
272.01
266.57
251.45
228.19
199.91
170.22
142.21
117.75
97.44
81.08
68.08
57.56
48.36
38.86
27.34
12.53
-5.75
-26.37
-47.35
-66.57
-82.57
-94.82
-103.61
-109.54
-113.12
-114.66
-114.31
-112.28
-108.72
-103.62
-96.66
-87.15
-74.46
-58.41
-39.76
-20.25
-2.15
12.46
22.29
27.18
27.77
25.13
20.31
14.19
7.42
0.74
-5.04
-9.17
-11.23
-11.28
-9.93
-8.11
-6.64
-6.02
-6.17
-6.62
-6.76
-6.16
-4.69
-2.65
-0.57
0.93
1.34
0.48
-1.56
-4.53
-8.21
-12.58
-17.79
-23.9
-30.68
-37.52
-43.54
-48.02
-50.71
-52
-52.73
-53.77
-55.61
-58.18
-61.01
-63.5
-65.28
-66.28
-66.77
-67.04
-67.22
-67.21
-66.66
-65.14
-62.32
-58.12
-52.67
-46.28
-39.32
-32.16
-25.12
-18.49
-12.48
-7.21
-2.64
1.26
4.54
7.05
8.57
8.81
7.67
5.43
2.66
0.08
-1.75
-2.53
-2.33
-1.36
0.18
2.02
3.9
5.47
6.46
6.86
7.01
7.44
8.63
10.66
13.11
15.2
16.2
15.77
14.07
11.65
9.11
6.85
5.01
3.55
2.44
1.7
1.4
1.54
2.02
2.65
3.16
3.32
2.95
1.96
0.32
-2.03
-5.15
-9.09
-13.82
-19.18
-24.85
-30.32
-35.06
-38.64
-40.76
-41.32
-40.33
-37.85
-33.94
-28.66
-22.11
-14.47
-6.1
2.43
10.39
17.02
21.81
24.69
26.03
26.58
27.06
27.91
29.22
30.73
32.24
33.62
34.95
36.38
37.89
39.3
40.24
40.4
39.54
37.65
34.82
31.15
26.7
21.42
15.21
7.95
-0.31
-9.38
-18.73
-27.67
-35.38
-41.12
-44.27
-44.44
-41.49
-35.53
-26.97
-16.45
-4.86
6.93
18.13
28.26
37.07
44.52
50.68
55.63
59.5
62.47
64.79
66.6
67.94
68.72
68.78
68.08
66.77
65.16
63.55
62.15
60.89
59.46
57.47
54.57
50.58
45.54
39.69
33.38
26.97
20.71
14.62
8.51
1.98
-5.41
-13.89
-23.34
-33.18
-42.32
-49.39
-53.01
-52.13
-46.4
-36.28
-22.97
-8.09
6.76
20.36
32.05
41.68
49.35
55.23
59.41
62
63.15
63.17
62.52
61.66
60.9
60.35
59.93
59.43
58.74
57.82
56.71
55.48
54.11
52.45
50.35
47.61
44.2
40.14
35.54
30.53
25.24
19.81
14.38
9.05
3.88
-1.21
-6.42
-12.07
-18.42
-25.66
-33.7
-42.08
-49.94
-56.11
-59.38
-58.78
-53.92
-45.14
-33.44
-20.2
-6.92
5.24
15.55
23.8
30.2
35.16
39.12
42.4
45.15
47.35
48.95
49.87
50.14
49.84
49.08
48.03
46.9
45.93
45.31
45.07
45.05
44.92
44.26
42.8
40.48
37.43
33.96
30.35
26.74
23.09
19.25
15.01
10.24
4.94
-0.71
-6.43
-12.01
-17.43
-22.9
-28.76
-35.24
-42.21
-49.03
-54.69
-58.07
-58.26
-54.91
-48.23
-38.92
-27.92
-16.21
-4.67
5.99
15.24
22.76
28.51
32.66
35.6
37.75
39.44
40.77
41.73
42.23
42.24
41.91
41.44
41
40.61
40.13
39.37
38.2
36.6
34.61
32.3
29.65
26.56
22.94
18.84
14.4
9.85
5.38
1.03
-3.3
-7.75
-12.46
-17.5
-22.92
-28.72
-34.88
-41.23
-47.39
-52.72
-56.39
-57.57
-55.63
-50.39
-42.22
-31.93
-20.66
-9.52
0.57
9.05
15.71
20.59
23.91
25.96
27.06
27.53
27.63
27.55
27.33
26.93
26.28
25.35
24.17
22.88
21.6
20.47
19.55
18.78
17.96
16.78
14.9
12.12
8.47
4.28
-0.06
-4.14
-7.85
-11.35
-15
-19.2
-24.21
-30.06
-36.48
-42.81
-48.13
-51.33
-51.43
-47.9
-40.88
-31.23
-20.28
-9.39
0.44
8.7
15.31
20.43
24.22
26.73
28.04
28.27
27.68
26.6
25.36
24.15
23.01
21.96
20.96
20.02
19.2
18.5
17.87
17.18
16.26
14.95
13.13
10.73
7.75
4.26
0.39
-3.65
-7.64
-11.39
-14.9
-18.36
-22.15
-26.65
-32.03
-38.07
-44.14
-49.3
-52.58
-53.2
-50.78
-45.39
-37.48
-27.81
-17.28
-6.82
2.75
10.82
17.05
21.44
24.24
25.84
26.64
26.93
26.85
26.49
25.87
25.05
24.08
22.98
21.75
20.39
18.92
17.47
16.2
15.23
14.5
13.71
12.43
10.23
6.96
2.82
-1.76
-6.23
-10.21
-13.62
-16.67
-19.73
-23.23
-27.45
-32.54
-38.37
-44.51
-50.17
-54.29
-55.79
-53.95
-48.66
-40.47
-30.5
-19.97
-9.91
-0.93
6.74
13.12
18.31
22.32
25.1
26.63
26.98
26.37
25.17
23.83
22.82
22.41
22.65
23.29
23.9
24.04
23.43
22.01
19.98
17.64
15.34
13.25
11.41
9.65
7.71
5.33
2.34
-1.24
-5.28
-9.51
-13.74
-17.86
-21.91
-26.06
-30.55
-35.56
-41.04
-46.54
-51.21
-53.96
-53.71
-49.83
-42.44
-32.45
-21.28
-10.42
-0.95
6.66
12.45
16.78
19.96
22.17
23.51
24.06
24.05
23.78
23.52
23.4
23.31
23.02
22.38
21.34
20.08
18.84
17.84
17.12
16.49
15.68
14.46
12.75
10.65
8.31
5.81
3.08
0.02
-3.46
-7.3
-11.29
-15.16
-18.74
-22.06
-25.4
-29.07
-33.34
-38.25
-43.52
-48.58
-52.63
-54.78
-54.3
-50.78
-44.33
-35.52
-25.33
-14.85
-5.14
3.08
9.4
13.8
16.52
17.92
18.4
18.33
17.99
17.57
17.18
16.84
16.49
16.03
15.37
14.55
13.66
12.91
12.43
12.22
12.02
11.48
10.24
8.07
5
1.28
-2.71
-6.59
-10.11
-13.28
-16.29
-19.51
-23.32
-27.98
-33.51
-39.59
-45.53
-50.41
-53.2
-53.04
-49.45
-42.58
-33.15
-22.37
-11.5
-1.63
6.66
13.24
18.27
21.98
24.46
25.72
25.82
25.01
23.73
22.48
21.58
21.06
20.68
20.16
19.31
18.22
17.12
16.21
15.57
15.03
14.28
13
11
8.27
5.02
1.52
-1.94
-5.2
-8.28
-11.39
-14.89
-19.11
-24.26
-30.31
-36.93
-43.51
-49.18
-52.88
-53.72
-51.09
-44.98
-35.95
-25.06
-13.59
-2.76
6.54
13.8
18.97
22.25
24.06
24.81
24.84
24.4
23.69
22.89
22.23
21.85
21.79
21.88
21.76
21.12
19.81
18.01
16.1
14.46
13.27
12.34
11.21
9.3
6.27
2.14
-2.68
-7.59
-12.04
-15.75
-18.83
-21.65
-24.74
-28.48
-33.14
-38.7
-44.91
-51.21
-56.74
-60.42
-61.16
-58.27
-51.68
-42.09
-30.73
-18.93
-7.79
2.15
10.74
18.06
24.17
29.03
32.59
34.91
36.25
37.04
37.7
38.54
39.68
41.11
42.76
44.6
46.61
48.72
50.85
52.84
54.55
56.01
57.32
58.69
60.23
61.9
63.48
64.71
65.52
66.08
66.8
68.12
70.33
73.39
76.96
80.58
83.98
87.22
90.72
95.12
100.84
107.94
116.01
124.22
131.47
136.56
138.18
135.04
126.05
110.8
89.94
65.3
39.62
15.78
-4.12
-19.36
-30.67
-39.71
-48.25
-57.53
-68
-79.34
-90.84
-101.56
-110.63
-117.26
-120.87
-121.31
-118.83
-114.23
-108.56
-102.86
-97.88
-93.94
-90.98
-88.72
-86.88
-85.28
-83.81
-82.42
-81.1
-79.88
-78.79
-77.9
-77.24
-76.79
-76.44
-76.14
-75.85
-75.64
-75.48
-75.18
-74.24
-71.99
-67.85
-61.7
-54
-45.74
-38.01
-31.62
-26.74
-23.01
-19.77
-16.48
-12.96
-9.44
-6.32
-3.94
-2.46
-1.73
-1.54
-1.62
-1.87
-2.24
-2.76
-3.42
-4.12
-4.77
-5.32
-5.84
-6.46
-7.42
-8.85
-10.79
-13.16
-15.77
-18.43
-20.99
-23.46
-25.89
-28.4
-31.08
-33.98
-37.09
-40.39
-43.89
-47.62
-51.6
-55.78
-59.98
-63.95
-67.42
-70.25
-72.36
-73.78
-74.42
-74.06
-72.33
-68.84
-63.41
-56.17
-47.54
-38.07
-28.29
-18.54
-8.99
0.2
8.82
16.55
23.09
28.3
32.37
35.71
38.8
42.06
45.64
49.38
52.95
55.97
58.05
58.92
58.49
56.87
54.35
51.3
48.07
44.79
41.32
37.36
32.59
26.88
20.38
13.43
6.38
-0.65
-7.78
-15.21
-23.09
-31.29
-39.38
-46.7
-52.5
-56.04
-56.76
-54.31
-48.68
-40.24
-29.68
-17.92
-5.89
5.64
16.13
25.35
33.25
39.93
45.48
50.02
53.61
56.3
58.17
59.31
59.9
60.13
60.17
60.13
60.05
59.89
59.5
58.71
57.32
55.17
52.22
48.57
44.44
40.09
35.74
31.48
27.31
23.11
18.73
14.02
8.89
3.3
-2.7
-9.03
-15.59
-22.35
-29.3
-36.45
-43.75
-50.97
-57.75
-63.51
-67.55
-69.18
-67.81
-63.2
-55.52
-45.4
-33.8
-21.77
-10.18
0.39
9.67
17.6
24.19
29.48
33.54
36.5
38.59
40.04
41.08
41.86
42.48
42.95
43.27
43.38
43.24
42.8
42.01
40.86
39.35
37.41
34.98
32.01
28.53
24.65
20.58
16.44
12.22
7.77
2.86
-2.61
-8.59
-14.81
-21
-27.02
-32.96
-39.11
-45.73
-53.02
-60.83
-68.76
-76.07
-81.81
-84.9
-84.41
-79.8
-71.16
-59.36
-45.75
-31.87
-18.94
-7.62
2.02
10.24
17.31
23.37
28.37
32.24
35.03
36.96
38.34
39.43
40.38
41.22
41.89
42.36
42.62
42.68
42.49
41.94
40.86
39.13
36.75
33.8
30.4
26.66
22.57
18.02
12.92
7.21
0.99
-5.54
-12.16
-18.74
-25.29
-31.96
-39.05
-46.87
-55.57
-64.98
-74.45
-82.83
-88.64
-90.46
-87.34
-79.16
-66.66
-51.28
-34.77
-18.72
-4.25
8.04
18.01
25.76
31.45
35.25
37.4
38.34
38.61
38.81
39.34
40.26
41.29
42.03
42.19
41.8
41.14
40.6
40.34
40.2
39.69
38.24
35.46
31.25
25.87
19.78
13.45
7.25
1.34
-4.36
-10.1
-16.28
-23.29
-31.42
-40.75
-50.92
-61.06
-69.8
-75.47
-76.55
-72.14
-62.33
-48.23
-31.66
-14.61
1.31
15.17
26.69
35.97
43.21
48.5
51.85
53.34
53.27
52.21
50.84
49.81
49.47
49.7
50.08
50
49.03
47.13
44.6
42
39.77
38.02
36.43
34.41
31.34
26.86
20.97
14.06
6.68
-0.65
-7.63
-14.22
-20.65
-27.28
-34.49
-42.59
-51.72
-61.8
-72.28
-82.08
-89.62
-93.07
-90.88
-82.43
-68.32
-50.32
-30.85
-12.21
3.97
16.99
26.94
34.26
39.47
42.97
45.07
46.09
46.37
46.31
46.24
46.35
46.67
47.1
47.43
47.46
47.06
46.23
45.09
43.78
42.36
40.76
38.79
36.13
32.53
27.83
22.06
15.44
8.32
1.09
-5.94
-12.72
-19.43
-26.44
-34.19
-42.97
-52.78
-63.28
-73.74
-82.96
-89.44
-91.58
-88.16
-78.77
-64.12
-46.02
-26.82
-8.74
6.77
19.27
29.06
36.75
42.75
47.14
49.84
50.89
50.66
49.79
48.95
48.54
48.57
48.72
48.63
48.06
47.05
45.78
44.47
43.17
41.75
39.94
37.48
34.17
29.91
24.71
18.69
12.09
5.27
-1.42
-7.73
-13.66
-19.46
-25.55
-32.35
-40.16
-49.04
-58.83
-69.01
-78.64
-86.39
-90.6
-89.83
-83.3
-71.3
-55.24
-37.19
-19.29
-3.11
10.48
21.25
29.29
34.72
37.72
38.6
37.91
36.4
34.87
33.86
33.58
33.87
34.33
34.57
34.31
33.56
32.53
31.54
30.84
30.38
29.79
28.38
25.51
20.82
14.49
7.15
-0.37
-7.42
-13.75
-19.64
-25.68
-32.56
-40.78
-50.5
-61.33
-72.27
-81.76
-87.93
-89.08
-84.21
-73.37
-57.74
-39.3
-20.26
-2.52
12.72
24.95
34.25
41.01
45.71
48.76
50.49
51.12
50.89
50.06
48.99
48.01
47.33
46.93
46.57
45.94
44.8
43.17
41.27
39.35
37.56
35.74
33.51
30.41
26.1
20.52
13.93
6.8
-0.4
-7.33
-13.93
-20.42
-27.21
-34.78
-43.5
-53.52
-64.5
-75.57
-85.21
-91.58
-92.92
-88.1
-77.07
-61
-41.91
-22.17
-3.78
11.96
24.56
34.09
40.94
45.56
48.39
49.83
50.3
50.2
49.87
49.52
49.21
48.95
48.7
48.46
48.21
47.91
47.49
46.82
45.74
44.1
41.83
38.91
35.34
31.13
26.24
20.64
14.33
7.48
0.37
-6.73
-13.63
-20.32
-27.04
-34.1
-41.82
-50.44
-60.03
-70.48
-81.34
-91.71
-100.22
-105.16
-104.88
-98.41
-85.82
-68.37
-48.18
-27.62
-8.69
7.43
20.35
30.3
37.76
43.23
47.11
49.72
51.36
52.38
53.1
53.76
54.44
55.09
55.6
55.9
55.99
55.95
55.86
55.69
55.26
54.33
52.65
50.08
46.59
42.31
37.41
32.06
26.42
20.62
14.72
8.78
2.85
-3.05
-8.85
-14.55
-20.23
-26.08
-32.43
-39.69
-48.15
-57.8
-68.06
-77.63
-84.62
-86.95
-82.93
-71.87
-54.51
-32.87
-9.7
12.38
31.53
47.03
59.14
68.66
76.44
83.12
88.99
94.15
98.59
102.23
104.85
106.15
105.73
103.28
98.73
92.42
85.05
77.5
70.63
64.98
60.71
57.6
55.27
53.32
51.61
50.22
49.38
49.2
49.47
49.63
48.81
46.18
41.17
33.77
24.48
14.17
3.8
-5.77
-13.96
-20.41
-24.99
-27.82
-29.23
-29.75
-29.99
-30.37
-30.94
-31.22
-30.45
-27.89
-23.28
-17.03
-10.15
-3.88
0.81
3.57
4.67
4.81
4.71
4.83
5.23
5.75
6.16
6.4
6.81
8.06
11.24
17.61
28.34
44.17
64.88
88.97
113.56
134.72
148.39
151.34
142.13
121.45
91.84
56.77
19.73
-16.63
-50.71
-81.76
-109.52
-133.83
-154.58
-171.79
-185.72
-196.78
-205.38
-211.66
-215.48
-216.64
-215.06
-211.18
-205.85
-200.02
-194.29
-188.53
-181.98
-173.52
-162.39
-148.5
-132.58
-115.88
-99.63
-84.65
-71.22
-59.21
-48.33
-38.38
-29.29
-21.1
-13.8
-7.3
-1.49
3.77
8.49
12.59
15.89
18.21
19.42
19.44
18.33
16.17
13.11
9.32
4.96
0.2
-4.79
-9.99
-15.48
-21.49
-28.29
-35.95
-44.18
-52.35
-59.48
-64.56
-66.75
-65.49
-60.63
-52.35
-41.18
-27.91
-13.61
0.56
13.55
24.67
33.64
40.6
45.86
49.79
52.59
54.35
55.18
55.26
54.94
54.59
54.48
54.68
54.97
55.01
54.43
53.01
50.75
47.89
44.71
41.42
38.06
34.4
30.08
24.79
18.38
11.06
3.23
-4.58
-11.96
-18.82
-25.38
-32.1
-39.44
-47.67
-56.64
-65.8
-74.18
-80.55
-83.65
-82.46
-76.46
-65.88
-51.68
-35.39
-18.7
-3.09
10.5
21.73
30.72
37.82
43.42
47.76
51.03
53.37
54.93
55.89
56.45
56.79
57.06
57.39
57.89
58.54
59.17
59.48
59.15
57.89
55.59
52.35
48.37
43.91
39.13
34.12
28.88
23.37
17.58
11.59
5.46
-0.71
-6.9
-13.13
-19.49
-26.05
-32.91
-40.14
-47.71
-55.4
-62.7
-68.76
-72.57
-73.06
-69.51
-61.74
-50.27
-36.24
-21.09
-6.32
6.91
17.85
26.27
32.34
36.51
39.25
40.99
41.99
42.38
42.28
41.85
41.31
40.91
40.76
40.85
40.97
40.84
40.23
39.06
37.4
35.31
32.81
29.83
26.28
22.18
17.67
13.02
8.43
3.93
-0.61
-5.36
-10.41
-15.65
-20.86
-25.89
-30.81
-35.93
-41.62
-48.01
-54.79
-61.19
-66.19
-68.84
-68.52
-65
-58.45
-49.29
-38.14
-25.78
-13.11
-1.07
9.56
18.27
24.89
29.57
32.61
34.36
35.17
35.39
35.34
35.34
35.52
35.84
36.06
35.89
35.13
33.73
31.89
29.82
27.74
25.65
23.38
20.68
17.35
13.35
8.81
4.03
-0.76
-5.4
-9.96
-14.6
-19.49
-24.78
-30.54
-36.78
-43.41
-50.19
-56.64
-62.05
-65.59
-66.54
-64.52
-59.55
-51.99
-42.38
-31.32
-19.36
-7.12
4.7
15.38
24.29
31.04
35.61
38.31
39.64
40.2
40.49
40.86
41.49
42.36
43.33
44.12
44.48
44.18
43.12
41.34
38.97
36.18
33.12
29.88
26.47
22.86
19.01
14.92
10.64
6.23
1.76
-2.87
-7.77
-13.15
-19.14
-25.78
-32.96
-40.42
-47.67
-54.05
-58.7
-60.83
-59.86
-55.64
-48.58
-39.41
-29.02
-18.15
-7.28
3.27
13.18
22.14
29.75
35.75
39.97
42.45
43.28
42.68
41.09
39.22
38.06
38.6
41.43
46.4
52.55
58.39
62.43
63.65
61.72
56.91
49.79
40.9
30.52
18.78
5.71
-8.58
-23.79
-39.47
-55.07
-69.99
-83.74
-95.94
-106.42
-115.25
-122.72
-129.16
-134.67
-138.97
-141.27
-140.58
-136.1
-127.71
-116.15
-102.81
-89.33
-76.9
-66.04
-56.53
-47.81
-39.33
-30.88
-22.65
-14.98
-8.17
-2.33
2.63
6.92
10.68
13.96
16.71
18.87
20.5
21.79
23.03
24.46
26.16
27.93
29.39
30.08
29.63
27.85
24.76
20.54
15.43
9.71
3.63
-2.63
-9.01
-15.61
-22.65
-30.4
-39.08
-48.74
-59.14
-69.65
-79.24
-86.55
-90.08
-88.59
-81.43
-68.85
-51.97
-32.58
-12.68
5.99
22.2
35.34
45.3
52.27
56.59
58.67
58.99
58.07
56.52
54.87
53.54
52.69
52.26
52.06
51.89
51.65
51.32
50.86
50.11
48.7
46.14
42.06
36.38
29.4
21.75
14.03
6.63
-0.48
-7.71
-15.74
-25.19
-36.35
-48.87
-61.62
-72.78
-80.08
-81.51
-75.85
-63.2
-44.94
-23.47
-1.47
18.77
35.78
49.02
58.65
65.15
69.12
71.05
71.41
70.65
69.22
67.54
65.85
64.23
62.59
60.77
58.75
56.61
54.56
52.73
51.06
49.21
46.62
42.71
37.13
29.9
21.5
12.63
4.01
-3.99
-11.47
-19.01
-27.44
-37.48
-49.38
-62.63
-75.85
-86.96
-93.61
-93.8
-86.53
-72.2
-52.56
-30.27
-8.12
11.72
28.09
40.79
50.26
57.1
61.73
64.38
65.22
64.57
62.93
60.94
59.14
57.79
56.83
55.97
54.96
53.69
52.28
50.92
49.65
48.24
46.21
42.99
38.14
31.57
23.52
14.55
5.36
-3.5
-11.68
-19.23
-26.57
-34.38
-43.38
-54.02
-66.17
-78.9
-90.45
-98.52
-100.91
-96.2
-84.29
-66.48
-45.12
-22.92
-2.14
15.78
30.31
41.62
50.14
56.35
60.69
63.54
65.27
66.23
66.66
66.71
66.45
65.9
65.13
64.22
63.3
62.51
61.83
61.16
60.17
58.48
55.76
51.84
46.86
41.12
34.97
28.65
22.17
15.4
8.19
0.48
-7.61
-15.84
-23.93
-31.63
-38.89
-45.89
-53.02
-60.83
-69.79
-80.02
-90.99
-101.38
-109.22
-112.3
-108.83
-98.13
-80.92
-59.18
-35.65
-13.01
6.79
22.84
35.16
44.31
50.93
55.53
58.45
60
60.6
60.76
60.91
61.28
61.81
62.26
62.36
62.04
61.38
60.6
59.85
59.04
57.83
55.75
52.44
47.81
42.12
35.86
29.54
23.48
17.64
11.72
5.26
-2.05
-10.21
-18.91
-27.58
-35.66
-42.84
-49.2
-55.23
-61.66
-69.19
-78.13
-88.16
-98.23
-106.67
-111.56
-111.2
-104.64
-91.97
-74.39
-53.87
-32.71
-12.94
4.07
17.71
28.05
35.58
40.86
44.34
46.36
47.15
46.99
46.25
45.38
44.79
44.72
45.26
46.24
47.39
48.36
48.8
48.43
47.16
45.04
42.28
39.14
35.78
32.21
28.22
23.52
17.9
11.39
4.27
-3.01
-10.02
-16.46
-22.36
-27.94
-33.64
-39.98
-47.47
-56.36
-66.39
-76.56
-85.2
-90.16
-89.51
-82.11
-68.15
-49.19
-27.74
-6.54
12.17
27.11
37.98
45.27
49.77
52.23
53.17
52.9
51.59
49.44
46.77
43.96
41.39
39.31
37.82
36.88
36.35
36.02
35.63
34.89
33.53
31.36
28.32
24.53
20.13
15.25
9.93
4.1
-2.28
-9.14
-16.26
-23.32
-30.06
-36.38
-42.36
-48.27
-54.42
-61.17
-68.78
-77.24
-86.09
-94.24
-100.01
-101.54
-97.29
-86.72
-70.53
-50.63
-29.51
-9.61
7.35
20.61
30.22
36.71
40.78
43.02
43.93
43.96
43.52
43
42.68
42.66
42.89
43.25
43.6
43.88
44.02
43.9
43.33
42.06
39.84
36.6
32.46
27.72
22.78
17.93
13.27
8.69
4.01
-1
-6.46
-12.34
-18.51
-24.81
-31.08
-37.24
-43.27
-49.21
-55.03
-60.56
-65.39
-68.8
-69.87
-67.66
-61.52
-51.37
-37.86
-22.29
-6.33
8.37
20.56
29.67
35.75
39.38
41.35
42.45
43.18
43.76
44.09
43.89
42.87
40.81
37.7
33.64
28.85
23.54
17.96
12.37
7.13
2.56
-1.14
-4.04
-6.52
-9.18
-12.6
-17.14
-22.75
-29.07
-35.57
-41.81
-47.66
-53.3
-59.2
-65.9
-73.81
-83.01
-93.12
-103.19
-111.75
-116.99
-117.15
-111.01
-98.33
-80.01
-57.96
-34.53
-11.97
8.1
24.8
37.91
47.59
54.17
58.07
59.81
60.01
59.34
58.37
57.45
56.68
55.88
54.78
53.18
51.04
48.52
45.87
43.33
40.9
38.33
35.15
30.83
24.96
17.53
8.95
-0.07
-8.75
-16.59
-23.48
-29.83
-36.31
-43.7
-52.55
-63.02
-74.62
-86.23
-96.1
-102.12
-102.36
-95.63
-81.99
-62.89
-40.77
-18.43
1.71
18.12
30.29
38.45
43.27
45.49
45.8
44.78
42.92
40.57
38
35.39
32.85
30.51
28.51
26.98
25.95
25.33
24.79
23.86
22.01
18.78
13.98
7.72
0.39
-7.46
-15.3
-22.86
-30.18
-37.63
-45.86
-55.47
-66.69
-79.04
-91.07
-100.52
-104.8
-101.78
-90.6
-72.06
-48.51
-23.16
0.85
21.18
36.76
47.6
54.4
58.08
59.39
58.89
57.01
54.17
50.85
47.5
44.45
41.82
39.6
37.72
36.12
34.71
33.34
31.71
29.41
26.01
21.22
15
7.59
-0.59
-9.11
-17.64
-26.11
-34.74
-44.01
-54.5
-66.56
-79.92
-93.3
-104.48
-110.75
-109.68
-100.08
-82.47
-59.09
-33.13
-7.85
14.4
32.49
46.37
56.53
63.5
67.65
69.2
68.56
66.42
63.67
61.19
59.45
58.43
57.66
56.56
54.69
52.02
48.91
45.84
43.17
40.86
38.44
35.12
30.12
23
13.86
3.37
-7.48
-17.71
-26.75
-34.64
-42.04
-49.99
-59.53
-71.19
-84.6
-98.27
-109.73
-116.1
-114.9
-104.86
-86.44
-61.8
-34.18
-6.96
17.19
36.82
51.71
62.47
69.99
75.11
78.38
80.11
80.55
79.96
78.66
77.03
75.36
73.81
72.38
70.96
69.37
67.52
65.31
62.66
59.48
55.62
50.93
45.3
38.73
31.26
23.06
14.26
5.02
-4.49
-14.05
-23.44
-32.48
-41.05
-49.23
-57.26
-65.66
-74.95
-85.52
-97.21
-108.98
-118.92
-124.48
-123.25
-113.73
-96.04
-72.02
-44.69
-17.43
6.99
26.92
41.94
52.49
59.45
63.75
66.17
67.38
67.97
68.38
68.83
69.35
69.71
69.67
69.03
67.8
66.21
64.6
63.27
62.3
61.49
60.38
58.43
55.16
50.43
44.46
37.81
31.16
25.03
19.6
14.62
9.59
4.04
-2.2
-8.95
-15.78
-22.25
-28.17
-33.69
-39.23
-45.37
-52.55
-60.99
-70.38
-79.7
-87.14
-90.34
-86.97
-75.57
-56.27
-30.9
-2.49
25.63
50.8
71.5
87.17
97.74
103.1
102.99
97.22
86.09
70.59
52.3
32.98
14.21
-2.81
-17.23
-28.43
-35.93
-39.57
-39.57
-36.61
-31.64
-25.54
-18.83
-11.53
-3.39
5.84
16.08
26.76
36.94
45.55
51.71
54.88
54.98
52.3
47.41
40.98
33.59
25.61
17.09
7.81
-2.58
-14.34
-27.39
-41.18
-54.74
-66.9
-76.56
-82.94
-85.6
-84.4
-79.34
-70.61
-58.73
-44.7
-30.14
-16.98
-7.13
-1.98
-2.09
-7.07
-15.73
-26.4
-37.22
-46.49
-53
-56.17
-56.17
-53.72
-49.77
-45.24
-40.69
-36.3
-32.08
-28.02
-24.28
-21.22
-19.27
-18.79
-19.89
-22.41
-25.91
-29.84
-33.68
-37.16
-40.27
-43.3
-46.81
-51.48
-57.87
-66.15
-75.83
-85.5
-93.02
-95.97
-92.34
-81.24
-63.32
-40.58
-15.82
8.15
29.25
46.41
59.5
68.95
75.35
79.19
80.85
80.69
79.09
76.56
73.63
70.75
68.18
65.98
64.05
62.18
60.18
57.93
55.43
52.8
50.14
47.44
44.47
40.81
36.03
29.85
22.34
13.9
5.16
-3.31
-11.19
-18.5
-25.5
-32.63
-40.28
-48.79
-58.3
-68.6
-79.01
-88.15
-94.18
-95.12
-89.54
-77.13
-58.93
-37.14
-14.42
6.8
24.9
39.16
49.61
56.59
60.54
61.94
61.34
59.4
56.86
54.32
52.08
50.14
48.23
46.08
43.58
40.88
38.3
36.21
34.76
33.72
32.56
30.53
26.97
21.64
14.73
6.88
-1.14
-8.68
-15.49
-21.72
-27.89
-34.64
-42.54
-51.84
-62.28
-72.98
-82.39
-88.54
-89.45
-83.8
-71.38
-53.36
-31.92
-9.71
10.88
28.23
41.62
50.99
56.72
59.31
59.3
57.3
54.02
50.14
46.28
42.79
39.73
36.98
34.32
31.62
28.94
26.41
24.2
22.3
20.46
18.22
15.11
10.8
5.23
-1.34
-8.44
-15.58
-22.38
-28.78
-35
-41.61
-49.26
-58.45
-69.01
-79.92
-89.22
-94.54
-93.73
-85.74
-70.98
-51.34
-29.54
-8.4
9.92
24.25
34.37
40.69
43.85
44.51
43.22
40.4
36.52
31.98
27.25
22.74
18.84
15.74
13.52
12.08
11.19
10.51
9.65
8.23
5.92
2.54
-1.99
-7.56
-13.97
-20.96
-28.36
-36.15
-44.49
-53.68
-63.84
-74.66
-85.07
-93.25
-96.95
-94.21
-84.08
-67.16
-45.53
-22.15
-0.05
18.57
32.65
42.25
48.01
50.79
51.25
49.86
46.99
43.06
38.58
34.15
30.23
27.13
24.85
23.16
21.68
20
17.82
14.99
11.47
7.3
2.53
-2.84
-8.78
-15.33
-22.54
-30.6
-39.8
-50.37
-62.24
-74.66
-85.97
-93.82
-95.76
-90.02
-76.3
-55.92
-31.59
-6.51
16.48
35.48
49.72
59.31
64.87
67.15
66.92
64.83
61.48
57.39
52.95
48.5
44.31
40.56
37.36
34.64
32.15
29.46
26.16
21.92
16.6
10.29
3.21
-4.44
-12.5
-20.99
-30.02
-39.83
-50.72
-62.92
-76.4
-90.51
-103.83
-114.18
-119.05
-116.37
-105.27
-86.47
-62.22
-35.65
-9.89
12.72
30.99
44.79
54.68
61.47
65.9
68.59
70.02
70.63
70.76
70.65
70.33
69.67
68.45
66.6
64.27
61.82
59.75
58.34
57.52
56.81
55.43
52.7
48.26
42.33
35.58
28.91
23.1
18.53
15.08
12.12
8.85
4.71
-0.23
-5.03
-8
-7.13
-0.86
11.3
28.43
48.41
68.54
86.36
100.26
109.66
114.82
116.43
115.16
111.51
105.79
98.19
88.88
78.1
66.1
53.13
39.48
25.47
11.58
-1.64
-13.6
-23.88
-32.45
-39.68
-46.29
-53.06
-60.56
-68.97
-78.05
-87.34
-96.38
-104.85
-112.63
-119.74
-126.35
-132.78
-139.58
-147.44
-156.96
-168.18
-180.13
-190.65
-196.76
-195.45
-184.78
-164.61
-136.87
-104.94
-72.61
-42.88
-17.37
3.75
21.13
35.54
47.38
56.6
63.04
66.77
68.34
68.62
68.58
68.88
69.71
70.77
71.52
71.45
70.29
68.1
65.19
61.91
58.49
54.87
50.71
45.55
39.01
30.99
21.79
12.02
2.45
-6.27
-13.84
-20.39
-26.36
-32.42
-39.19
-47.15
-56.55
-67.24
-78.51
-88.89
-96.23
-98.14
-92.71
-79.29
-58.96
-34.29
-8.63
14.98
34.59
49.61
60.43
67.87
72.61
75.03
75.32
73.75
70.93
67.65
64.69
62.49
60.99
59.7
57.99
55.48
52.19
48.58
45.21
42.38
39.91
37.07
32.93
26.69
18.15
7.79
-3.37
-14.15
-23.63
-31.49
-38.06
-44.17
-50.82
-58.91
-68.85
-80.35
-92.29
-102.73
-109.23
-109.44
-101.83
-86.28
-64.29
-38.66
-12.62
11.02
30.56
45.55
56.49
64.23
69.5
72.72
74.08
73.74
72.07
69.64
67.03
64.68
62.69
60.87
58.86
56.34
53.23
49.67
45.96
42.32
38.74
34.87
30.13
23.96
16.04
6.54
-3.9
-14.36
-23.96
-32.24
-39.24
-45.56
-52.06
-59.63
-68.8
-79.58
-91.18
-102.06
-110.05
-112.83
-108.48
-96.23
-76.76
-52.2
-25.58
0.03
22.27
40
53.25
62.8
69.68
74.69
78.27
80.58
81.7
81.83
81.27
80.33
79.19
77.84
76.18
74.13
71.74
69.14
66.45
63.67
60.61
56.92
52.29
46.52
39.64
31.81
23.25
14.16
4.68
-5.02
-14.68
-24
-32.69
-40.58
-47.69
-54.3
-60.88
-68.04
-76.43
-86.41
-97.73
-109.22
-118.72
-123.53
-121.17
-110.32
-91.48
-66.89
-39.95
-14.03
8.4
26.26
39.73
49.65
56.92
62.17
65.7
67.69
68.46
68.42
68.05
67.65
67.24
66.55
65.28
63.28
60.77
58.17
55.99
54.47
53.44
52.3
50.28
46.74
41.43
34.59
26.87
19.04
11.74
5.24
-0.63
-6.38
-12.58
-19.58
-27.36
-35.49
-43.33
-50.3
-56.1
-60.85
-65.13
-69.82
-75.87
-84.03
-94.45
-106.38
-118.01
-126.73
-129.74
-124.96
-111.76
-91.26
-66.04
-39.34
-14.15
7.52
24.77
37.68
46.83
52.98
56.81
58.91
59.79
59.9
59.64
59.33
59.12
59.04
58.96
58.72
58.22
57.44
56.52
55.66
54.96
54.32
53.38
51.63
48.59
44.04
38.15
31.44
24.63
18.35
12.89
8.14
3.65
-1.1
-6.52
-12.62
-19.12
-25.52
-31.37
-36.46
-40.84
-44.86
-49.05
-54.04
-60.42
-68.51
-78.1
-88.15
-96.78
-101.52
-100.02
-90.76
-73.68
-50.27
-23.18
4.58
30.38
52.51
70.27
83.74
93.44
100
103.98
105.89
106.17
105.23
103.43
101.05
98.22
94.97
91.35
87.48
83.68
80.27
77.45
75.03
72.4
68.67
63.04
55.02
44.59
32.06
17.79
2.03
-15.13
-33.59
-53.07
-73
-92.54
-110.82
-127.1
-140.99
-152.51
-162.08
-170.47
-178.48
-186.59
-194.52
-201.03
-204.04
-201.28
-191.04
-172.92
-148.09
-118.93
-88.4
-59.16
-33.09
-11.1
6.62
20.26
30.13
36.6
40.14
41.44
41.38
40.93
40.87
41.6
43.07
44.85
46.4
47.26
47.29
46.63
45.61
44.47
43.23
41.6
39.07
35.08
29.31
21.76
12.86
3.33
-6.07
-14.74
-22.46
-29.43
-36.17
-43.39
-51.75
-61.62
-72.81
-84.4
-94.65
-101.31
-102.18
-95.83
-82.14
-62.47
-39.29
-15.44
6.61
25.31
40.06
50.98
58.54
63.2
65.39
65.49
63.99
61.52
58.74
56.25
54.38
53.12
52.2
51.17
49.69
47.63
45.17
42.64
40.28
38.16
36
33.31
29.59
24.49
17.96
10.23
1.77
-6.89
-15.3
-23.18
-30.51
-37.57
-44.85
-52.97
-62.4
-73.13
-84.39
-94.52
-101.21
-102.18
-95.91
-82.29
-62.8
-40
-16.78
4.49
22.43
36.63
47.27
54.76
59.46
61.67
61.78
60.35
58.06
55.53
53.2
51.2
49.42
47.62
45.62
43.4
41.18
39.28
37.96
37.2
36.58
35.42
33
28.84
22.89
15.63
7.78
0.1
-6.92
-13.19
-18.97
-24.72
-30.95
-38.13
-46.57
-56.36
-67.08
-77.69
-86.47
-91.27
-90.14
-81.93
-66.87
-46.54
-23.51
-0.55
20.11
37.19
50.35
59.88
66.27
69.92
71.13
70.17
67.45
63.6
59.32
55.2
51.52
48.19
44.92
41.38
37.49
33.45
29.65
26.48
24.07
22.13
20.01
16.95
12.36
6.11
-1.38
-9.31
-16.78
-23.19
-28.4
-32.79
-37.07
-42.04
-48.4
-56.53
-66.31
-76.89
-86.6
-93.04
-93.6
-86.26
-70.32
-46.83
-18.4
11.58
39.96
64.57
84.57
100.24
112.36
121.79
129.12
134.71
138.74
141.4
142.85
143.12
142.15
139.71
135.68
130.14
123.5
116.39
109.5
103.23
97.54
91.98
85.89
78.65
69.93
59.69
48.17
35.66
22.33
8.21
-6.84
-23.04
-40.47
-58.95
-77.75
-95.61
-110.91
-122.04
-127.95
-128.53
-124.71
-118.04
-110.18
-102.36
-95.16
-88.62
-82.56
-76.85
-71.54
-66.76
-62.52
-58.68
-54.97
-51.16
-47.23
-43.34
-39.77
-36.75
-34.32
-32.35
-30.65
-29.06
-27.58
-26.37
-25.7
-25.86
-26.98
-29.08
-32.02
-35.58
-39.59
-43.97
-48.83
-54.38
-60.83
-68.16
-75.96
-83.35
-89.19
-92.28
-91.71
-87.08
-78.57
-66.82
-52.79
-37.6
-22.37
-8.12
4.34
14.54
22.37
28.03
31.9
34.39
35.79
36.26
35.91
34.89
33.41
31.78
30.3
29.14
28.3
27.61
26.71
25.23
22.85
19.35
14.73
9.15
2.89
-3.7
-10.38
-17.15
-24.22
-32.02
-40.95
-51.11
-62.02
-72.66
-81.55
-87.12
-88.13
-83.89
-74.49
-60.73
-43.94
-25.79
-7.91
8.29
21.96
32.75
40.8
46.54
50.44
52.87
54.07
54.21
53.49
52.12
50.37
48.49
46.68
45.04
43.57
42.1
40.38
38.11
35
30.86
25.68
19.55
12.69
5.34
-2.29
-10.13
-18.26
-26.93
-36.47
-47.02
-58.41
-69.9
-80.27
-88.01
-91.66
-90.15
-83.11
-70.96
-54.79
-36.2
-16.96
1.3
17.36
30.55
40.71
48.04
52.88
55.55
56.35
55.63
53.88
51.71
49.67
48.08
46.94
46.01
44.91
43.4
41.41
38.96
36.04
32.46
27.94
22.24
15.29
7.33
-1.22
-9.91
-18.48
-26.94
-35.67
-45.21
-56.05
-68.36
-81.7
-94.86
-106.02
-113.01
-113.91
-107.66
-94.36
-75.41
-53.07
-29.93
-8.26
10.38
25.28
36.41
44.13
49.01
51.73
53
53.56
54.06
54.88
56.07
57.39
58.42
58.86
58.6
57.78
56.63
55.29
53.61
51.2
47.5
42.03
34.63
25.55
15.41
4.94
-5.22
-14.8
-23.99
-33.35
-43.6
-55.33
-68.62
-82.74
-95.97
-105.85
-109.71
-105.54
-92.8
-72.71
-48.07
-22.36
1.32
21.01
36.21
47.54
56.05
62.62
67.6
70.93
72.4
72.11
70.58
68.62
67.11
66.54
66.92
67.76
68.39
68.23
67.02
64.83
61.96
58.64
54.91
50.57
45.26
38.66
30.7
21.6
11.92
2.31
-6.68
-14.83
-22.3
-29.54
-37.15
-45.67
-55.41
-66.4
-78.25
-90.06
-100.3
-106.96
-107.95
-101.72
-87.87
-67.54
-43.13
-17.69
6.01
26.15
42.07
54.05
62.82
69.05
73.23
75.68
76.72
76.8
76.43
76.05
75.86
75.8
75.58
74.87
73.5
71.49
69.1
66.65
64.33
62.11
59.62
56.36
51.86
45.95
38.91
31.32
23.94
17.32
11.64
6.61
1.65
-3.91
-10.5
-18.16
-26.51
-34.88
-42.59
-49.2
-54.7
-59.6
-64.83
-71.43
-80.19
-91.2
-103.58
-115.46
-124.29
-127.47
-123.08
-110.57
-90.93
-66.53
-40.36
-15.25
6.83
25.01
39.4
50.57
59.21
65.72
70.32
73.12
74.39
74.58
74.22
73.81
73.61
73.59
73.48
73.02
72.04
70.62
68.99
67.39
65.91
64.32
62.19
59
54.37
48.26
41.02
33.3
25.81
19.06
13.15
7.79
2.45
-3.31
-9.69
-16.53
-23.4
-29.9
-35.82
-41.27
-46.68
-52.59
-59.5
-67.71
-77.23
-87.64
-98.06
-107.07
-112.88
-113.69
-108.17
-96.04
-78.28
-57
-34.84
-14.31
2.9
16.11
25.5
31.74
35.6
37.72
38.61
38.77
38.68
38.74
39.26
40.28
41.64
43.12
44.49
45.7
46.78
47.82
48.81
49.6
49.88
49.27
47.49
44.38
40
34.6
28.51
22.04
15.46
8.85
2.26
-4.33
-10.88
-17.31
-23.54
-29.52
-35.41
-41.52
-48.24
-55.83
-64.17
-72.6
-79.89
-84.47
-84.81
-79.87
-69.45
-54.42
-36.5
-17.88
-0.64
13.77
24.75
32.45
37.48
40.53
42.07
42.36
41.62
40.13
38.34
36.75
35.74
35.43
35.63
35.95
35.98
35.48
34.41
32.93
31.25
29.45
27.43
24.93
21.66
17.46
12.39
6.68
0.61
-5.55
-11.66
-17.64
-23.5
-29.25
-34.95
-40.75
-46.89
-53.57
-60.87
-68.48
-75.62
-81.12
-83.55
-81.67
-74.76
-62.95
-47.28
-29.51
-11.61
4.67
18.17
28.5
35.79
40.49
43.02
43.79
43.14
41.47
39.27
36.99
35
33.43
32.19
31.08
29.92
28.66
27.32
26.03
24.81
23.62
22.29
20.58
18.22
14.97
10.69
5.35
-0.84
-7.57
-14.37
-20.81
-26.55
-31.47
-35.73
-39.7
-43.96
-49.08
-55.45
-63.07
-71.4
-79.39
-85.55
-88.34
-86.52
-79.51
-67.61
-51.94
-34.16
-16.16
0.41
14.42
25.37
33.37
38.88
42.5
44.76
46.02
46.49
46.35
45.78
44.99
44.16
43.4
42.71
41.98
41.13
40.09
38.87
37.49
35.93
34.05
31.65
28.55
24.69
20.12
15.02
9.56
3.86
-2.03
-8.11
-14.31
-20.43
-26.25
-31.65
-36.72
-41.9
-47.73
-54.61
-62.54
-70.9
-78.6
-84.27
-86.59
-84.62
-77.98
-66.94
-52.47
-36
-19.18
-3.53
9.84
20.39
28.05
33.09
35.88
36.77
36.12
34.38
32.15
30.06
28.62
28.02
28.05
28.23
28.07
27.31
26.03
24.59
23.35
22.42
21.52
20.04
17.35
13.06
7.31
0.64
-6.19
-12.58
-18.27
-23.43
-28.53
-34.16
-40.75
-48.48
-57.08
-65.81
-73.44
-78.44
-79.25
-74.83
-64.96
-50.49
-33.12
-15.02
1.76
15.76
26.31
33.45
37.7
39.72
40.11
39.36
37.84
35.86
33.67
31.46
29.3
27.14
24.94
22.72
20.6
18.83
17.56
16.72
15.93
14.56
12
7.89
2.28
-4.35
-11.36
-18.15
-24.47
-30.43
-36.54
-43.39
-51.42
-60.63
-70.44
-79.63
-86.55
-89.47
-86.97
-78.48
-64.43
-46.31
-26.28
-6.68
10.5
24.03
33.55
39.41
42.37
43.28
42.88
41.68
39.99
37.98
35.78
33.51
31.27
29.18
27.32
25.73
24.35
23.04
21.56
19.63
16.97
13.33
8.66
3.02
-3.32
-10.04
-16.88
-23.73
-30.78
-38.45
-47.25
-57.48
-68.96
-80.8
-91.4
-98.75
-100.91
-96.61
-85.62
-68.92
-48.47
-26.69
-5.94
12.04
26.28
36.63
43.53
47.65
49.66
50.1
49.39
47.92
46.08
44.24
42.63
41.24
39.9
38.38
36.56
34.57
32.67
31.01
29.46
27.56
24.61
20.05
13.71
5.87
-2.79
-11.53
-19.84
-27.66
-35.4
-43.77
-53.48
-64.81
-77.32
-89.6
-99.42
-104.26
-102.04
-91.86
-74.48
-52.07
-27.63
-4.05
16.65
33.61
46.94
57.21
65.01
70.7
74.56
76.89
78.24
79.34
80.82
83.03
85.92
89.1
92.12
94.75
97.06
99.36
101.97
105.01
108.28
111.4
114.13
116.7
119.9
124.81
132.25
142.3
153.92
165.21
173.9
178.05
176.58
169.48
157.6
142.38
125.58
109
94.38
82.99
75.35
70.99
68.52
66.01
61.68
54.48
44.3
31.86
18.23
4.35
-9.29
-22.6
-35.66
-48.39
-60.48
-71.45
-80.87
-88.59
-94.83
-100.09
-104.86
-109.3
-113.19
-116.03
-117.33
-116.88
-114.97
-112.2
-109.31
-106.88
-105.13
-104.1
-103.7
-103.95
-104.96
-106.83
-109.52
-112.8
-116.36
-119.93
-123.49
-127.33
-131.9
-137.57
-144.37
-151.77
-158.75
-163.9
-165.76
-163.12
-155.3
-142.31
-124.94
-104.56
-82.8
-61.21
-41.02
-22.94
-7.3
5.77
16.25
24.17
29.67
33.2
35.47
37.29
39.37
41.95
44.83
47.46
49.27
49.88
49.32
47.83
45.76
43.23
40.11
36.01
30.56
23.62
15.4
6.46
-2.5
-10.94
-18.63
-25.78
-32.89
-40.64
-49.62
-60.14
-72.01
-84.33
-95.49
-103.27
-105.45
-100.43
-87.92
-69.12
-46.46
-22.83
-0.78
18.09
33.25
44.87
53.47
59.48
63.22
64.95
65.08
64.18
62.96
62.09
62.01
62.74
63.92
64.86
64.85
63.5
60.86
57.42
53.84
50.54
47.41
43.87
39.08
32.45
23.93
14.15
4.11
-5.18
-13.16
-19.91
-26.05
-32.58
-40.43
-50.21
-61.96
-75.06
-88.09
-99.02
-105.51
-105.45
-97.63
-82.26
-61.06
-36.82
-12.6
9.13
27.01
40.86
51.3
59.2
65.26
69.82
73.02
74.97
75.83
75.9
75.47
74.79
73.99
73.11
72.17
71.14
70.02
68.71
67.05
64.8
61.77
57.86
53.17
47.93
42.38
36.68
30.75
24.36
17.24
9.27
0.58
-8.43
-17.26
-25.52
-33.01
-39.88
-46.58
-53.76
-62.15
-72.29
-84.18
-96.95
-108.75
-117.01
-119.1
-113.24
-99.22
-78.54
-54.02
-28.86
-5.76
13.72
29.15
40.87
49.57
55.81
60.05
62.62
63.91
64.37
64.39
64.18
63.74
62.88
61.44
59.43
57.15
55
53.37
52.37
51.75
50.98
49.45
46.73
42.69
37.61
31.96
26.24
20.74
15.43
10.02
4.1
-2.56
-9.81
-17.18
-24.06
-30.01
-34.99
-39.43
-44.08
-49.79
-57.2
-66.56
-77.49
-88.87
-98.83
-105.03
-105.2
-97.87
-82.96
-61.96
-37.52
-12.7
9.91
28.75
43.38
54.14
61.71
66.78
69.89
71.48
71.96
71.7
71.01
70.06
68.91
67.57
66.11
64.67
63.4
62.45
61.78
61.18
60.32
58.78
56.25
52.55
47.79
42.28
36.45
30.63
24.99
19.45
13.81
7.89
1.73
-4.45
-10.27
-15.44
-19.89
-23.87
-27.85
-32.39
-37.83
-44.12
-50.59
-55.88
-58.24
-55.84
-47.46
-32.88
-13.08
10.06
34.36
57.96
79.8
99.63
117.69
134.39
149.98
164.61
178.5
192.21
206.8
223.84
244.98
271.33
302.68
336.95
370.34
398.19
416.33
422.53
417.07
402.37
381.75
358.04
332.63
305.45
275.66
242.64
206.51
168.28
129.31
90.87
53.75
18.23
-15.73
-48.26
-79.33
-108.71
-135.96
-160.67
-182.68
-202.2
-219.94
-236.96
-254.46
-273.67
-295.88
-322.43
-354.31
-391.44
-431.68
-470.5
-501.59
-518.53
-516.95
-496.19
-459.49
-412.7
-362.15
-312.71
-267.03
-225.81
-188.81
-155.73
-126.48
-101.05
-79.25
-60.61
-44.63
-30.96
-19.42
-9.86
-1.88
5.36
13.19
23.08
36.37
53.88
75.64
100.76
127.38
153.15
175.93
194.61
209.5
221.95
233.4
244.31
253.76
259.92
261.32
257.91
251.25
243.85
237.98
234.75
233.9
234.21
233.97
231.34
224.39
211.28
190.79
163.15
130.25
95.32
61.71
31.69
5.77
-17
-38.24
-59.18
-80.19
-100.92
-120.65
-138.65
-154.28
-166.9
-175.87
-180.73
-181.48
-178.77
-173.79
-167.78
-161.54
-155.19
-148.28
-140.47
-132.06
-124.33
-119.27
-118.92
-124.51
-135.98
-151.98
-170.48
-189.46
-207.41
-223.45
-237.23
-248.62
-257.63
-264.26
-268.44
-269.87
-267.98
-261.89
-250.8
-234.36
-212.96
-187.71
-159.96
-130.76
-100.63
-69.71
-38.34
-7.52
21.06
45.58
64.84
78.91
89.12
97.63
106.64
117.58
130.6
144.34
156.3
163.57
163.83
156.2
141.61
122.38
101.42
81.21
63.26
48.27
36.53
28.4
24.45
24.97
29.41
36.06
42.32
45.58
44.22
38.33
29.73
21.17
15.24
13.27
14.92
18.45
21.72
23.17
22.47
20.38
18.02
16.16
14.61
12.3
7.8
0.16
-10.53
-22.93
-34.81
-43.92
-49.01
-50.37
-49.79
-49.83
-52.83
-60.27
-72.47
-88.91
-108.53
-129.38
-148.06
-159.49
-157.77
-138.2
-99.63
-45.99
14.09
69.6
110.67
131.68
132.49
117.61
93.88
67.89
44.29
25.3
11.2
0.97
-7.26
-15.99
-27.93
-45.2
-68.43
-95.98
-123.94
-147.15
-160.92
-162.91
-154.03
-138.08
-120.24
-105.19
-95.54
-91.24
-90.14
-89.23
-86.06
-79.59
-70.31
-59.72
-49.52
-40.81
-33.93
-28.5
-23.82
-19.23
-14.35
-9.17
-3.83
1.55
6.98
12.5
17.82
21.95
23.32
20.31
12.29
0.26
-13.17
-24.72
-32.13
-35.35
-36.71
-39.69
-46.87
-58.13
-70.33
-78.5
-78.04
-66.98
-46.85
-22.02
2.28
22.02
35.64
43.99
49.06
53.04
57.72
64.66
75.31
90.48
108.91
126.32
136.04
131.8
111.27
78.29
42.08
13.51
0.28
3.98
20.25
41.94
62.94
80.35
94.21
105.52
114.26
118.89
117.47
109.14
95.03
77.99
61.37
47.66
37.82
31.33
26.53
21.58
15.26
7.3
-1.57
-10.18
-17.54
-23.41
-28.36
-33.5
-39.7
-47.15
-55.29
-63.11
-69.85
-75.37
-80.19
-85.13
-90.8
-97.22
-103.99
-110.45
-116.01
-120.24
-122.7
-122.9
-120.34
-114.71
-106.21
-95.59
-83.95
-72.22
-60.67
-48.85
-35.82
-20.79
-3.64
14.69
32.39
47.42
58.31
64.82
68.15
70.47
74.12
80.81
91.02
104.2
119.22
135.05
150.94
166.41
180.78
193.06
202.07
206.93
207.49
204.46
199
192.17
184.43
175.61
165.15
152.64
138.17
122.35
106.08
90.18
75.09
60.84
47.14
33.56
19.82
5.91
-7.85
-20.97
-32.92
-43.43
-52.68
-61.28
-70.03
-79.62
-90.24
-101.43
-112.18
-121.26
-127.71
-131.25
-132.39
-132.22
-131.95
-132.43
-133.82
-135.64
-137.08
-137.32
-135.82
-132.31
-126.7
-118.95
-109.05
-97.19
-83.91
-70.15
-57.12
-45.9
-37.18
-31.09
-27.22
-24.85
-23.15
-21.37
-18.96
-15.68
-11.68
-7.41
-3.45
-0.27
1.95
3.38
4.26
4.7
4.55
3.32
0.65
-3.51
-8.62
-13.69
-17.5
-19.05
-17.81
-13.85
-7.76
-0.36
7.57
15.51
23.2
30.66
37.91
44.91
51.46
57.26
62
65.45
67.57
68.55
68.96
69.69
71.81
76.33
83.74
93.69
104.94
115.71
124.11
128.72
129.05
125.47
119.12
111.38
103.46
96.09
89.47
83.35
77.31
71
64.3
57.35
50.42
43.77
37.45
31.35
25.25
18.97
12.48
5.97
-0.25
-5.83
-10.4
-13.71
-15.6
-16.01
-14.9
-12.33
-8.45
-3.5
2.19
8.26
14.35
20.15
25.32
29.45
32.06
32.81
31.64
28.99
25.75
23
21.65
22.08
24.04
26.77
29.4
31.21
31.93
31.73
31.04
30.39
30.19
30.68
31.89
33.78
36.27
39.24
42.53
45.82
48.69
50.7
51.55
51.25
50.1
48.52
46.85
45.17
43.2
40.44
36.3
30.38
22.53
13.03
2.49
-8.11
-17.69
-25.29
-30.34
-32.94
-33.89
-34.47
-36.11
-39.82
-45.87
-53.63
-61.76
-68.65
-73.02
-74.34
-72.89
-69.58
-65.5
-61.45
-57.85
-54.74
-52
-49.57
-47.5
-45.88
-44.67
-43.67
-42.53
-40.9
-38.61
-35.73
-32.62
-29.73
-27.54
-26.29
-25.97
-26.27
-26.78
-27.08
-26.92
-26.22
-25.07
-23.72
-22.43
-21.5
-21.21
-21.77
-23.14
-25.08
-27.07
-28.43
-28.59
-27.16
-24.09
-19.61
-14.16
-8.21
-2.17
3.64
9
13.74
17.76
20.93
23.17
24.41
24.7
24.16
23.02
21.58
20.05
18.62
17.32
16.17
15.2
14.43
13.88
13.43
12.88
11.9
10.33
8.17
5.69
3.25
1.11
-0.7
-2.46
-4.49
-7.07
-10.25
-13.88
-17.74
-21.72
-25.8
-29.93
-33.86
-37.03
-38.77
-38.48
-36.01
-31.7
-26.24
-20.46
-14.98
-10.1
-5.9
-2.3
0.73
3.19
5.08
6.45
7.46
8.31
9.15
10.08
11.1
12.17
13.2
14.09
14.8
15.34
15.77
16.16
16.47
16.53
16.1
14.95
13.03
10.52
7.77
5.22
3.19
1.81
0.91
0.14
-0.94
-2.62
-4.92
-7.51
-9.76
-10.97
-10.6
-8.56
-5.14
-0.96
3.28
7.01
9.87
11.77
12.76
13
12.7
12.11
11.44
10.86
10.43
10.11
9.81
9.4
8.76
7.86
6.74
5.55
4.51
3.81
3.51
3.45
3.33
2.84
1.81
0.3
-1.41
-2.97
-4.09
-4.73
-4.98
-5.08
-5.22
-5.52
-6.02
-6.68
-7.48
-8.4
-9.41
-10.39
-11.14
-11.36
-10.83
-9.47
-7.44
-5.13
-2.97
-1.3
-0.18
0.56
1.17
1.78
2.31
2.52
2.17
1.24
-0.11
-1.52
-2.65
-3.29
-3.33
-2.8
-1.75
-0.28
1.43
3.2
4.79
6.07
6.97
7.52
7.71
7.53
7.01
6.28
5.65
5.49
6.05
7.33
8.96
10.46
11.41
11.67
11.46
11.3
11.81
13.6
17.08
22.32
28.93
36.02
42.39
46.76
48.15
46.06
40.64
32.52
22.68
12.21
2.14
-6.67
-13.76
-19.05
-22.84
-25.54
-27.48
-28.72
-29.01
-27.85
-24.63
-18.82
-9.96
2.01
16.66
32.9
48.97
62.85
72.73
77.48
76.62
69.98
57.11
37.16
9.19
-27.01
-70.19
-117.23
-163.38
-203.01
-230.62
-241.7
-233.33
-204.67
-157.4
-96.06
-28.06
37.21
90.19
123.55
134.31
124.64
100.93
71.39
43.32
21.16
6.16
-2.71
-7.13
-8.43
-7.4
-4.85
-1.98
-0.32
-1.02
-4.22
-8.89
-13.39
-16.35
-17.39
-17.12
-16.68
-17.12
-18.83
-21.52
-24.35
-26.15
-25.75
-22.09
-14.62
-3.62
9.41
21.86
30.59
32.98
27.94
16.32
0.51
-16.54
-32.5
-46.3
-57.99
-68.13
-76.89
-83.54
-86.65
-84.62
-76.34
-61.6
-41.05
-16
11.78
40.06
66.31
87.86
102.48
108.84
106.88
97.81
83.64
66.62
48.68
31.36
15.96
3.82
-3.73
-5.71
-2.19
5.39
14.37
21.61
24.66
22.56
16.1
7.21
-1.91
-9.67
-15.51
-19.52
-21.93
-22.69
-21.49
-18.14
-12.98
-6.98
-1.4
2.63
4.71
5.14
4.84
4.8
5.71
7.68
10.34
13.09
15.38
16.93
17.7
17.74
16.95
15.03
11.56
6.28
-0.64
-8.58
-16.68
-24.25
-31.07
-37.31
-43.29
-48.99
-54
-57.61
-59.25
-58.88
-57.05
-54.6
-52.31
-50.53
-49.09
-47.58
-45.69
-43.46
-41.28
-39.77
-39.34
-40.03
-41.42
-42.79
-43.45
-43.01
-41.51
-39.4
-37.28
-35.69
-34.91
-34.98
-35.77
-36.93
-37.87
-37.71
-35.42
-30.28
-22.39
-12.97
-4.09
2.04
4.06
2.01
-2.8
-8.54
-13.77
-18.01
-21.66
-25.48
-29.96
-34.92
-39.5
-42.52
-42.86
-39.81
-33.22
-23.5
-11.53
1.63
15.12
28.29
40.75
52.11
61.89
69.61
75.11
78.84
81.81
85.13
89.45
94.56
99.61
103.47
105.44
105.54
104.38
102.77
101.22
99.72
97.9
95.33
91.99
88.4
85.52
84.27
84.86
86.43
87.14
84.73
77.43
64.64
47.17
26.67
5.06
-16.2
-36.1
-53.8
-68.1
-77.37
-79.95
-74.82
-62.28
-44.04
-22.82
-1.51
17.67
33.65
46.49
56.92
65.78
73.52
80.19
85.74
90.46
95.18
100.82
107.55
114.14
117.81
115.27
104.06
83.83
56.55
25.52
-5.94
-35.53
-61.96
-84.05
-99.91
-106.92
-102.79
-87.15
-62.65
-34.83
-10.46
4.94
9.08
3.53
-7.44
-19.16
-28.72
-36.04
-43.25
-53.02
-66.94
-84.63
-104.06
-122.52
-137.69
-148.05
-152.77
-151.5
-144.57
-133.55
-121.64
-113.33
-113.03
-123.37
-143.76
-170.15
-196.03
-214.2
-218.62
-205.71
-174.5
-126.09
-63.11
10.23
87.76
161.44
222.55
263.94
282.3
279.01
259.34
229.94
196.24
160.94
124.2
85.19
43.56
0.4
-42.13
-81.66
-116.28
-144.78
-166.41
-180.62
-187.1
-185.98
-177.64
-162.69
-141.8
-115.87
-86.01
-53.63
-20.38
12.1
42.36
69.32
92.32
111.18
126.4
138.97
149.97
159.96
168.37
173.31
172.11
162.42
143.45
116.78
86
55.49
28.83
7.61
-8.68
-22.11
-35.24
-50.39
-69.03
-91.5
-116.5
-140.74
-159.09
-165.73
-156.35
-130.21
-91.42
-48.1
-9.82
15.83
25.73
21.98
10.46
-1.79
-9.14
-8.96
-1.67
10.32
24
37
47.95
56.27
61.55
63.16
60.38
52.88
41.2
26.87
11.82
-2.51
-15.76
-28.72
-42.67
-58.45
-75.89
-93.87
-110.99
-126.37
-140.2
-153.72
-168.56
-185.7
-204.59
-222.77
-236.31
-241.07
-234.22
-215.46
-187.25
-153.97
-120.42
-90.33
-65.55
-46.19
-31.37
-20.18
-12.1
-6.97
-4.63
-4.48
-5.46
-6.26
-5.74
-3.27
1.12
6.78
12.76
18.02
21.71
23.35
22.79
20.15
15.63
9.4
1.62
-7.43
-17.24
-27
-35.81
-43.06
-48.87
-54.14
-60.19
-67.87
-76.91
-85.61
-91.28
-91.29
-84.24
-70.39
-51.4
-29.51
-6.59
16.42
39.3
62.12
84.83
107.19
129.1
151.01
174.1
200.06
230.37
265.43
303.97
342.96
378.18
405.44
421.94
427.11
422.97
413.38
402.95
395.84
394.95
401.45
414.93
433.57
454.53
474.43
489.72
497.19
494.46
480.43
455.51
421.57
381.6
338.87
296.11
254.83
215.07
175.57
134.45
90.07
41.92
-8.85
-59.53
-106.46
-146.12
-176.13
-195.86
-206.44
-209.98
-208.63
-203.8
-196.09
-185.69
-172.96
-158.79
-144.37
-130.64
-117.75
-104.99
-91.16
-75.2
-56.68
-35.89
-13.82
8.17
28.39
44.89
55.76
59.77
57.1
49.64
40.52
32.83
28.39
27.16
27.6
27.83
26.78
24.52
21.67
18.57
14.67
8.81
-0.08
-12.24
-27.03
-43.42
-60.77
-79.02
-98.43
-119.02
-140.33
-161.58
-182.02
-201.31
-219.31
-235.78
-250.07
-261.26
-268.51
-271.53
-270.61
-266.4
-259.37
-249.66
-237.16
-221.86
-204.29
-185.5
-166.9
-149.86
-135.32
-123.48
-113.67
-104.43
-93.84
-80.19
-62.58
-41.39
-18.15
4.92
25.75
43.04
56.55
66.83
74.68
80.63
84.59
85.96
83.96
78.25
69.28
58.36
47.4
38.51
33.53
33.66
39.03
48.3
58.69
66.37
67.75
60.88
46.42
27.61
9.01
-5.33
-13.29
-15.18
-13.09
-9.8
-7.71
-8.48
-13.11
-22.13
-35.69
-53.49
-74.64
-97.74
-121.16
-143.3
-162.98
-179.61
-193.41
-205.44
-217.35
-230.81
-246.61
-264
-280.56
-293.13
-299.13
-297.87
-291.05
-282.13
-275.03
-272.56
-275.46
-282.4
-290.65
-297.17
-299.52
-296.42
-287.66
-273.99
-256.7
-237.31
-217.24
-197.58
-178.94
-161.43
-144.8
-128.53
-112.06
-94.87
-76.63
-57.16
-36.48
-14.73
7.96
31.47
55.88
81.5
108.9
138.66
170.76
204.05
235.99
263.08
281.86
290.04
287.22
274.94
255.99
233.61
210.71
189.6
171.89
158.45
149.48
144.4
141.9
140.02
136.44
128.82
115.5
96.27
72.99
49.7
31.61
23.33
27.21
42.37
65.18
90.86
115.29
136.18
153.01
166.04
175.31
180.11
179.49
173.13
162.12
148.85
135.99
125.23
116.38
107.52
96.16
80.74
61.68
41.21
22.23
6.68
-5.52
-16.4
-28.72
-44.48
-63.83
-85.15
-105.93
-124.1
-138.87
-150.84
-161.39
-171.84
-182.76
-193.89
-204.28
-212.74
-218.04
-218.98
-214.48
-203.67
-186.14
-162.23
-133.07
-100.44
-66.48
-33.22
-2.32
25.2
49.01
69.43
87.15
102.88
117.09
129.77
140.68
149.53
156.28
161.18
164.56
166.46
166.48
163.94
158.33
149.84
139.53
129.03
119.73
112.21
105.82
99.08
90.92
80.81
69.06
56.67
45.12
36.02
30.66
29.72
33.26
41.24
53.08
67.61
83.19
98.18
111.25
121.55
128.55
131.96
132.89
132.3
130.59
127.54
122.88
116.83
110.05
103.22
96.76
93.87
96.42
103.84
113.25
121.35
126.29
127.8
126.34
122.4
122.83
132.25
150.49
172.6
192.63
207.6
218.48
228.79
242.67
273.62
329.58
408.08
496.86
581.18
651.46
705.4
745.68
776.89
816.94
878.09
960.57
1052.75
1138.65
1206.81
1252.72
1277.22
1197.94
975.26
629.7
236.79
-122.93
-405.82
-605.79
-736.4
-815.99
-860.89
-870.03
-842.77
-787.56
-719.62
-655.26
-604.16
-568.4
-545.71
-532.71
-516.35
-488.32
-449.95
-406.59
-367.88
-339.88
-323.56
-316.78
-316.55
-313.74
-302.11
-281.15
-255.66
-232.73
-216.79
-208.78
-207.37
-210.58
-213.34
-212.18
-206.58
-198.67
-192.05
-189.22
-191.2
-198.05
-209.18
-222.11
-233.85
-241.56
-243.22
-238.34
-227.55
-212.49
-195.39
-178.52
-163.66
-152.08
-144.51
-141.1
-141.18
-142.77
-142.66
-137.25
-123.88
-101.95
-73.29
-41.63
-11.31
13.91
31.73
41.71
45.03
44.22
42.53
43.25
48.8
59.87
75.06
91.09
103.93
109.97
107.23
95.82
77.62
55.41
31.81
8.6
-13.34
-33.74
-52.37
-68.87
-82.9
-94.47
-104.15
-112.94
-121.66
-130.49
-138.55
-144.27
-146
-142.7
-134.39
-122.1
-107.44
-92.02
-77
-62.96
-49.85
-37.31
-24.94
-12.58
-0.57
10.28
18.96
24.77
27.91
29.71
32.21
37.21
45.24
55.07
64.02
69.05
67.95
59.97
45.7
26.38
3.32
-22.16
-48.25
-72.39
-91.54
-103.31
-107.15
-104.78
-99.54
-94.69
-91.9
-90.74
-89.26
-85.4
-78
-67.12
-53.53
-37.97
-20.96
-2.93
15.35
32.86
48.67
62.61
75.32
87.99
101.44
115.75
130.14
143.55
155.12
164.28
170.5
172.84
170.07
161.11
145.83
125.52
102.59
79.86
59.48
42.42
28.42
16.71
6.67
-1.78
-8.23
-12.32
-14.1
-14.14
-13.13
-11.49
-9.06
-5.34
0.07
6.89
14.02
19.83
22.71
21.73
16.91
9.07
-0.46
-10.08
-18.09
-23.05
-24.14
-21.61
-16.93
-12.26
-9.61
-9.88
-12.75
-17.16
-22.33
-28.42
-36.46
-47.5
-61.86
-78.76
-96.68
-113.93
-129.07
-140.8
-147.78
-148.67
-142.61
-129.92
-112.38
-92.8
-74.13
-58.31
-45.69
-35.16
-24.91
-13.54
-0.68
12.66
24.66
33.41
37.77
37.79
34.57
29.73
24.61
19.97
15.98
12.63
10.17
9.18
10.39
14.36
21.26
30.78
42.41
55.57
69.67
84.12
98.09
110.38
119.42
123.59
121.69
113.39
99.36
81.08
60.32
38.9
18.47
0.74
-12.52
-19.7
-19.86
-13.24
-1.47
12.9
27.15
39.2
47.94
53.17
55.14
54.11
50.29
43.81
34.9
23.98
11.61
-1.34
-13.63
-23.76
-30.49
-33.56
-34.13
-34.44
-36.64
-41.45
-47.58
-52.45
-53.75
-51.06
-46.17
-42.08
-41.08
-43.4
-47.34
-50.47
-51.5
-50.97
-50.8
-52.85
-57.61
-63.95
-69.79
-73.38
-74.04
-72.25
-69.06
-65.43
-61.7
-57.79
-53.45
-48.73
-44.07
-40.09
-37.28
-35.63
-34.6
-33.29
-30.84
-26.79
-21.26
-14.77
-8.09
-1.88
3.43
7.68
10.91
13.25
14.83
15.82
16.35
16.55
16.5
16.26
15.85
15.33
14.71
13.97
13
11.57
9.42
6.39
2.61
-1.45
-5.05
-7.35
-7.71
-5.87
-2
3.39
9.67
16.19
22.39
27.85
32.27
35.56
37.86
39.48
40.78
41.96
42.93
43.34
42.8
41.15
38.53
35.32
31.95
28.68
25.49
22.11
18.15
13.22
7.13
-0.08
-8.11
-16.53
-24.87
-32.82
-40.28
-47.37
-54.43
-61.88
-70.2
-79.77
-90.76
-102.95
-115.51
-126.98
-135.43
-138.92
-136.04
-126.46
-111.07
-91.78
-71.06
-51.2
-33.8
-19.57
-8.42
0.19
6.87
12.03
15.9
18.61
20.29
21.11
21.26
20.85
20.01
18.96
18.06
17.8
18.55
20.29
22.33
23.52
22.62
18.92
12.73
5.35
-1.38
-5.8
-7.11
-5.49
-1.94
2.2
5.71
7.62
7.23
4.03
-2.14
-10.74
-20.28
-28.3
-32
-29.1
-18.75
-2
18.55
39.52
57.83
71.56
80.14
84.14
84.68
82.89
79.66
75.55
71.01
66.38
62
58.09
54.72
51.82
49.26
46.95
44.96
43.48
42.67
42.58
42.88
42.91
41.74
38.51
32.71
24.49
14.71
4.59
-4.63
-12.24
-18.25
-23.36
-28.66
-35.23
-43.69
-54.14
-66.05
-78.43
-89.99
-99.3
-104.98
-106.1
-102.44
-94.84
-85.02
-75
-66.24
-58.82
-51.42
-41.96
-28.76
-11.44
8.9
30.27
50.71
68.94
84.16
95.56
101.9
101.78
94.53
81.21
65.06
50.79
43.17
45.41
58.21
79.66
106.04
132.96
156.42
173.48
182.59
183.54
177.11
164.79
148.32
129.34
109.08
88.3
67.14
45.25
21.91
-3.55
-31.1
-59.43
-85.58
-105.48
-115.2
-112.54
-98.23
-75.98
-51.24
-29.27
-13.37
-4.15
-0.15
0.82
0.43
-0.75
-2.92
-6.31
-10.55
-14.73
-17.84
-19.33
-19.35
-18.6
-17.85
-17.54
-17.58
-17.52
-16.94
-15.72
-14.25
-13.22
-13.35
-15.02
-18.16
-22.26
-26.55
-30.35
-33.26
-35.35
-37.1
-39.17
-42.15
-46.27
-51.29
-56.43
-60.55
-62.35
-60.76
-55.29
-46.15
-34.35
-21.44
-9.08
1.34
9.11
14.16
16.85
17.61
16.65
13.96
9.59
3.87
-2.4
-8.22
-12.77
-15.78
-17.65
-19.23
-21.45
-24.79
-29.09
-33.66
-37.65
-40.49
-42.21
-43.52
-45.66
-50.16
-58.53
-71.97
-90.97
-114.91
-141.8
-168.37
-190.48
-204.03
-206.05
-195.4
-173.06
-141.51
-103.75
-62.34
-18.95
25.3
69.07
110.18
145.51
171.77
186.59
189.53
182.34
168.37
151.63
135.69
123.1
115.21
112.27
113.51
117.23
121.03
122.29
118.94
110.27
97.19
81.85
66.76
53.67
42.91
33.52
23.86
12.59
-0.76
-15.5
-30.34
-43.9
-55.31
-64.33
-71.28
-76.71
-81.04
-84.49
-87.17
-89.28
-91.18
-93.4
-96.53
-100.89
-106.43
-112.69
-118.94
-124.38
-128.16
-129.42
-127.38
-121.47
-111.68
-98.79
-84.32
-70.17
-58.03
-48.87
-42.69
-38.84
-36.41
-34.67
-33.26
-32.07
-31.04
-30
-28.73
-27.02
-24.84
-22.19
-19.02
-15.03
-9.64
-2.18
7.89
20.55
35.09
50.03
63.49
73.64
79.24
80.04
76.72
70.54
62.82
54.46
45.73
36.42
26.16
14.73
2.18
-11.18
-24.84
-38.08
-49.91
-59.04
-64.02
-63.53
-56.72
-43.43
-24.38
-1.05
24.48
49.85
72.75
91.34
104.61
112.4
115.34
114.46
110.83
105.32
98.49
90.75
82.45
73.89
65.46
57.48
50.24
43.88
38.24
32.9
27.21
20.52
12.46
3.17
-6.8
-16.76
-26.21
-35.13
-43.94
-53.31
-63.84
-75.87
-89.26
-103.28
-116.5
-126.87
-132.01
-129.94
-119.74
-102.06
-79.08
-53.9
-29.62
-8.55
8.23
20.67
29.3
34.73
37.45
37.8
36.22
33.29
29.82
26.58
24.09
22.52
21.7
21.31
21.04
20.66
19.93
18.53
16.08
12.19
6.7
-0.32
-8.58
-17.88
-28.26
-40.1
-53.88
-69.89
-87.81
-106.51
-124.12
-138.26
-146.59
-147.34
-139.83
-124.72
-103.81
-79.63
-54.73
-31.18
-10.25
7.52
22.06
33.54
42.23
48.33
52.07
53.72
53.66
52.49
51.04
50.18
50.57
52.38
55.17
58
59.86
60.06
58.41
55.13
50.63
45.18
38.81
31.32
22.4
11.76
-0.89
-15.7
-32.3
-49.57
-65.28
-76.29
-79.27
-71.67
-52.75
-23.95
11.38
48.98
84.79
115.84
140.57
158.66
170.57
177.06
179.06
177.58
173.74
168.63
163.2
158.01
153.19
148.51
143.61
138.12
131.79
124.5
116.24
107.05
97.02
86.25
74.82
62.75
49.98
36.32
21.54
5.4
-12.24
-31.28
-51.14
-70.51
-87.29
-98.86
-102.72
-97.27
-82.48
-60.08
-33.12
-5.07
21.09
43.53
61.67
75.79
86.62
94.86
101.11
105.84
109.59
112.93
116.43
120.59
125.66
131.71
138.58
145.96
153.42
160.5
166.77
171.96
176.03
179.16
181.68
183.88
185.93
187.86
189.62
191.11
192.22
192.84
192.93
192.73
192.82
193.95
196.52
199.8
201.66
198.76
187.7
166.22
134.23
93.89
48.86
3.08
-40.31
-79.45
-113.56
-142.49
-166.27
-184.96
-198.6
-207.26
-210.93
-209.56
-203.11
-191.7
-175.89
-156.69
-135.53
-113.99
-93.43
-74.69
-57.78
-41.89
-25.59
-7.41
13.75
38.08
64.86
92.74
120.2
145.96
169.09
188.77
204.17
214.44
218.95
217.63
211.02
200.12
185.94
169.24
150.45
129.89
108
85.29
62.07
38.27
13.39
-13.24
-42.15
-73.63
-107.74
-144.47
-183.69
-224.66
-265.64
-303.62
-334.78
-355.56
-363.88
-359.92
-346.08
-326.04
-303.52
-281.11
-259.95
-239.91
-220.41
-201.04
-181.86
-163.17
-145.2
-127.82
-110.68
-93.73
-77.54
-63.24
-52.06
-44.55
-40.2
-37.56
-35
-31.49
-27.06
-22.62
-19.31
-17.78
-17.83
-18.57
-18.87
-17.94
-15.59
-12.26
-8.74
-5.84
-4.18
-3.97
-5.12
-7.22
-9.82
-12.45
-14.77
-16.51
-17.48
-17.56
-16.8
-15.42
-13.84
-12.6
-12.13
-12.61
-13.86
-15.39
-16.58
-16.91
-16.1
-14.15
-11.21
-7.47
-3.05
1.96
7.37
12.77
17.66
21.6
24.54
26.84
29.1
31.76
34.76
37.33
38.37
36.86
32.41
25.43
16.99
8.41
0.8
-5.13
-9.11
-11.15
-11.36
-9.92
-7.14
-3.46
0.45
3.88
6.21
7.13
6.82
5.81
4.79
4.29
4.52
5.24
5.92
5.96
4.95
2.83
-0.12
-3.38
-6.42
-8.87
-10.62
-11.78
-12.68
-13.69
-15.21
-17.46
-20.58
-24.52
-29.06
-33.75
-37.93
-40.79
-41.53
-39.68
-35.17
-28.43
-20.18
-11.21
-2.13
6.79
15.58
24.43
33.52
42.87
52.28
61.33
69.48
76.25
81.48
85.39
88.62
92
96.24
101.61
107.86
114.28
120.05
124.64
128.05
130.87
134.18
139.3
147.36
159.03
174.07
191.06
207.43
219.88
225.31
221.89
209.73
190.82
168.15
144.32
120.48
95.98
69.08
38.25
3.36
-33.85
-70.23
-102.33
-127.64
-145.18
-155.55
-160.3
-161.27
-159.98
-157.5
-154.44
-151.11
-147.47
-143.09
-137.08
-128.32
-116.07
-100.68
-84.07
-69.48
-60.47
-59.47
-66.64
-79.62
-94.47
-107.17
-115.24
-118.45
-118.46
-117.54
-117.25
-117.73
-117.91
-116.46
-112.83
-107.73
-102.86
-100.04
-100.39
-103.93
-109.78
-116.67
-123.55
-129.86
-135.38
-140.01
-143.52
-145.53
-145.68
-143.89
-140.39
-135.68
-130.11
-123.55
-115.28
-104.16
-89.22
-70.19
-47.98
-24.47
-2.03
17.32
32.46
43.31
50.49
54.81
57.01
57.55
56.87
55.42
53.74
52.25
51.24
50.8
50.8
51.04
51.27
51.19
50.58
49.34
47.59
45.66
43.97
42.89
42.62
43.09
44.07
45.24
46.31
47.08
47.4
47.14
46.12
44.21
41.34
37.73
33.9
30.66
28.84
29
31.17
34.76
38.79
42.16
44.01
43.92
41.85
38.05
32.89
26.74
19.96
12.98
6.26
0.21
-4.93
-9.16
-12.76
-16.12
-19.61
-23.35
-27.21
-30.78
-33.67
-35.58
-36.5
-36.67
-36.51
-36.47
-36.93
-38.05
-39.83
-42.16
-44.86
-47.84
-51.03
-54.36
-57.61
-60.31
-61.78
-61.25
-58.18
-52.39
-44.2
-34.38
-23.86
-13.59
-4.41
2.96
7.86
9.76
8.44
4.17
-2.22
-9.53
-16.59
-22.67
-27.58
-31.55
-34.82
-37.38
-38.88
-38.81
-36.69
-32.1
-24.66
-14.11
-0.57
15.02
30.72
43.89
52.06
53.89
49.78
41.74
32.51
24.4
18.48
14.42
11.02
7.08
2.12
-3.47
-8.65
-12.25
-13.58
-12.75
-10.77
-9.24
-9.84
-13.75
-21.13
-31.07
-41.77
-51.13
-57.34
-59.22
-56.2
-48.19
-35.44
-18.73
0.32
19.14
34.68
44.28
46.78
43.04
35.54
27.34
20.82
16.94
15.25
14.6
13.87
12.4
9.99
6.65
2.3
-3.22
-10.1
-18.25
-27.32
-36.6
-45.16
-51.92
-55.89
-56.36
-53.12
-46.57
-37.45
-26.71
-15.08
-3.07
8.99
20.73
31.55
40.65
47.23
50.85
51.52
49.71
46.04
40.95
34.62
27.12
18.69
9.95
1.88
-4.65
-9.25
-12.35
-15
-18.43
-23.46
-30.13
-37.84
-45.75
-53.37
-60.93
-69.42
-80.11
-93.93
-110.84
-129.5
-147.31
-161.01
-167.54
-164.91
-152.75
-132.4
-106.41
-77.83
-49.49
-23.49
-1.14
17.04
31
40.96
47.26
50.25
50.41
48.35
44.91
41.07
37.72
35.47
34.41
34.2
34.23
33.88
32.78
30.84
28.21
25.15
21.84
18.37
14.66
10.46
5.43
-0.94
-9.17
-19.71
-32.57
-46.95
-61.01
-71.85
-76.15
-71.13
-55.52
-30.23
1.8
36.45
69.63
98.33
121.17
138.21
150.44
159.08
165.14
169.21
171.55
172.22
171.36
169.17
166.07
162.54
159.05
155.8
152.62
148.92
143.84
136.51
126.36
113.29
97.68
80.24
61.74
42.9
24.12
5.56
-12.92
-31.68
-51.18
-71.67
-92.69
-112.77
-129.27
-138.95
-138.91
-127.82
-106.59
-78.36
-47.58
-18.68
5.19
22.74
34.32
41.14
44.49
45.14
43.44
39.58
33.97
27.37
20.82
15.33
11.6
9.83
9.71
10.59
11.65
12.1
11.33
8.96
4.8
-1.15
-8.71
-17.6
-27.45
-37.94
-48.92
