1675174367.00
64.000000
-0.00
-0.00
-0.00
-0.00
-0.00
-0.00
-0.00
-0.00
-0.00
-0.00
0.00
0.01
0.01
-0.00
-0.03
-0.05
-0.05
0.00
0.13
0.36
0.66
1.01
1.37
1.72
2.06
2.40
2.79
3.24
3.80
4.42
5.06
5.66
6.20
6.68
7.15
7.68
8.31
9.14
10.09
11.04
11.88
12.56
13.14
13.76
14.65
15.96
17.91
20.32
22.90
25.38
27.58
29.57
31.68
34.32
37.81
42.54
48.15
54.10
59.83
64.97
69.58
74.14
79.34
85.71
93.76
103.00
112.62
121.73
129.77
136.75
143.30
150.75
157.77
166.64
177.95
191.79
206.97
220.57
228.25
225.36
208.53
176.87
132.76
80.05
23.07
-34.94
-92.44
-149.16
-205.23
-260.37
-313.74
-363.87
-409.83
-450.91
-486.50
-515.74
-537.23
-549.22
-549.96
-538.37
-514.21
-478.67
-433.88
-382.45
-327.02
-269.84
-212.63
-156.66
-102.95
-52.37
-5.90
35.58
71.43
101.35
125.50
144.38
158.69
169.15
176.37
180.75
182.57
182.07
179.51
175.23
169.65
163.18
156.15
148.81
141.30
133.69
126.02
118.33
110.69
103.16
95.80
88.68
81.83
75.25
68.95
62.95
57.25
51.86
46.78
42.03
37.59
33.45
29.61
26.07
22.81
19.83
17.11
14.67
12.48
10.54
8.83
7.35
6.07
4.97
4.05
3.27
2.62
2.09
1.65
1.30
1.01
0.79
0.61
0.48
0.37
0.30
0.24
0.21
0.19
0.18
0.19
0.20
0.22
0.25
0.27
0.31
0.34
0.38
0.41
0.45
0.50
0.54
0.59
0.65
0.71
0.78
0.85
0.93
1.02
1.11
1.22
1.34
1.47
1.62
1.78
1.96
2.16
2.38
2.62
2.89
3.18
3.50
3.85
4.24
4.65
5.10
5.58
6.10
6.67
7.30
7.98
8.68
9.39
10.10
10.79
11.49
12.25
13.09
14.07
15.17
16.36
17.58
18.78
19.87
20.82
21.58
22.09
22.26
21.96
21.04
19.38
16.93
13.74
10.03
6.01
2.03
-1.64
-4.86
-7.67
-10.21
-12.65
-15.08
-17.44
-19.55
-21.21
-22.30
-22.98
-23.59
-24.59
-26.33
-28.84
-31.78
-34.53
-36.45
-37.17
-36.80
-36.00
-35.61
-36.34
-38.44
-41.51
-44.72
-47.24
-48.51
-48.58
-48.08
-47.86
-48.78
-51.58
-56.77
-64.37
-73.47
-81.80
-86.09
-83.15
-71.38
-51.94
-28.72
-7.05
8.49
15.73
15.59
10.87
4.64
-1.20
-6.30
-11.21
-16.43
-21.79
-26.54
-29.70
-30.88
-30.41
-29.07
-27.79
-27.08
-26.95
-26.86
-27.51
-28.97
-31.02
-33.01
-33.79
-31.81
-25.68
-14.62
1.04
19.90
39.97
59.05
75.29
87.53
95.40
99.13
99.34
96.83
92.42
87.02
81.46
76.36
72.11
68.88
66.58
64.93
63.61
62.32
60.99
59.68
58.39
56.99
55.11
52.25
47.94
42.05
34.87
27.21
19.95
13.77
8.82
4.65
0.47
-4.48
-10.53
-17.46
-24.61
-31.17
-36.54
-40.57
-43.62
-46.45
-50.02
-55.10
-62.09
-70.58
-79.35
-86.40
-89.50
-86.77
-77.33
-61.62
-41.36
-19.00
2.89
22.24
37.78
49.15
56.59
60.75
62.36
62.16
60.76
58.69
56.40
54.28
52.69
51.84
51.78
52.37
53.30
54.18
54.62
54.32
53.08
50.89
47.83
44.12
39.98
35.67
31.39
27.26
23.30
19.41
15.47
11.40
7.20
2.96
-1.18
-5.16
-9.07
-13.09
-17.43
-22.17
-27.15
-32.09
-36.67
-40.77
-44.51
-48.30
-52.63
-57.95
-64.41
-71.68
-78.90
-84.64
-87.24
-85.14
-77.41
-64.12
-46.41
-26.20
-5.69
13.13
28.97
41.17
49.71
54.89
57.22
57.28
55.79
53.54
51.27
49.62
48.91
49.11
49.89
50.81
51.48
51.76
51.69
51.43
51.04
50.43
49.35
47.55
44.90
41.49
37.52
33.24
28.82
24.32
19.71
15.03
10.37
5.89
1.78
-1.88
-5.14
-8.16
-11.19
-14.46
-18.15
-22.34
-26.97
-31.83
-36.63
-41.11
-45.17
-49.02
-53.12
-58.10
-64.41
-71.99
-80.12
-87.37
-91.95
-92.19
-87.05
-76.47
-61.38
-43.42
-24.55
-6.50
9.42
22.50
32.45
39.31
43.29
44.80
44.45
43.01
41.32
40.08
39.75
40.48
42.09
44.22
46.51
48.69
50.62
52.33
53.81
54.96
55.54
55.23
53.79
51.19
47.62
43.44
38.96
34.36
29.61
24.64
19.39
13.96
8.57
3.54
-0.92
-4.68
-7.76
-10.37
-12.81
-15.38
-18.36
-21.90
-26.02
-30.55
-35.25
-39.85
-44.18
-48.32
-52.64
-57.75
-64.18
-72.02
-80.59
-88.38
-93.44
-93.93
-88.79
-78.05
-62.82
-44.86
-26.11
-8.24
7.55
20.57
30.61
37.71
42.10
44.05
43.98
42.40
39.95
37.34
35.14
33.69
33.00
32.82
32.83
32.80
32.68
32.57
32.59
32.79
33.09
33.27
33.03
32.06
30.16
27.34
23.86
20.10
16.38
12.79
9.14
5.14
0.55
-4.62
-10.14
-15.71
-21.09
-26.19
-31.03
-35.63
-39.97
-44.06
-48.10
-52.49
-57.73
-63.98
-70.76
-76.77
-80.20
-79.29
-73.02
-61.52
-46.08
-28.62
-11.17
4.75
18.21
28.92
36.83
42.02
44.59
44.78
43.06
40.12
36.75
33.63
31.23
29.67
28.83
28.48
28.42
28.56
28.96
29.71
30.78
32.00
32.94
33.05
31.86
29.06
24.74
19.33
13.52
7.94
2.99
-1.34
-5.38
-9.60
-14.37
-19.74
-25.44
-31.00
-35.96
-39.99
-43.16
-45.85
-48.75
-52.67
-58.24
-65.52
-73.81
-81.60
-86.87
-87.69
-82.82
-72.10
-56.54
-38.01
-18.71
-0.64
14.78
26.81
35.33
40.66
43.35
44.01
43.19
41.37
38.88
36.08
33.32
30.95
29.27
28.40
28.25
28.56
29.02
29.39
29.62
29.73
29.67
29.24
28.05
25.71
22.07
17.40
12.28
7.35
3.00
-0.81
-4.51
-8.68
-13.71
-19.56
-25.84
-31.92
-37.27
-41.65
-45.26
-48.65
-52.50
-57.45
-63.83
-71.49
-79.65
-86.92
-91.58
-91.90
-86.74
-75.90
-60.29
-41.70
-22.28
-3.94
12.02
25.06
35.18
42.63
47.63
50.30
50.81
49.49
46.95
43.88
40.88
38.28
36.15
34.39
32.94
31.85
31.20
30.95
30.88
30.57
29.56
27.58
24.59
20.82
16.57
12.14
7.73
3.43
-0.74
-4.88
-9.18
-13.88
-19.21
-25.28
-31.96
-38.94
-45.76
-52.10
-57.85
-63.23
-68.69
-74.67
-81.32
-88.19
-94.15
-97.53
-96.50
-89.67
-76.55
-57.85
-35.43
-11.77
10.63
29.82
44.74
55.17
61.43
63.99
63.28
59.69
53.76
46.34
38.53
31.41
25.79
21.98
19.81
18.87
18.70
18.98
19.52
20.17
20.80
21.20
21.24
20.77
19.72
17.97
15.38
11.85
7.28
1.77
-4.47
-11.04
-17.44
-23.23
-28.13
-32.21
-35.87
-39.78
-44.58
-50.64
-57.68
-64.72
-70.20
-72.41
-69.98
-62.37
-50.15
-34.77
-18.27
-2.72
10.23
19.65
25.28
27.34
26.31
22.76
17.37
10.96
4.46
-1.15
-5.17
-7.27
-7.65
-6.86
-5.54
-4.22
-3.12
-2.26
-1.61
-1.26
-1.51
-2.74
-5.30
-9.30
-14.56
-20.63
-26.85
-32.47
-36.76
-39.21
-39.59
-38.14
-35.53
-32.77
-30.96
-30.96
-33.18
-37.34
-42.50
-47.18
-49.64
-48.30
-42.16
-31.11
-15.98
1.57
19.57
36.16
50.07
60.81
68.55
73.89
77.51
80.00
81.72
82.87
83.51
83.64
83.24
82.24
80.54
77.95
74.31
69.52
63.72
57.28
50.78
44.79
39.64
35.29
31.31
27.14
22.36
16.89
11.04
5.28
0.07
-4.44
-8.36
-12.08
-16.07
-20.80
-26.70
-34.04
-42.79
-52.48
-62.05
-70.05
-74.89
-75.37
-71.03
-62.33
-50.47
-37.03
-23.47
-10.85
0.26
9.64
17.23
22.99
26.88
28.97
29.62
29.53
29.74
31.34
35.26
41.96
51.38
62.94
75.81
89.07
101.90
113.71
124.19
133.31
141.17
147.91
153.66
158.71
163.61
169.28
176.69
186.36
197.89
209.97
220.87
229.27
234.68
237.31
237.36
234.33
226.72
212.67
190.95
161.78
127.04
89.98
54.66
25.61
7.37
3.79
16.90
45.71
85.72
129.77
170.10
200.75
219.18
226.26
225.02
218.79
209.87
199.18
186.81
172.73
157.11
140.32
122.53
103.58
83.11
60.91
37.06
12.01
-13.54
-38.75
-62.53
-83.70
-101.19
-114.46
-123.79
-130.22
-135.10
-139.36
-143.11
-145.61
-145.95
-143.73
-139.51
-134.64
-130.80
-129.46
-131.60
-137.95
-149.09
-165.29
-185.94
-209.05
-231.24
-248.49
-257.53
-257.01
-248.11
-233.92
-218.25
-204.15
-192.89
-183.62
-173.88
-160.74
-142.36
-119.33
-95.09
-75.07
-64.32
-64.92
-74.37
-85.98
-91.49
-84.49
-63.06
-29.93
9.33
49.30
86.83
121.44
154.00
184.97
213.29
236.49
251.80
257.47
253.47
241.37
223.66
203.01
181.72
161.50
143.40
127.62
113.44
99.10
82.15
60.11
31.23
-4.89
-47.17
-93.29
-140.24
-184.79
-223.94
-255.22
-277.05
-289.16
-292.65
-289.76
-283.19
-275.28
-267.45
-260.13
-253.16
-246.25
-239.41
-233.20
-228.81
-227.96
-232.47
-243.59
-260.99
-282.05
-301.87
-314.42
-314.19
-298.24
-267.37
-225.90
-180.26
-136.65
-99.12
-68.77
-44.43
-24.25
-7.20
6.36
15.26
18.82
17.71
14.01
9.97
6.57
2.68
-4.44
-17.63
-37.80
-62.92
-88.14
-107.59
-116.75
-114.54
-104.10
-91.75
-84.33
-86.24
-97.33
-112.91
-125.78
-129.26
-119.72
-97.37
-65.51
-28.68
8.91
44.22
75.44
101.71
122.83
139.23
151.97
162.82
174.01
187.82
205.73
227.36
249.81
267.75
274.81
265.77
238.88
197.02
146.91
96.81
53.51
20.19
-4.13
-23.54
-43.17
-67.13
-97.13
-132.07
-168.58
-202.10
-228.04
-242.75
-244.07
-231.72
-207.06
-173.02
-133.59
-93.22
-55.82
-24.09
0.96
19.80
33.72
43.98
51.08
54.71
54.07
48.54
38.35
24.78
9.94
-3.89
-14.82
-21.70
-24.00
-21.49
-14.05
-1.66
15.28
35.94
59.08
83.46
107.97
131.67
153.54
172.29
186.59
195.54
199.04
197.73
192.44
183.48
170.44
152.55
129.55
102.35
73.17
44.95
20.49
1.75
-10.40
-16.15
-16.40
-12.60
-6.62
-0.79
2.21
-0.32
-10.55
-29.49
-56.69
-90.22
-127.06
-163.85
-197.49
-225.79
-247.70
-263.32
-273.57
-279.70
-282.56
-282.22
-277.77
-267.69
-250.45
-225.18
-192.05
-152.18
-107.25
-58.92
-8.34
43.99
98.12
154.12
211.44
268.34
321.71
367.50
401.72
421.52
426.05
416.63
396.24
368.69
337.78
306.65
277.60
251.97
230.27
212.44
197.97
186.07
175.73
165.80
155.07
142.63
128.23
112.61
97.51
85.06
77.08
74.21
75.75
79.82
84.21
87.09
87.55
85.53
81.42
75.51
67.75
57.78
45.28
30.29
13.48
-3.93
-20.18
-33.45
-42.10
-45.22
-42.96
-36.52
-27.88
-19.09
-11.56
-5.72
-1.07
3.23
7.95
13.47
20.08
28.12
37.97
49.51
61.55
71.62
76.44
73.12
60.16
37.95
8.28
-26.55
-64.45
-103.51
-141.62
-176.02
-203.61
-221.85
-229.88
-229.00
-222.08
-212.24
-201.45
-189.98
-176.82
-160.78
-141.56
-120.24
-98.83
-79.37
-63.15
-50.34
-40.31
-32.26
-25.83
-21.43
-19.88
-21.85
-27.34
-35.45
-44.61
-53.14
-59.82
-64.23
-66.65
-67.67
-67.88
-67.60
-66.91
-65.77
-64.10
-61.78
-58.61
-54.36
-48.84
-42.10
-34.56
-26.98
-20.24
-15.07
-11.78
-10.19
-9.78
-9.91
-10.00
-9.69
-8.89
-7.80
-6.75
-6.16
-6.35
-7.38
-9.12
-11.31
-13.75
-16.57
-20.17
-25.07
-31.57
-39.31
-47.12
-53.21
-55.59
-52.77
-44.23
-30.66
-13.73
4.43
21.85
37.14
49.61
59.14
65.88
70.09
72.06
72.18
71.04
69.25
67.37
65.65
63.94
61.83
58.88
54.87
49.97
44.71
39.74
35.56
32.28
29.56
26.77
23.22
18.59
13.04
7.12
1.59
-2.97
-6.45
-9.23
-12.01
-15.58
-20.39
-26.45
-33.21
-39.71
-44.76
-47.24
-46.29
-41.53
-33.22
-22.18
-9.66
2.94
14.43
23.97
31.25
36.36
39.64
41.54
42.44
42.64
42.32
41.54
40.24
38.31
35.73
32.61
29.26
26.10
23.51
21.68
20.47
19.48
18.23
16.31
13.49
9.83
5.61
1.16
-3.19
-7.27
-11.14
-15.10
-19.51
-24.72
-30.80
-37.45
-44.03
-49.60
-53.16
-53.84
-51.09
-44.79
-35.38
-23.77
-11.20
1.06
11.93
20.82
27.60
32.47
35.72
37.52
37.94
37.06
35.05
32.35
29.48
26.88
24.76
23.05
21.50
19.89
18.09
16.20
14.37
12.78
11.44
10.26
9.05
7.63
5.92
3.87
1.44
-1.46
-5.03
-9.52
-15.08
-21.57
-28.47
-34.92
-39.87
-42.36
-41.78
-37.92
-31.01
-21.69
-10.82
0.57
11.46
20.98
28.58
34.04
37.44
39.06
39.30
38.52
37.06
35.21
33.20
31.17
29.15
27.04
24.76
22.30
19.77
17.37
15.26
13.46
11.83
10.20
8.38
6.29
3.93
1.31
-1.65
-5.00
-8.87
-13.27
-18.16
-23.44
-28.98
-34.47
-39.32
-42.68
-43.59
-41.32
-35.62
-26.95
-16.28
-4.84
6.25
16.17
24.51
31.09
35.83
38.69
39.74
39.20
37.51
35.17
32.67
30.29
28.06
25.85
23.53
21.06
18.52
16.12
14.01
12.26
10.89
9.83
8.95
8.04
6.78
4.87
2.10
-1.50
-5.64
-9.88
-13.87
-17.55
-21.16
-25.15
-29.82
-35.12
-40.45
-44.85
-47.18
-46.49
-42.35
-34.97
-25.17
-14.13
-3.06
7.11
15.78
22.75
28.01
31.62
33.65
34.16
33.32
31.45
29.01
26.51
24.33
22.55
21.06
19.57
17.90
16.08
14.37
13.07
12.29
11.86
11.33
10.27
8.46
6.07
3.47
1.05
-1.03
-2.88
-4.80
-7.06
-9.85
-13.19
-17.09
-21.49
-26.33
-31.40
-36.26
-40.30
-42.69
-42.70
-39.87
-34.19
-26.20
-16.89
-7.39
1.37
8.90
15.14
20.27
24.39
27.34
28.86
28.77
27.29
25.03
22.71
20.91
19.74
18.95
18.19
17.26
16.21
15.25
14.57
14.15
13.81
13.36
12.73
11.94
11.07
10.05
8.74
6.94
4.61
1.92
-0.84
-3.37
-5.55
-7.49
-9.48
-11.82
-14.73
-18.30
-22.44
-26.92
-31.30
-34.99
-37.23
-37.32
-34.75
-29.50
-22.07
-13.45
-4.77
3.01
9.37
14.25
17.88
20.53
22.38
23.40
23.53
22.73
21.08
18.82
16.25
13.72
11.55
10.01
9.24
9.16
9.52
9.88
9.85
9.19
7.88
6.10
4.09
2.06
0.12
-1.78
-3.74
-5.88
-8.23
-10.72
-13.16
-15.33
-17.08
-18.44
-19.60
-20.92
-22.77
-25.44
-28.92
-32.92
-36.84
-39.88
-41.27
-40.41
-37.10
-31.60
-24.53
-16.73
-9.02
-2.03
3.87
8.59
12.21
14.93
16.90
18.18
18.77
18.61
17.75
16.36
14.68
13.00
11.52
10.37
9.59
9.23
9.29
9.69
10.30
10.82
10.99
10.63
9.77
8.58
7.26
5.92
4.52
2.88
0.87
-1.53
-4.20
-6.96
-9.64
-12.21
-14.73
-17.38
-20.36
-23.71
-27.27
-30.54
-32.83
-33.39
-31.71
-27.71
-21.78
-14.63
-7.02
0.35
6.96
12.42
16.41
18.73
19.35
18.52
16.76
14.70
12.85
11.48
10.55
9.77
8.85
7.58
6.03
4.46
3.27
2.77
3.04
3.87
4.79
5.33
5.13
4.09
2.33
0.11
-2.39
-5.00
-7.60
-10.14
-12.58
-14.99
-17.61
-20.70
-24.37
-28.44
-32.31
-35.05
-35.82
-34.06
-29.77
-23.49
-16.10
-8.57
-1.65
4.27
9.12
13.05
16.19
18.60
20.15
20.69
20.18
18.75
16.75
14.59
12.61
10.95
9.64
8.60
7.79
7.22
6.91
6.81
6.77
6.52
5.82
4.50
2.61
0.37
-1.83
-3.67
-5.00
-5.96
-7.01
-8.66
-11.34
-15.15
-19.88
-25.03
-30.06
-34.41
-37.58
-39.08
-38.45
-35.41
-30.00
-22.72
-14.38
-5.98
1.63
7.91
12.71
16.17
18.53
20.06
20.91
21.19
20.94
20.22
19.15
17.90
16.70
15.70
14.97
14.39
13.76
12.82
11.52
10.00
8.57
7.55
7.10
7.08
7.13
6.76
5.60
3.58
0.91
-1.99
-4.74
-7.11
-9.14
-11.03
-13.10
-15.63
-18.80
-22.66
-27.11
-31.79
-36.11
-39.27
-40.45
-39.04
-34.85
-28.24
-20.02
-11.15
-2.60
4.93
11.06
15.71
19.11
21.54
23.30
24.54
25.29
25.48
25.04
24.08
22.82
21.55
20.48
19.70
19.13
18.66
18.19
17.70
17.23
16.80
16.37
15.86
15.18
14.27
13.14
11.80
10.27
8.51
6.44
4.00
1.17
-1.92
-5.02
-7.83
-10.16
-12.07
-13.88
-16.08
-19.17
-23.43
-28.73
-34.52
-39.90
-43.81
-45.34
-43.88
-39.50
-32.76
-24.67
-16.29
-8.43
-1.45
4.60
9.90
14.51
18.36
21.27
23.11
23.92
23.91
23.42
22.74
22.05
21.38
20.71
20.04
19.39
18.86
18.50
18.29
18.12
17.83
17.26
16.33
15.09
13.70
12.32
11.00
9.71
8.29
6.59
4.48
1.94
-0.97
-4.10
-7.20
-10.03
-12.46
-14.46
-16.21
-18.04
-20.24
-23.04
-26.45
-30.41
-34.74
-39.13
-43.03
-45.65
-46.06
-43.53
-37.85
-29.52
-19.62
-9.45
-0.07
7.91
14.33
19.24
22.74
24.85
25.66
25.39
24.43
23.33
22.50
22.14
22.23
22.53
22.73
22.53
21.86
20.86
19.85
19.24
19.31
20.01
20.94
21.57
21.41
20.29
18.40
16.12
13.85
11.84
10.08
8.47
6.79
4.86
2.57
-0.13
-3.13
-6.28
-9.34
-12.18
-14.77
-17.21
-19.74
-22.64
-26.09
-30.07
-34.30
-38.16
-40.81
-41.40
-39.33
-34.47
-27.26
-18.58
-9.51
-1.05
6.11
11.70
15.73
18.46
20.22
21.31
21.88
21.98
21.59
20.76
19.64
18.47
17.51
16.91
16.71
16.87
17.34
18.06
18.96
19.89
20.61
20.85
20.43
19.30
17.59
15.56
13.47
11.48
9.62
7.78
5.78
3.47
0.76
-2.29
-5.52
-8.73
-11.69
-14.32
-16.61
-18.69
-20.79
-23.23
-26.25
-29.96
-34.18
-38.37
-41.68
-43.20
-42.23
-38.55
-32.52
-24.88
-16.59
-8.48
-1.16
5.02
9.93
13.64
16.31
18.16
19.40
20.17
20.53
20.52
20.15
19.57
18.88
18.25
17.75
17.43
17.27
17.25
17.39
17.61
17.80
17.82
17.56
16.85
15.67
13.95
11.73
9.11
6.28
3.49
0.93
-1.27
-3.18
-4.98
-6.94
-9.29
-12.16
-15.63
-19.73
-24.42
-29.51
-34.56
-38.93
-41.77
-42.30
-40.09
-35.18
-28.18
-20.04
-11.78
-4.15
2.52
8.24
13.20
17.52
21.05
23.49
24.54
24.10
22.44
20.10
17.75
15.92
14.88
14.57
14.72
15.03
15.26
15.36
15.40
15.46
15.55
15.56
15.26
14.47
13.13
11.33
9.23
6.96
4.53
1.87
-1.05
-4.19
-7.40
-10.49
-13.42
-16.33
-19.58
-23.50
-28.21
-33.41
-38.43
-42.39
-44.44
-44.03
-41.03
-35.75
-28.76
-20.72
-12.24
-3.76
4.38
11.87
18.40
23.63
27.37
29.53
30.25
29.79
28.50
26.72
24.76
22.88
21.34
20.30
19.82
19.79
19.93
19.96
19.60
18.75
17.49
15.99
14.50
13.19
12.08
11.00
9.71
7.93
5.54
2.62
-0.65
-3.98
-7.14
-10.02
-12.60
-15.00
-17.41
-20.12
-23.43
-27.62
-32.71
-38.35
-43.78
-48.00
-50.05
-49.31
-45.70
-39.58
-31.66
-22.76
-13.63
-4.91
2.98
9.72
15.19
19.32
22.16
23.83
24.48
24.32
23.61
22.67
21.72
20.97
20.45
20.16
20.02
20.01
20.12
20.38
20.77
21.21
21.53
21.53
21.01
19.88
18.17
15.97
13.43
10.64
7.62
4.37
0.89
-2.70
-6.23
-9.50
-12.41
-15.08
-17.76
-20.78
-24.44
-28.89
-34.12
-39.75
-45.15
-49.34
-51.29
-50.19
-45.79
-38.49
-29.20
-19.08
-9.13
0.01
8.07
15.01
20.83
25.46
28.80
30.81
31.53
31.25
30.31
29.13
28.09
27.41
27.14
27.14
27.20
27.13
26.86
26.37
25.75
25.06
24.29
23.31
21.96
20.08
17.58
14.56
11.25
8.03
5.25
3.06
1.37
-0.16
-1.96
-4.37
-7.45
-10.99
-14.64
-18.11
-21.20
-23.95
-26.46
-28.97
-31.78
-35.20
-39.44
-44.39
-49.47
-53.65
-55.63
-54.32
-49.27
-40.85
-30.17
-18.70
-7.82
1.59
9.19
15.07
19.53
22.82
25.07
26.32
26.71
26.43
25.82
25.21
24.86
24.82
24.98
25.19
25.30
25.36
25.46
25.74
26.14
26.49
26.46
25.80
24.38
22.30
19.84
17.35
15.08
13.02
10.93
8.47
5.35
1.58
-2.54
-6.50
-9.82
-12.26
-13.93
-15.22
-16.68
-18.81
-21.95
-26.27
-31.74
-38.04
-44.64
-50.64
-55.02
-56.77
-55.18
-50.10
-42.00
-31.84
-20.86
-10.20
-0.69
7.23
13.48
18.13
21.29
23.05
23.57
23.15
22.22
21.25
20.60
20.38
20.52
20.83
21.15
21.43
21.72
22.08
22.53
23.01
23.39
23.52
23.19
22.26
20.65
18.46
15.91
13.26
10.73
8.34
5.96
3.37
0.35
-3.14
-6.98
-10.93
-14.76
-18.40
-21.96
-25.69
-29.89
-34.72
-40.08
-45.62
-50.70
-54.52
-56.23
-55.17
-51.01
-43.89
-34.39
-23.48
-12.23
-1.62
7.68
15.33
21.23
25.45
28.16
29.64
30.26
30.45
30.57
30.77
31.02
31.14
30.96
30.44
29.77
29.18
28.86
28.88
29.11
29.41
29.60
29.58
29.23
28.48
27.24
25.45
23.13
20.40
17.45
14.47
11.58
8.76
5.92
2.88
-0.48
-4.15
-8.03
-11.85
-15.30
-18.13
-20.36
-22.32
-24.60
-27.77
-32.16
-37.64
-43.76
-49.79
-54.97
-58.64
-60.18
-59.08
-54.98
-47.86
-38.15
-26.78
-14.92
-3.71
6.03
13.95
20.03
24.42
27.29
28.86
29.39
29.23
28.84
28.58
28.62
28.96
29.41
29.78
29.94
29.91
29.85
29.90
30.19
30.70
31.30
31.83
32.09
31.94
31.29
30.14
28.52
26.52
24.18
21.54
18.57
15.28
11.79
8.32
5.11
2.37
0.15
-1.72
-3.50
-5.51
-7.92
-10.77
-14.04
-17.63
-21.49
-25.61
-30.05
-34.88
-40.17
-45.90
-51.94
-57.80
-62.73
-65.79
-66.05
-62.93
-56.41
-47.00
-35.73
-23.81
-12.36
-2.19
6.27
12.93
17.90
21.45
23.83
25.36
26.32
27.03
27.69
28.39
29.15
29.86
30.43
30.79
30.98
31.06
31.12
31.21
31.29
31.30
31.17
30.82
30.19
29.23
27.91
26.23
24.21
21.93
19.46
16.85
14.15
11.43
8.69
5.92
3.05
-0.06
-3.51
-7.37
-11.51
-15.64
-19.44
-22.65
-25.24
-27.46
-29.80
-32.78
-36.80
-41.89
-47.58
-52.92
-56.70
-57.76
-55.42
-49.68
-41.23
-31.26
-20.94
-11.21
-2.59
4.79
10.94
15.88
19.58
21.98
23.08
23.04
22.17
20.89
19.70
19.02
19.05
19.75
20.82
21.85
22.52
22.72
22.58
22.32
22.14
22.05
21.95
21.66
21.00
19.87
18.27
16.24
13.90
11.30
8.49
5.43
2.05
-1.63
-5.46
-9.18
-12.51
-15.33
-17.73
-20.05
-22.75
-26.17
-30.46
-35.44
-40.65
-45.33
-48.56
-49.45
-47.32
-42.06
-34.14
-24.57
-14.53
-5.04
3.26
10.13
15.51
19.41
21.77
22.63
22.15
20.77
19.04
17.46
16.33
15.69
15.39
15.23
15.07
14.89
14.74
14.65
14.62
14.61
14.51
14.30
13.96
13.40
12.48
10.93
8.48
5.02
0.72
-3.95
-8.36
-11.96
-14.58
-16.47
-18.24
-20.58
-24.03
-28.74
-34.40
-40.35
-45.67
-49.44
-50.91
-49.62
-45.46
-38.75
-30.10
-20.39
-10.57
-1.45
6.39
12.70
17.55
21.13
23.63
25.20
25.87
25.75
25.01
23.93
22.84
22.00
21.49
21.25
21.08
20.80
20.31
19.68
19.03
18.47
18.01
17.47
16.59
15.06
12.69
9.47
5.58
1.36
-2.85
-6.83
-10.48
-13.85
-17.10
-20.41
-23.96
-27.93
-32.47
-37.67
-43.37
-49.09
-53.94
-56.83
-56.77
-53.24
-46.37
-36.95
-26.15
-15.18
-5.00
3.79
11.00
16.68
21.05
24.38
26.89
28.73
29.96
30.64
30.75
30.39
29.72
28.94
28.28
27.89
27.79
27.84
27.84
27.55
26.82
25.68
24.29
22.86
21.44
19.96
18.14
15.70
12.53
8.73
4.56
0.35
-3.69
-7.47
-11.01
-14.42
-17.83
-21.42
-25.46
-30.22
-35.84
-42.08
-48.32
-53.54
-56.58
-56.46
-52.75
-45.62
-35.91
-24.79
-13.51
-3.06
5.98
13.44
19.42
24.02
27.30
29.27
30.01
29.76
28.92
27.95
27.16
26.66
26.34
26.03
25.61
25.10
24.64
24.32
24.18
24.17
24.12
23.89
23.36
22.46
21.14
19.33
17.02
14.24
11.09
7.75
4.38
1.05
-2.21
-5.46
-8.69
-11.86
-14.91
-17.79
-20.54
-23.28
-26.25
-29.69
-33.90
-39.08
-45.27
-52.08
-58.56
-63.29
-64.72
-61.73
-54.08
-42.59
-28.91
-14.96
-2.35
7.99
15.86
21.55
25.51
28.23
30.05
31.25
32.05
32.65
33.19
33.77
34.38
34.90
35.09
34.71
33.64
32.06
30.42
29.25
28.93
29.32
29.90
29.86
28.57
25.80
21.78
17.03
12.08
7.29
2.78
-1.43
-5.30
-8.73
-11.64
-14.05
-16.12
-18.13
-20.33
-22.87
-25.78
-29.04
-32.65
-36.64
-40.91
-45.18
-48.81
-50.93
-50.63
-47.30
-40.88
-31.93
-21.52
-10.89
-1.19
6.82
12.85
17.09
19.99
22.04
23.61
24.71
25.19
24.83
23.66
21.97
20.29
19.09
18.65
18.94
19.69
20.53
21.14
21.34
21.01
20.17
18.92
17.50
16.18
15.14
14.37
13.61
12.49
10.64
7.94
4.48
0.49
-3.78
-8.15
-12.57
-17.04
-21.63
-26.41
-31.42
-36.54
-41.37
-45.23
-47.29
-46.75
-43.21
-36.73
-27.91
-17.71
-7.20
2.64
11.05
17.65
22.37
25.43
27.21
28.12
28.46
28.42
28.08
27.49
26.68
25.68
24.48
23.06
21.41
19.61
17.85
16.32
15.16
14.36
13.69
12.80
11.37
9.22
6.32
2.82
-1.04
-5.06
-9.05
-12.88
-16.46
-19.80
-22.98
-26.23
-29.79
-33.94
-38.72
-43.87
-48.83
-52.78
-54.88
-54.47
-51.24
-45.29
-37.10
-27.41
-17.08
-6.93
2.38
10.35
16.72
21.47
24.67
26.48
27.12
26.83
25.97
24.93
24.10
23.75
23.89
24.32
24.69
24.73
24.35
23.67
22.95
22.45
22.24
22.23
22.14
21.68
20.56
18.64
15.91
12.47
8.55
4.39
0.21
-3.86
-7.78
-11.59
-15.40
-19.31
-23.41
-27.82
-32.59
-37.66
-42.70
-47.10
-49.94
-50.32
-47.63
-41.86
-33.69
-24.25
-14.81
-6.33
0.74
6.39
10.85
14.35
16.95
18.62
19.35
19.33
18.93
18.64
18.78
19.32
19.89
19.96
19.10
17.30
14.97
12.83
11.55
11.36
12.00
12.81
13.03
12.19
10.31
7.77
5.20
2.99
1.28
-0.16
-1.75
-3.88
-6.75
-10.34
-14.48
-18.97
-23.63
-28.36
-33.03
-37.55
-41.86
-46.15
-50.77
-56.20
-62.62
-69.72
-76.47
-81.35
-82.82
-79.87
-72.39
-61.15
-47.50
-32.79
-18.04
-3.79
9.68
22.14
33.22
42.47
49.58
54.50
57.46
58.92
59.29
58.90
57.88
56.25
54.11
51.69
49.35
47.60
46.86
47.30
48.68
50.30
51.23
50.64
48.13
43.88
38.51
32.80
27.29
22.08
16.95
11.52
5.52
-1.07
-8.07
-15.19
-22.12
-28.68
-34.70
-40.20
-45.32
-50.27
-55.19
-59.98
-64.22
-67.13
-67.78
-65.33
-59.36
-49.99
-37.93
-24.38
-10.70
1.86
12.45
20.74
26.86
31.18
34.12
36.02
37.08
37.45
37.30
36.82
36.09
35.18
34.09
32.87
31.68
30.70
30.05
29.66
29.25
28.49
27.12
25.05
22.32
19.02
15.18
10.80
5.97
0.92
-4.00
-8.44
-12.28
-15.71
-19.19
-23.25
-28.25
-34.15
-40.57
-46.78
-51.95
-55.25
-56.04
-53.93
-48.92
-41.41
-32.17
-22.15
-12.31
-3.32
4.46
10.87
15.90
19.49
21.67
22.57
22.52
22.03
21.55
21.38
21.52
21.75
21.84
21.71
21.41
21.10
20.84
20.57
20.17
19.55
18.65
17.52
16.07
14.10
11.34
7.65
3.12
-1.81
-6.56
-10.68
-14.13
-17.36
-21.14
-26.15
-32.67
-40.28
-47.92
-54.17
-57.70
-57.61
-53.74
-46.57
-37.11
-26.55
-16.01
-6.34
2.00
8.92
14.56
19.11
22.74
25.49
27.32
28.23
28.31
27.82
27.02
26.20
25.47
24.85
24.35
23.92
23.59
23.28
22.89
22.26
21.26
19.90
18.30
16.59
14.84
12.92
10.65
7.87
4.56
0.88
-2.94
-6.77
-10.59
-14.57
-18.93
-23.81
-29.22
-35.04
-40.97
-46.55
-51.17
-54.02
-54.34
-51.52
-45.41
-36.44
-25.53
-13.93
-2.84
6.81
14.54
20.28
24.32
27.12
29.13
30.70
31.93
32.74
32.93
32.32
30.96
29.13
27.31
25.94
25.28
25.28
25.63
25.91
25.79
25.11
23.91
22.33
20.56
18.70
16.81
14.80
12.56
9.94
6.82
3.22
-0.75
-4.87
-8.93
-12.77
-16.41
-20.01
-23.86
-28.23
-33.26
-38.84
-44.46
-49.26
-52.12
-51.97
-48.22
-40.99
-31.18
-20.22
-9.55
-0.28
7.14
12.80
17.11
20.46
23.10
25.09
26.44
27.16
27.37
27.19
26.72
26.06
25.30
24.50
23.79
23.30
23.19
23.52
24.24
25.09
25.70
25.65
24.67
22.75
20.13
17.25
14.48
12.01
9.74
7.39
4.64
1.33
-2.47
-6.51
-10.47
-14.09
-17.25
-20.01
-22.62
-25.46
-28.95
-33.37
-38.70
-44.44
-49.60
-52.93
-53.23
-49.85
-42.89
-33.24
-22.28
-11.42
-1.78
6.13
12.21
16.67
19.80
21.86
23.06
23.56
23.51
22.99
22.12
20.99
19.77
18.70
18.05
18.02
18.59
19.58
20.64
21.45
21.75
21.46
20.60
19.22
17.32
14.90
11.97
8.60
4.96
1.23
-2.36
-5.70
-8.76
-11.64
-14.57
-17.83
-21.71
-26.40
-31.89
-37.87
-43.70
-48.50
-51.26
-51.12
-47.67
-41.06
-32.01
-21.63
-11.09
-1.38
6.91
13.57
18.67
22.34
24.78
26.21
26.82
26.85
26.47
25.77
24.76
23.48
22.02
20.61
19.51
18.94
18.94
19.31
19.75
19.93
19.57
18.60
17.05
14.99
12.55
9.77
6.71
3.37
-0.21
-3.98
-7.85
-11.73
-15.55
-19.29
-22.92
-26.40
-29.74
-32.97
-36.23
-39.63
-43.14
-46.41
-48.74
-49.21
-46.99
-41.67
-33.51
-23.35
-12.45
-2.08
6.77
13.60
18.43
21.60
23.62
24.92
25.75
26.16
26.12
25.65
24.86
23.96
23.15
22.54
22.14
21.89
21.76
21.77
21.95
22.24
22.46
22.30
21.50
19.96
17.81
15.31
12.80
10.45
8.18
5.80
3.03
-0.30
-4.14
-8.25
-12.30
-15.97
-19.16
-21.96
-24.73
-27.98
-32.20
-37.59
-43.93
-50.44
-55.91
-59.04
-58.82
-54.92
-47.78
-38.36
-27.86
-17.32
-7.46
1.32
8.78
14.76
19.20
22.14
23.87
24.81
25.40
25.98
26.61
27.19
27.51
27.41
26.90
26.15
25.41
24.93
24.87
25.21
25.77
26.29
26.43
25.97
24.79
22.95
20.60
17.98
15.27
12.59
9.98
7.36
4.62
1.61
-1.73
-5.40
-9.23
-13.04
-16.65
-20.04
-23.36
-26.84
-30.76
-35.33
-40.57
-46.26
-51.92
-56.78
-59.90
-60.39
-57.66
-51.67
-42.98
-32.60
-21.64
-11.05
-1.47
6.78
13.49
18.56
21.94
23.77
24.40
24.35
24.12
24.09
24.36
24.81
25.21
25.37
25.22
24.80
24.27
23.82
23.61
23.67
23.91
24.07
23.86
23.08
21.68
19.81
17.72
15.61
13.54
11.42
9.05
6.34
3.28
-0.07
-3.60
-7.23
-10.91
-14.53
-17.98
-21.16
-24.17
-27.32
-31.06
-35.75
-41.29
-46.98
-51.58
-53.75
-52.44
-47.40
-39.19
-29.01
-18.27
-8.22
0.31
6.94
11.66
14.64
16.21
16.74
16.64
16.29
15.94
15.74
15.71
15.82
16.01
16.28
16.64
17.15
17.89
18.91
20.26
21.81
23.33
24.43
24.74
24.04
22.36
19.95
17.18
14.30
11.38
8.32
4.94
1.19
-2.83
-6.91
-10.86
-14.64
-18.38
-22.30
-26.67
-31.54
-36.75
-41.72
-45.64
-47.54
-46.63
-42.53
-35.47
-26.24
-15.96
-5.81
3.29
10.80
16.57
20.69
23.40
24.98
25.72
25.90
25.76
25.46
25.04
24.47
23.67
22.68
21.59
20.55
19.77
19.33
19.20
19.20
19.12
18.76
18.02
16.87
15.37
13.51
11.24
8.50
5.28
1.63
-2.28
-6.24
-10.10
-13.81
-17.56
-21.55
-25.98
-30.89
-36.17
-41.54
-46.67
-51.15
-54.49
-56.12
-55.45
-52.00
-45.70
-36.97
-26.68
-15.96
-5.83
3.01
10.26
15.92
20.12
23.02
24.75
25.51
25.57
25.25
24.84
24.49
24.27
24.12
23.97
23.78
23.56
23.36
23.21
23.12
23.02
22.80
22.31
21.40
19.91
17.76
14.96
11.54
7.66
3.48
-0.81
-5.07
-9.17
-13.12
-16.97
-20.86
-24.97
-29.45
-34.44
-39.89
-45.55
-50.94
-55.28
-57.66
-57.29
-53.74
-47.07
-37.94
-27.40
-16.61
-6.56
2.18
9.40
15.15
19.61
22.94
25.24
26.65
27.37
27.62
27.64
27.55
27.30
26.80
25.95
24.82
23.64
22.68
22.17
22.13
22.34
22.48
22.22
21.36
19.88
17.89
15.55
13.02
10.40
7.75
5.05
2.22
-0.86
-4.27
-8.04
-12.02
-15.95
-19.55
-22.70
-25.55
-28.56
-32.30
-37.14
-42.97
-49.01
-54.02
-56.57
-55.62
-50.79
-42.58
-32.09
-20.65
-9.50
0.54
8.98
15.62
20.39
23.39
24.85
25.16
24.84
24.37
24.03
23.87
23.80
23.73
23.71
23.89
24.44
25.37
26.47
27.35
27.65
27.09
25.65
23.50
20.91
18.11
15.29
12.51
9.76
7.02
4.22
1.27
-1.93
-5.47
-9.39
-13.64
-18.13
-22.77
-27.51
-32.34
-37.28
-42.25
-47.00
-50.99
-53.46
-53.56
-50.60
-44.38
-35.36
-24.59
-13.45
-3.32
4.88
10.85
14.87
17.52
19.42
20.97
22.30
23.38
24.12
24.46
24.37
23.90
23.18
22.43
21.94
22.02
22.82
24.28
26.13
27.90
29.14
29.50
28.83
27.13
24.54
21.32
17.76
14.18
10.82
7.70
4.64
1.31
-2.60
-7.13
-12.07
-17.03
-21.61
-25.67
-29.40
-33.24
-37.70
-43.09
-49.33
-55.78
-61.39
-64.82
-64.89
-60.93
-53.04
-42.09
-29.47
-16.68
-4.92
5.11
13.24
19.64
24.61
28.43
31.31
33.42
34.93
35.97
36.61
36.91
36.85
36.48
35.93
35.37
35.03
35.05
35.46
36.06
36.52
36.42
35.47
33.65
31.19
28.47
25.87
23.58
21.55
19.54
17.29
14.60
11.47
8.01
4.33
0.48
-3.55
-7.69
-11.81
-15.71
-19.26
-22.50
-25.75
-29.44
-34.00
-39.62
-46.12
-52.96
-59.28
-64.18
-66.76
-66.41
-62.83
-56.18
-46.95
-35.95
-24.07
-12.22
-1.17
8.52
16.51
22.68
27.11
30.08
31.93
33.04
33.71
34.13
34.33
34.33
34.15
33.84
33.58
33.49
33.66
34.10
34.69
35.30
35.81
36.11
36.08
35.61
34.53
32.70
30.08
26.78
23.03
19.17
15.50
12.12
9.00
5.90
2.59
-1.10
-5.17
-9.44
-13.63
-17.42
-20.64
-23.33
-25.75
-28.34
-31.50
-35.49
-40.36
-45.92
-51.74
-57.21
-61.48
-63.60
-62.67
-58.19
-50.26
-39.68
-27.79
-15.98
-5.36
3.55
10.79
16.63
21.29
24.78
26.97
27.76
27.35
26.18
24.87
23.97
23.74
24.13
24.83
25.44
25.75
25.79
25.79
26.00
26.49
27.04
27.25
26.73
25.32
23.18
20.70
18.27
16.09
14.06
11.87
9.16
5.76
1.69
-2.83
-7.47
-11.94
-16.01
-19.64
-22.96
-26.29
-30.02
-34.51
-39.85
-45.71
-51.29
-55.47
-57.19
-55.72
-50.90
-43.12
-33.16
-21.99
-10.59
0.15
9.48
16.87
22.11
25.34
27.00
27.64
27.74
27.61
27.32
26.87
26.29
25.60
24.91
24.30
23.84
23.61
23.73
24.22
24.98
25.77
26.19
25.86
24.57
22.41
19.66
16.73
13.96
11.53
9.39
7.38
5.24
2.69
-0.48
-4.35
-8.80
-13.51
-18.00
-21.83
-24.76
-26.89
-28.72
-30.97
-34.30
-39.06
-45.07
-51.53
-57.24
-60.86
-61.28
-57.95
-51.01
-41.28
-29.96
-18.30
-7.30
2.44
10.66
17.35
22.54
26.29
28.71
29.96
30.30
30.04
29.43
28.69
27.99
27.41
27.05
26.91
27.01
27.23
27.44
27.49
27.29
26.80
26.05
25.11
23.99
22.70
21.11
19.16
16.78
14.04
11.09
8.09
5.17
2.32
-0.51
-3.46
-6.61
-10.00
-13.53
-17.09
-20.48
-23.57
-26.32
-28.90
-31.60
-34.85
-38.92
-43.87
-49.37
-54.73
-59.09
-61.52
-61.24
-57.83
-51.28
-42.04
-31.03
-19.39
-8.29
1.40
9.25
15.29
19.81
23.19
25.70
27.42
28.33
28.48
28.01
27.20
26.37
25.77
25.51
25.61
26.00
26.57
27.22
27.86
28.35
28.59
28.50
28.05
27.25
26.08
24.49
22.45
19.97
17.14
14.11
11.02
7.94
4.89
1.87
-1.10
-3.94
-6.63
-9.22
-11.83
-14.61
-17.63
-20.83
-24.03
-27.01
-29.65
-32.02
-34.41
-37.23
-40.83
-45.32
-50.42
-55.37
-59.02
-60.17
-57.89
-51.88
-42.61
-31.17
-19.02
-7.51
2.41
10.32
16.23
20.44
23.29
25.05
25.93
26.13
25.92
25.57
25.32
25.23
25.23
25.17
25.01
24.81
24.79
25.20
26.15
27.50
28.90
29.88
30.03
29.11
27.18
24.49
21.47
18.48
15.78
13.38
11.13
8.72
5.94
2.72
-0.88
-4.65
-8.41
-11.97
-15.23
-18.18
-20.87
-23.47
-26.22
-29.43
-33.32
-37.96
-43.07
-48.12
-52.32
-54.81
-54.83
-51.94
-46.13
-37.88
-28.06
-17.72
-7.87
0.77
7.89
13.50
17.74
20.80
22.81
23.87
24.15
23.90
23.43
22.95
22.56
22.14
21.54
20.66
19.54
18.38
17.41
16.82
16.60
16.61
16.60
16.32
15.64
14.49
12.86
10.82
8.41
5.73
2.91
0.08
-2.63
-5.15
-7.53
-9.88
-12.36
-15.10
-18.15
-21.56
-25.35
-29.57
-34.22
-39.13
-43.88
-47.75
-49.85
-49.34
-45.78
-39.27
-30.49
-20.57
-10.67
-1.70
5.87
11.91
16.55
19.88
21.94
22.72
22.30
20.95
19.09
17.23
15.77
14.85
14.39
14.10
13.71
13.11
12.45
12.04
12.18
12.96
14.10
15.07
15.13
13.77
10.81
6.55
1.60
-3.36
-7.85
-11.66
-14.90
-17.90
-21.01
-24.57
-28.81
-33.78
-39.21
-44.51
-48.70
-50.65
-49.44
-44.64
-36.62
-26.44
-15.52
-5.25
3.49
10.38
15.64
19.62
22.61
24.65
25.63
25.46
24.27
22.45
20.49
18.84
17.70
17.03
16.65
16.35
16.03
15.70
15.42
15.20
14.91
14.28
13.07
11.08
8.36
5.05
1.35
-2.54
-6.55
-10.72
-15.04
-19.55
-24.24
-29.20
-34.55
-40.38
-46.52
-52.38
-56.92
-58.91
-57.38
-51.98
-43.22
-32.23
-20.44
-9.09
1.04
9.61
16.55
21.91
25.74
28.17
29.49
30.06
30.28
30.42
30.52
30.46
30.07
29.29
28.21
27.02
25.95
25.12
24.56
24.16
23.79
23.30
22.49
21.11
18.91
15.74
11.60
6.66
1.30
-4.07
-9.08
-13.57
-17.63
-21.52
-25.60
-30.19
-35.49
-41.51
-48.00
-54.41
-59.86
-63.31
-63.73
-60.49
-53.54
-43.56
-31.69
-19.31
-7.61
2.58
10.94
17.43
22.22
25.61
27.93
29.57
30.89
32.12
33.32
34.33
34.96
35.11
34.81
34.31
33.83
33.52
33.36
33.16
32.71
31.85
30.56
28.93
27.06
24.96
22.50
19.44
15.55
10.67
4.95
-1.26
-7.42
-13.00
-17.68
-21.37
-24.32
-26.97
-29.92
-33.71
-38.68
-44.81
-51.70
-58.71
-65.18
-70.69
-75.05
-78.10
-79.50
-78.60
-74.45
-65.83
-51.40
-29.53
1.52
43.00
94.66
153.90
215.76
274.18
323.86
361.83
387.75
402.82
408.19
403.91
389.23
363.97
329.77
290.29
250.15
213.14
180.94
152.85
126.81
100.65
72.98
43.28
11.63
-21.40
-54.75
-86.78
-115.35
-138.36
-154.46
-163.52
-166.71
-166.05
-163.68
-161.20
-159.40
-158.32
-157.45
-156.10
-153.53
-149.12
-142.45
-133.26
-121.59
-107.60
-91.58
-74.02
-55.70
-37.72
-21.29
-7.37
3.72
12.48
20.13
28.18
37.86
49.88
64.26
80.55
98.16
116.54
135.15
153.39
170.42
185.25
196.92
204.84
209.03
209.96
208.25
204.15
197.37
187.30
173.48
156.12
136.25
115.42
94.84
74.97
55.55
36.19
17.15
-0.54
-15.60
-27.84
-39.00
-52.75
-73.45
-104.32
-146.21
-197.72
-256.58
-321.16
-390.75
-464.43
-539.30
-609.58
-667.76
-707.20
-724.86
-722.52
-705.64
-680.95
-653.85
-627.16
-601.27
-575.32
-548.26
-519.38
-488.27
-454.75
-419.00
-381.62
-343.69
-306.37
-270.56
-236.74
-205.07
-175.51
-147.82
-121.58
-96.20
-71.25
-46.85
-23.80
-3.40
13.19
25.48
34.04
40.35
46.37
53.95
64.36
77.95
94.08
111.39
128.10
142.57
153.49
160.00
161.59
158.02
149.45
136.74
121.67
106.84
95.08
88.53
87.95
92.46
99.91
107.58
112.80
113.25
107.21
93.60
72.32
44.43
12.31
-20.66
-50.57
-73.80
-87.67
-90.91
-83.70
-67.39
-44.01
-15.58
16.37
51.01
88.19
128.20
171.55
218.60
269.28
322.79
377.31
430.03
477.61
516.83
545.35
562.15
567.52
562.70
549.38
529.27
503.95
474.85
443.42
411.13
379.51
349.99
323.75
301.40
282.88
267.37
253.51
239.93
225.77
210.95
196.08
181.97
169.00
156.83
144.46
130.77
115.07
97.41
78.57
59.61
41.49
24.81
9.95
-2.70
-12.58
-19.17
-22.55
-23.79
-24.95
-28.45
-36.02
-47.91
-62.69
-77.88
-91.01
-100.67
-106.73
-110.06
-111.74
-112.41
-112.12
-110.65
-107.93
-104.33
-100.58
-97.50
-95.59
-94.97
-95.42
-96.61
-98.31
-100.51
-103.29
-106.72
-110.63
-114.67
-118.36
-121.34
-123.51
-125.17
-126.92
-129.50
-133.57
-139.64
-147.94
-158.46
-170.98
-185.14
-200.56
-216.92
-233.95
-251.23
-268.05
-283.28
-295.53
-303.40
-305.71
-301.65
-290.69
-272.42
-246.67
-213.68
-174.35
-130.06
-82.50
-33.37
16.44
67.11
119.10
172.43
226.02
277.64
324.67
364.81
396.52
419.64
435.23
444.50
447.94
444.75
433.11
411.32
378.67
335.34
283.48
226.98
170.01
116.16
67.69
25.32
-10.66
-40.99
-69.34
-99.33
-132.67
-169.89
-209.91
-249.95
-285.94
-311.48
-320.91
-315.76
-300.34
-279.56
-259.97
-247.35
-244.27
-248.99
-253.21
-247.61
-232.54
-211.28
-185.87
-159.34
-133.51
-107.94
-80.44
-44.16
7.92
72.82
148.40
237.02
338.23
447.01
553.50
619.56
611.91
566.45
510.51
444.70
377.00
313.08
254.61
200.12
147.12
98.04
56.67
17.26
-25.44
-71.54
-120.34
-169.26
-213.86
-249.18
-268.11
-266.06
-248.92
-224.05
-195.42
-166.57
-139.97
-116.99
-98.11
-81.14
-63.45
-47.06
-33.71
-22.79
-13.81
-6.21
0.45
6.28
11.59
16.00
16.73
12.29
4.21
-4.10
-8.57
-6.34
2.80
16.17
28.85
34.69
29.22
11.27
-17.38
-53.15
-91.99
-130.60
-166.87
-199.68
-228.34
-252.23
-270.78
-283.66
-291.00
-293.19
-290.47
-282.44
-267.92
-245.38
-213.81
-173.74
-127.63
-79.83
-35.53
0.68
26.02
40.23
45.12
43.61
38.38
31.20
22.73
13.04
2.08
-10.00
-23.05
-37.21
-53.04
-71.24
-92.00
-114.34
-136.00
-153.62
-163.66
-163.33
-151.71
-130.39
-103.60
-77.47
-58.47
-51.52
-58.35
-77.15
-103.50
-132.34
-159.87
-184.62
-207.02
-227.93
-247.16
-262.70
-271.26
-269.70
-256.47
-232.30
-199.88
-162.68
-123.64
-84.37
-45.00
-4.94
36.36
78.71
120.95
161.24
197.60
228.46
252.98
271.20
283.84
291.96
296.71
298.96
299.12
297.04
292.10
283.47
270.50
253.27
233.04
212.42
194.97
184.36
183.19
192.15
209.70
232.64
256.99
279.01
295.78
305.37
306.77
299.86
285.42
265.09
240.93
214.97
188.66
162.66
137.06
111.82
87.14
63.63
42.16
23.68
8.92
-1.80
-8.58
-12.06
-13.32
-13.86
-15.38
-19.43
-27.16
-39.06
-54.80
-73.24
-92.72
-111.55
-128.46
-142.95
-155.00
-164.54
-170.92
-172.66
-167.98
-155.51
-135.10
-107.95
-76.18
-42.13
-7.80
25.30
55.95
83.10
105.93
124.11
137.89
147.93
154.78
158.43
158.27
153.43
143.43
128.74
110.80
91.65
73.22
56.79
42.73
30.61
19.59
8.83
-2.29
-14.12
-26.89
-40.85
-56.34
-73.68
-92.93
-113.60
-134.55
-154.32
-171.67
-186.12
-198.16
-208.92
-219.47
-230.05
-239.76
-246.61
-248.21
-242.48
-228.32
-206.06
-177.41
-145.15
-112.50
-82.54
-57.57
-38.73
-25.85
-17.76
-12.70
-8.90
-5.02
-0.38
5.02
10.72
15.95
20.01
22.42
23.04
22.04
19.84
16.88
13.53
10.01
6.27
2.01
-3.37
-10.54
-19.96
-31.34
-43.41
-53.90
-59.98
-59.18
-50.22
-33.49
-11.03
14.20
39.20
61.65
80.29
94.84
105.61
113.18
118.08
120.73
121.40
120.31
117.62
113.56
108.43
102.63
96.66
91.07
86.37
82.94
80.93
80.29
80.69
81.63
82.45
82.54
81.35
78.60
74.26
68.66
62.31
55.88
50.02
45.15
41.34
38.22
34.99
30.72
24.72
16.93
8.22
0.36
-4.30
-3.41
4.78
21.17
45.67
77.34
114.45
154.54
194.38
230.36
259.00
277.85
286.04
284.47
275.29
261.05
243.93
225.33
205.98
186.40
167.13
148.84
132.05
116.88
102.98
89.67
76.27
62.43
48.27
34.22
20.83
8.46
-2.88
-13.48
-23.71
-33.88
-43.92
-53.48
-62.09
-69.40
-75.36
-80.28
-84.57
-88.56
-92.34
-95.74
-98.52
-100.49
-101.72
-102.42
-102.89
-103.42
-104.13
-104.99
-105.70
-105.56
-103.45
-97.95
-87.74
-72.09
-51.37
-27.19
-1.99
21.66
41.78
57.36
68.25
74.75
77.24
76.02
71.52
64.58
56.41
48.40
41.56
36.22
32.01
28.16
24.09
19.61
15.02
10.85
7.53
5.19
3.62
2.44
1.23
-0.30
-2.17
-4.23
-6.15
-7.64
-8.55
-9.00
-9.26
-9.67
-10.57
-12.15
-14.57
-18.04
-22.81
-29.13
-37.12
-46.66
-57.23
-68.00
-77.98
-86.25
-92.16
-95.57
-96.78
-96.43
-95.19
-93.53
-91.56
-89.04
-85.62
-81.03
-75.18
-68.10
-59.91
-50.79
-41.04
-31.20
-22.04
-14.30
-8.40
-4.18
-0.90
2.38
6.43
11.50
17.22
22.93
27.97
31.87
34.40
35.49
35.07
33.12
29.69
24.89
18.90
11.81
3.68
-5.47
-15.37
-25.53
-35.10
-43.18
-49.09
-52.57
-53.84
-53.45
-52.11
-50.43
-48.85
-47.43
-45.71
-42.76
-37.44
-28.85
-16.89
-2.61
12.02
24.75
33.92
38.87
39.87
37.52
32.11
23.34
10.72
-5.88
-25.77
-47.53
-69.47
-90.24
-109.06
-125.60
-139.61
-150.69
-158.28
-161.90
-161.33
-156.64
-148.02
-135.69
-119.94
-101.23
-80.27
-57.96
-35.29
-13.09
7.99
27.54
45.34
61.40
75.98
89.44
102.10
113.94
124.31
131.82
134.54
130.41
117.86
96.47
67.33
33.18
-2.15
-34.57
-60.72
-78.84
-88.96
-92.63
-92.22
-90.23
-88.68
-88.97
-91.93
-97.92
-107.09
-119.35
-134.51
-152.07
-171.17
-190.39
-207.73
-220.75
-226.86
-223.80
-210.20
-185.95
-152.41
-112.23
-68.90
-26.01
13.32
46.93
73.59
92.87
104.82
109.83
108.74
102.97
94.47
85.33
77.26
70.98
66.17
61.75
56.66
50.40
43.31
36.33
30.42
26.00
22.78
19.88
16.34
11.44
4.93
-3.12
-12.38
-22.35
-32.19
-40.64
-46.13
-47.23
-43.27
-34.69
-23.12
-10.74
0.41
9.15
15.33
19.58
22.78
25.54
28.05
30.14
31.59
32.28
32.30
31.84
31.14
30.39
29.72
29.26
29.10
29.29
29.84
30.69
31.81
33.20
34.97
37.30
40.35
44.16
48.51
52.82
56.24
57.86
56.90
52.96
46.08
36.66
25.38
12.99
0.29
-11.95
-23.02
-32.40
-39.87
-45.51
-49.68
-52.77
-55.02
-56.38
-56.54
-55.09
-51.78
-46.65
-40.13
-32.90
-25.73
-19.29
-13.97
-9.83
-6.62
-3.98
-1.59
0.64
2.58
3.94
4.47
4.11
3.07
1.69
0.34
-0.74
-1.53
-2.21
-2.93
-3.80
-4.79
-5.80
-6.83
-7.99
-9.47
-11.40
-13.74
-16.26
-18.67
-20.71
-22.35
-23.82
-25.51
-27.88
-31.41
-36.43
-43.00
-50.76
-58.68
-65.18
-68.42
-66.95
-60.28
-49.18
-35.40
-21.09
-8.01
2.93
11.71
18.79
24.58
29.21
32.54
34.38
34.83
34.31
33.40
32.63
32.25
32.22
32.22
31.93
31.15
29.94
28.55
27.25
26.20
25.33
24.37
22.98
20.83
17.78
13.92
9.54
5.01
0.73
-3.06
-6.31
-9.21
-12.05
-15.22
-19.01
-23.65
-29.25
-35.72
-42.68
-49.29
-54.37
-56.59
-54.96
-49.21
-39.94
-28.47
-16.40
-5.10
4.57
12.37
18.45
23.17
26.85
29.65
31.63
32.71
32.82
32.01
30.52
28.69
26.85
25.22
23.87
22.75
21.82
21.04
20.37
19.77
19.05
18.01
16.47
14.34
11.65
8.46
4.85
0.89
-3.29
-7.47
-11.32
-14.57
-17.06
-18.88
-20.35
-21.98
-24.36
-27.96
-32.87
-38.57
-43.89
-47.23
-47.00
-42.28
-33.17
-20.83
-7.10
6.13
17.52
26.47
33.03
37.64
40.72
42.56
43.31
43.10
42.13
40.68
39.00
37.27
35.53
33.76
31.98
30.31
28.95
28.04
27.57
27.31
26.89
25.95
24.28
21.85
18.75
15.14
11.21
7.16
3.29
-0.18
-3.13
-5.63
-8.02
-10.76
-14.29
-18.87
-24.44
-30.56
-36.43
-40.97
-43.02
-41.65
-36.52
-27.94
-16.89
-4.71
7.28
18.05
27.01
33.91
38.79
41.82
43.24
43.34
42.42
40.75
38.60
36.16
33.57
30.85
28.02
25.00
21.78
18.50
15.51
13.20
11.87
11.49
11.60
11.45
10.32
7.81
4.00
-0.60
-5.33
-9.66
-13.37
-16.64
-19.87
-23.52
-27.98
-33.41
-39.62
-45.99
-51.52
-54.99
-55.36
-52.02
-45.13
-35.52
-24.52
-13.49
-3.46
4.99
11.74
16.91
20.66
23.15
24.53
25.02
24.86
24.34
23.67
22.92
22.10
21.16
20.12
19.12
18.31
17.85
17.81
18.12
18.62
19.01
18.93
18.05
16.24
13.65
10.71
7.98
5.92
4.63
3.80
2.81
0.98
-2.12
-6.48
-11.60
-16.64
-20.67
-22.92
-23.01
-20.98
-17.28
-12.53
-7.47
-2.66
1.47
4.69
6.89
8.07
8.33
7.89
7.06
6.17
5.48
5.12
5.07
5.21
5.36
5.42
5.29
4.95
4.33
3.36
1.97
0.14
-2.06
-4.46
-6.81
-8.91
-10.69
-12.30
-14.11
-16.63
-20.30
-25.35
-31.61
-38.50
-45.14
-50.41
-53.24
-52.78
-48.66
-41.13
-31.04
-19.68
-8.38
1.84
10.48
17.53
23.26
27.96
31.74
34.60
36.59
37.93
38.96
40.11
41.63
43.59
45.91
48.53
51.44
54.77
58.64
63.07
67.81
72.40
76.13
78.28
78.16
75.37
69.81
61.83
52.18
41.86
31.93
23.18
15.90
9.82
4.28
-1.32
-7.10
-12.50
-16.50
-17.98
-16.39
-11.86
-5.23
2.41
10.03
16.84
22.23
25.62
26.50
24.63
20.31
14.46
8.39
3.45
0.51
-0.27
0.53
1.79
2.29
1.05
-2.31
-7.53
-13.74
-19.81
-24.77
-28.05
-29.68
-30.19
-30.28
-30.61
-31.58
-33.32
-35.74
-38.66
-41.84
-45.10
-48.40
-51.83
-55.64
-60.12
-65.39
-71.17
-76.60
-80.45
-81.43
-78.72
-72.32
-63.11
-52.58
-42.21
-33.05
-25.45
-19.27
-14.12
-9.73
-6.05
-3.14
-1.06
0.30
1.13
1.57
1.60
1.16
0.19
-1.27
-2.98
-4.62
-5.89
-6.53
-6.46
-5.77
-4.68
-3.53
-2.76
-2.64
-3.26
-4.39
-5.65
-6.75
-7.60
-8.51
-9.95
-12.43
-16.17
-21.14
-27.06
-33.45
-39.68
-45.05
-48.72
-50.03
-48.65
-44.76
-39.09
-32.66
-26.39
-20.84
-16.03
-11.57
-7.02
-2.14
2.93
7.71
11.65
14.36
15.83
16.39
16.52
16.56
16.47
15.82
14.08
11.11
7.26
3.38
0.33
-1.51
-2.53
-3.74
-6.34
-11.07
-17.91
-26.09
-34.55
-42.42
-49.44
-55.89
-62.40
-69.64
-77.86
-86.80
-95.61
-103.11
-108.06
-109.57
-107.23
-101.19
-92.05
-80.61
-67.72
-54.16
-40.60
-27.67
-15.93
-5.82
2.42
8.75
13.41
16.67
18.89
20.38
21.41
22.26
23.18
24.41
26.09
28.23
30.59
32.80
34.46
35.27
35.10
33.97
31.97
29.14
25.53
21.27
16.55
11.66
6.76
1.84
-3.46
-9.67
-17.31
-26.49
-36.65
-46.58
-54.60
-59.03
-58.70
-53.40
-43.82
-31.37
-17.63
-3.83
9.31
21.48
32.54
42.24
50.22
56.16
59.97
61.92
62.52
62.35
61.83
61.20
60.48
59.69
58.85
57.99
57.11
56.18
55.09
53.77
52.08
49.93
47.22
43.86
39.76
34.90
29.32
23.19
16.73
10.13
3.46
-3.36
-10.59
-18.59
-27.54
-37.32
-47.32
-56.40
-63.09
-65.94
-63.91
-56.71
-44.98
-30.08
-13.79
2.23
16.82
29.43
40.05
48.88
56.12
61.82
65.90
68.38
69.42
69.44
68.92
68.30
67.79
67.33
66.69
65.66
64.18
62.37
60.50
58.79
57.31
55.82
53.92
51.08
46.92
41.36
34.61
27.13
19.42
11.87
4.71
-2.03
-8.44
-14.71
-21.13
-28.03
-35.67
-44.01
-52.61
-60.49
-66.26
-68.48
-66.09
-58.75
-46.98
-32.06
-15.66
0.59
15.46
28.33
39.09
47.90
54.90
60.10
63.39
64.78
64.50
63.10
61.25
59.52
58.19
57.18
56.23
55.00
53.30
51.06
48.38
45.40
42.23
38.89
35.27
31.16
26.34
20.65
14.09
6.89
-0.61
-8.04
-15.14
-21.82
-28.13
-34.26
-40.48
-47.06
-54.27
-62.22
-70.70
-79.00
-85.93
-89.97
-89.64
-84.01
-73.02
-57.63
-39.55
-20.76
-2.94
12.87
26.33
37.57
46.90
54.55
60.56
64.83
67.31
68.13
67.59
66.18
64.45
62.84
61.62
60.82
60.29
59.78
59.09
58.12
56.82
55.18
53.14
50.61
47.57
44.04
40.06
35.62
30.66
25.08
18.81
11.98
4.90
-2.03
-8.40
-14.02
-18.96
-23.61
-28.55
-34.39
-41.47
-49.59
-57.90
-64.93
-68.96
-68.61
-63.27
-53.30
-39.88
-24.64
-9.19
5.22
17.73
27.90
35.63
41.02
44.35
46.01
46.46
46.15
45.42
44.50
43.52
42.52
41.49
40.44
39.41
38.48
37.71
37.10
36.52
35.73
34.46
32.47
29.59
25.83
21.31
16.24
10.94
5.69
0.70
-3.92
-8.23
-12.39
-16.64
-21.26
-26.49
-32.41
-38.72
-44.68
-48.98
-50.08
-46.64
-38.09
-24.93
-8.68
8.63
25.11
39.59
51.82
62.21
71.44
80.01
87.98
95.12
101.05
105.63
109.13
112.27
116.19
122.25
131.85
146.10
165.36
188.66
213.52
236.19
252.63
259.68
256.13
242.97
222.76
198.48
172.37
145.39
117.34
87.49
55.16
20.29
-16.36
-53.18
-87.97
-118.35
-142.46
-159.52
-169.99
-175.25
-176.83
-175.77
-172.49
-167.08
-159.90
-151.90
-144.29
-137.89
-132.58
-127.32
-120.77
-112.09
-101.53
-90.36
-80.27
-72.52
-67.44
-64.41
-62.32
-60.12
-57.30
-53.89
-50.34
-47.13
-44.56
-42.67
-41.33
-40.35
-39.59
-39.05
-38.87
-39.24
-40.31
-42.06
-44.24
-46.44
-48.20
-49.20
-49.46
-49.33
-49.37
-50.08
-51.71
-54.07
-56.57
-58.44
-58.91
-57.45
-53.88
-48.39
-41.41
-33.51
-25.29
-17.30
-10.04
-3.90
0.89
4.29
6.52
7.90
8.77
9.36
9.76
9.92
9.80
9.36
8.68
7.79
6.74
5.54
4.22
2.92
1.83
1.09
0.66
0.34
-0.22
-1.39
-3.42
-6.32
-9.88
-13.73
-17.44
-20.74
-23.58
-26.26
-29.18
-32.71
-36.87
-41.15
-44.60
-46.14
-44.95
-40.79
-34.10
-25.77
-16.88
-8.31
-0.58
6.11
11.69
16.10
19.26
21.11
21.79
21.63
21.12
20.66
20.44
20.38
20.25
19.82
19.01
17.96
16.87
15.92
15.18
14.58
14.01
13.33
12.43
11.20
9.61
7.66
5.50
3.26
1.08
-0.98
-2.99
-5.13
-7.68
-10.93
-15.08
-20.01
-25.21
-29.77
-32.59
-32.77
-30.00
-24.67
-17.78
-10.50
-3.76
1.95
6.61
10.40
13.43
15.66
16.89
17.01
16.10
14.43
12.41
10.35
8.47
6.84
5.44
4.25
3.26
2.45
1.82
1.28
0.73
0.15
-0.49
-1.14
-1.79
-2.49
-3.26
-4.17
-5.19
-6.23
-7.22
-8.15
-9.15
-10.45
-12.29
-14.72
-17.49
-19.97
-21.28
-20.54
-17.16
-11.00
-2.50
7.49
17.89
27.67
36.06
42.63
47.37
50.60
52.95
55.10
57.64
60.90
64.88
69.34
73.96
78.60
83.37
88.63
94.96
102.94
112.85
124.29
135.88
144.93
148.05
141.94
124.67
96.65
60.82
21.97
-14.63
-44.56
-65.07
-75.34
-76.19
-69.70
-58.74
-46.71
-36.90
-31.65
-31.64
-35.59
-40.81
-44.41
-44.70
-41.95
-38.29
-36.62
-39.11
-46.08
-55.74
-65.09
-71.31
-73.13
-71.28
-67.96
-65.68
-66.12
-69.65
-75.53
-82.42
-88.98
-94.20
-97.25
-97.47
-94.61
-89.29
-83.51
-80.57
-84.33
-97.90
-122.16
-155.02
-191.70
-226.17
-253.10
-269.64
-275.99
-274.89
-269.96
-263.76
-256.74
-247.23
-232.66
-211.09
-182.39
-148.41
-112.17
-76.73
-44.10
-15.07
10.37
32.41
50.91
65.43
75.60
81.53
83.85
83.67
82.03
79.70
77.00
73.89
70.20
65.82
60.84
55.55
50.37
45.65
41.62
38.27
35.44
32.98
30.86
29.15
27.92
26.91
25.39
22.30
16.67
8.24
-2.03
-11.92
-18.49
-19.09
-12.46
0.61
17.56
34.95
49.54
59.29
63.58
63.04
59.03
53.09
46.40
39.45
32.02
23.52
13.73
3.39
-5.69
-11.29
-12.05
-8.49
-3.22
0.04
-2.03
-10.95
-25.93
-44.35
-62.55
-76.73
-83.40
-79.67
-63.72
-35.22
4.43
52.21
104.15
156.25
205.17
248.33
283.84
310.41
327.50
335.57
336.07
330.97
322.11
310.80
297.88
284.14
270.96
260.34
254.48
254.69
260.52
269.33
276.84
278.42
270.64
252.51
225.72
194.04
161.93
132.98
108.92
89.36
72.43
55.85
37.66
16.56
-8.23
-37.06
-69.78
-105.31
-141.38
-174.83
-202.35
-221.67
-232.32
-235.64
-234.03
-229.76
-224.07
-216.83
-206.78
-192.36
-172.47
-146.86
-116.21
-81.66
-44.44
-5.52
34.48
75.01
115.09
152.86
185.38
208.92
219.88
215.71
195.80
161.60
116.25
63.81
8.51
-45.82
-96.15
-140.39
-177.51
-207.42
-230.74
-248.40
-261.06
-268.93
-271.87
-269.99
-264.13
-256.06
-247.94
-241.50
-237.43
-235.36
-234.51
-234.46
-235.46
-238.08
-242.34
-246.99
-249.54
-247.02
-237.22
-219.63
-195.50
-167.27
-137.53
-108.32
-80.88
-55.94
-34.05
-15.64
-0.97
10.11
18.24
24.33
29.37
34.13
39.07
44.33
49.80
55.13
59.86
63.53
65.88
66.91
66.81
65.74
63.74
60.65
56.26
50.58
44.00
37.19
30.85
25.33
20.50
15.81
10.56
4.15
-3.76
-13.23
-24.00
-35.36
-46.16
-54.75
-59.36
-58.54
-51.63
-39.03
-22.14
-2.97
16.41
34.38
49.97
62.84
73.03
80.63
85.60
87.81
87.20
84.00
78.88
72.80
66.83
61.80
58.19
56.01
55.01
54.85
55.17
55.68
56.17
56.43
56.21
55.27
53.28
50.00
45.33
39.36
32.35
24.57
16.20
7.25
-2.36
-12.63
-23.42
-34.45
-45.48
-56.50
-67.79
-79.78
-92.82
-106.78
-120.82
-133.55
-143.29
-148.66
-149.07
-145.06
-138.16
-130.34
-123.30
-117.84
-113.64
-109.56
-104.30
-97.15
-88.37
-79.26
-71.71
-67.59
-68.26
-74.15
-84.71
-98.26
-112.00
-122.09
-124.24
-114.54
-90.68
-52.84
-3.87
51.53
108.15
161.80
210.11
252.36
288.86
319.94
345.60
365.61
380.02
389.50
395.29
398.73
400.70
401.24
399.63
394.58
384.62
368.49
345.32
314.96
278.20
236.81
193.44
151.14
112.72
80.18
54.38
35.05
21.18
11.44
4.56
-0.59
-4.96
-9.34
-14.32
-20.17
-26.75
-33.64
-40.35
-46.60
-52.44
-58.17
-64.05
-70.03
-75.65
-80.27
-83.54
-85.65
-87.41
-89.96
-94.14
-100.24
-107.82
-116.03
-124.09
-131.64
-138.84
-146.17
-154.09
-162.67
-171.59
-180.23
-187.88
-194.06
-198.52
-201.31
-202.66
-203.07
-203.32
-204.43
-207.47
-213.11
-221.18
-230.49
-239.11
-244.93
-246.51
-243.50
-236.77
-227.90
-218.60
-210.22
-203.54
-198.93
-196.43
-195.77
-196.11
-195.92
-192.95
-184.71
-169.01
-144.53
-111.04
-69.22
-20.33
34.05
92.07
151.44
209.42
262.97
309.16
345.80
371.61
386.33
390.51
385.30
372.42
354.30
334.15
315.44
300.88
291.13
284.01
274.80
257.80
228.38
184.90
129.23
66.01
0.91
-61.08
-116.38
-162.69
-198.31
-221.65
-231.53
-227.89
-212.37
-188.23
-159.60
-130.31
-103.03
-78.92
-57.77
-38.50
-19.66
0.08
21.51
44.41
67.45
88.46
105.14
116.02
121.15
122.25
122.31
124.80
132.78
148.21
171.33
200.37
231.67
260.38
281.62
291.91
290.16
277.86
258.45
236.12
214.73
197.14
185.13
179.51
180.28
186.59
196.59
207.61
216.55
220.60
218.01
208.57
193.63
175.59
157.08
140.23
126.11
114.87
106.05
99.06
93.40
88.67
84.30
79.42
72.89
63.65
51.07
35.28
17.24
-1.48
-19.05
-33.89
-45.08
-52.63
-57.55
-61.40
-65.78
-71.68
-79.19
-87.49
-95.23
-101.04
-103.92
-103.42
-99.75
-93.64
-86.29
-79.09
-73.32
-69.85
-68.89
-70.00
-72.31
-74.91
-77.23
-79.17
-81.08
-83.45
-86.52
-90.07
-93.40
-95.63
-95.99
-94.17
-90.42
-85.42
-79.97
-74.77
-70.22
-66.56
-63.88
-62.25
-61.68
-62.05
-63.09
-64.38
-65.47
-65.90
-65.27
-63.37
-60.23
-56.14
-51.65
-47.28
-43.44
-40.21
-37.37
-34.73
-32.22
-30.15
-29.02
-29.27
-31.02
-33.89
-37.24
-40.43
-43.15
-45.52
-48.06
-51.32
-55.65
-60.97
-66.78
-72.25
-76.33
-78.04
-76.43
-70.87
-61.27
-48.35
-33.61
-19.06
-6.53
2.83
8.90
12.36
14.10
14.72
14.28
12.62
9.74
6.11
2.67
0.37
-0.29
0.52
2.12
3.66
4.56
4.67
4.31
4.17
5.19
8.36
14.50
23.60
34.25
43.43
47.04
41.30
24.50
-2.00
-33.78
-64.89
-89.89
-105.63
-111.75
-110.07
-103.31
-93.93
-83.74
-74.08
-66.24
-61.54
-60.96
-64.48
-70.71
-77.12
-80.82
-79.64
-73.05
-62.32
-50.13
-39.54
-32.87
-31.11
-33.90
-39.93
-47.82
-56.68
-66.28
-76.79
-88.04
-99.06
-107.87
-112.10
-110.00
-101.64
-89.46
-78.03
-72.90
-79.10
-99.74
-134.98
-181.68
-233.81
-283.72
-323.97
-349.21
-357.40
-349.91
-330.27
-302.40
-269.00
-231.02
-188.22
-140.24
-87.48
-31.09
27.39
86.53
144.88
200.45
250.37
291.18
319.73
334.32
335.41
325.59
308.79
289.30
270.65
255.01
242.98
233.53
224.25
211.90
193.37
166.83
132.61
93.33
53.29
17.29
-10.63
-28.00
-34.38
-31.14
-20.93
-6.97
7.66
20.69
30.77
37.43
40.48
39.53
33.57
21.11
0.86
-27.33
-61.54
-97.65
-129.94
-152.44
-160.57
-152.41
-128.92
-93.26
-49.53
-1.50
47.94
96.67
142.93
185.10
221.81
252.26
276.15
293.27
302.98
303.82
294.07
272.58
239.52
196.67
146.80
92.58
35.65
-23.71
-85.94
-150.92
-217.06
-281.07
-338.72
-386.19
-421.23
-443.48
-453.94
-453.96
-444.35
-425.22
-396.58
-359.30
-315.74
-269.66
-225.34
-186.38
-154.79
-130.66
-112.53
-98.27
-85.86
-74.08
-62.61
-51.70
-41.77
-32.97
-25.12
-17.86
-11.06
-5.04
-0.52
1.73
1.32
-1.57
-6.22
-11.86
-18.03
-24.87
-32.91
-42.54
-53.48
-64.52
-73.60
-78.53
-77.62
-70.27
-57.01
-39.28
-18.89
2.39
23.11
42.08
58.41
71.42
80.78
86.65
89.61
90.61
90.62
90.44
90.57
91.23
92.50
94.30
96.45
98.62
100.28
100.81
99.58
96.25
90.77
83.45
74.86
65.53
55.92
46.19
36.28
26.00
15.11
3.38
-9.36
-23.12
-37.56
-51.75
-64.06
-72.39
-74.72
-69.84
-57.78
-39.98
-18.72
3.56
24.87
43.98
60.35
73.80
84.27
91.79
96.49
98.76
99.17
98.35
96.79
94.74
92.23
89.28
86.01
82.73
79.84
77.70
76.46
75.90
75.46
74.38
71.90
67.56
61.32
53.71
45.56
37.86
31.31
26.08
21.67
17.05
11.03
2.75
-7.92
-20.10
-31.98
-41.30
-45.95
-44.59
-36.99
-24.07
-7.43
11.13
30.03
48.16
64.75
79.18
90.83
99.11
103.68
104.72
103.06
100.01
96.97
94.96
94.25
94.26
93.84
91.83
87.71
81.95
75.95
71.44
69.61
70.45
72.49
73.41
71.04
64.49
54.66
43.95
35.13
30.09
28.87
29.60
29.36
25.38
16.34
2.96
-12.14
-25.15
-31.98
-29.28
-15.62
7.55
35.29
59.46
70.58
60.80
27.19
-26.15
-88.61
-146.25
-186.63
-202.95
-195.75
-171.41
-138.56
-104.49
-73.22
-45.96
-22.78
-4.36
7.69
11.93
8.90
2.04
-2.78
0.52
15.60
41.96
74.67
106.03
128.26
136.03
128.01
106.77
77.41
45.65
16.22
-7.74
-24.45
-32.90
-32.42
-22.77
-4.63
20.00
47.91
75.30
98.79
116.30
127.46
133.24
135.42
135.67
135.09
134.00
132.17
129.16
124.81
119.49
114.20
110.41
109.56
112.62
119.75
130.23
142.78
155.78
167.58
176.43
180.75
179.36
172.04
159.85
145.12
130.78
119.29
111.75
107.43
104.10
98.91
89.46
74.63
54.76
31.39
6.70
-17.18
-38.53
-56.24
-69.73
-78.85
-83.81
-85.18
-83.95
-81.31
-78.47
-76.20
-74.68
-73.56
-72.27
-70.54
-68.73
-67.67
-68.33
-71.25
-76.14
-81.89
-86.84
-89.41
-88.67
-84.66
-78.40
-71.46
-65.41
-61.42
-60.07
-61.43
-65.35
-71.65
-80.19
-90.87
-103.55
-118.13
-134.60
-152.93
-172.85
-193.40
-212.71
-228.20
-237.21
-237.89
-229.75
-213.77
-191.83
-165.97
-137.86
-108.80
-79.98
-52.85
-29.16
-10.47
2.34
9.63
12.84
14.06
15.27
17.71
21.77
27.16
33.42
40.27
47.75
55.99
64.93
74.10
82.74
90.01
95.30
98.40
99.37
98.39
95.57
90.99
84.77
77.26
69.07
60.95
53.65
47.67
43.14
39.75
36.82
33.44
28.76
22.34
14.44
6.15
-0.79
-4.39
-3.01
4.11
16.67
33.39
52.34
71.35
88.29
101.30
108.99
110.61
106.15
96.44
82.89
67.20
50.98
35.50
21.60
9.79
0.40
-6.41
-10.57
-12.25
-11.94
-10.43
-8.72
-7.82
-8.51
-11.18
-15.73
-21.69
-28.42
-35.28
-41.81
-47.72
-52.88
-57.31
-61.10
-64.40
-67.28
-69.55
-70.64
-69.64
-65.60
-57.87
-46.44
-31.98
-15.74
0.85
16.41
29.92
40.73
48.50
53.17
54.81
53.60
49.83
43.89
36.38
28.09
20.00
13.11
8.28
6.00
6.33
8.82
12.61
16.50
19.09
19.05
15.50
8.29
-1.91
-13.78
-25.84
-36.85
-46.20
-53.96
-60.70
-67.22
-74.27
-82.25
-91.06
-99.91
-107.42
-111.87
-111.70
-106.03
-95.03
-79.84
-62.19
-43.91
-26.41
-10.58
3.17
14.57
23.31
28.96
31.03
29.21
23.62
14.94
4.46
-6.07
-14.76
-19.94
-20.63
-16.81
-9.51
-0.63
7.55
13.05
14.71
12.46
7.16
0.13
-7.49
-15.06
-22.57
-30.41
-38.92
-48.04
-57.07
-64.67
-69.18
-69.06
-63.35
-52.02
-35.96
-16.62
4.47
26.16
47.80
69.14
90.02
110.14
129.06
146.22
161.17
173.49
182.83
188.86
191.42
190.71
187.48
182.89
178.28
174.69
172.60
171.98
172.38
173.40
174.91
177.27
181.32
188.32
199.65
216.33
238.49
264.82
292.44
317.40
335.72
344.63
343.34
333.20
316.92
297.49
277.22
257.37
238.33
220.13
202.75
186.25
170.55
155.29
139.88
123.73
106.66
89.02
71.57
55.13
40.21
26.67
13.90
0.99
-12.73
-27.45
-42.81
-58.10
-72.71
-86.51
-100.04
-114.29
-130.37
-149.03
-170.35
-193.84
-218.62
-243.88
-269.17
-294.54
-320.53
-348.08
-378.44
-412.53
-450.33
-489.96
-527.43
-557.32
-574.27
-574.69
-557.80
-525.64
-482.11
-431.71
-378.68
-326.69
-278.90
-237.90
-205.45
-182.25
-167.97
-161.57
-161.85
-167.45
-176.61
-186.79
-194.89
-198.22
-195.55
-187.66
-176.82
-165.66
-156.00
-148.45
-142.76
-138.49
-135.15
-131.77
-126.27
-115.51
-96.36
-67.34
-29.97
11.20
49.98
80.62
99.63
106.43
102.78
91.62
76.06
58.77
41.91
27.23
15.91
8.47
4.78
4.13
5.82
9.52
15.53
24.67
37.93
55.95
78.63
104.99
133.32
161.53
187.63
210.11
227.97
240.61
247.51
248.16
242.24
229.92
212.11
190.52
167.40
145.13
125.90
111.44
102.87
100.60
104.13
112.14
122.59
133.13
141.67
146.87
148.31
146.50
142.48
137.49
132.46
127.73
122.84
116.61
107.52
94.33
76.74
55.72
33.31
11.83
-7.02
-22.80
-36.36
-49.12
-62.13
-75.34
-87.59
-97.18
-102.96
-105.09
-105.30
-106.30
-110.87
-120.83
-136.25
-155.27
-174.51
-190.01
-198.46
-198.18
-189.43
-174.04
-154.17
-131.32
-105.77
-77.01
-44.82
-10.16
24.71
57.09
85.21
109.19
131.03
153.46
178.60
207.00
237.61
268.34
296.62
319.83
335.29
340.53
333.71
314.28
283.41
243.81
198.86
151.48
103.35
54.82
5.55
-44.51
-94.64
-143.19
-188.04
-227.27
-259.79
-285.58
-305.66
-321.64
-335.04
-346.81
-357.03
-365.09
-370.01
-370.89
-367.16
-358.59
-345.19
-327.06
-304.45
-277.95
-248.49
-217.38
-185.91
-155.06
-125.26
-96.45
-68.57
-41.99
-17.85
2.10
16.11
23.18
23.46
18.33
9.75
-0.53
-11.66
-23.73
-37.47
-53.30
-70.97
-89.26
-106.38
-120.44
-129.83
-133.78
-132.68
-127.89
-121.19
-114.42
-109.13
-106.44
-107.19
-111.53
-118.97
-128.55
-138.79
-147.65
-153.49
-155.58
-154.30
-150.96
-146.29
-140.39
-133.12
-124.31
-113.15
-99.43
-83.88
-68.02
-54.37
-43.73
-36.48
-33.33
-35.06
-39.81
-44.89
-47.71
-46.67
-42.83
-34.89
-21.56
-2.87
20.47
50.71
89.78
137.56
191.14
243.37
292.44
339.25
385.74
434.98
494.15
568.73
658.85
757.96
851.75
932.12
995.22
1040.05
1037.96
970.42
839.64
671.61
524.19
405.93
312.56
238.44
174.03
116.54
68.98
33.92
10.81
-4.90
-23.17
-46.82
-75.49
-108.15
-143.11
-175.47
-200.32
-214.49
-217.66
-214.61
-206.48
-194.06
-179.23
-163.87
-147.62
-129.41
-108.72
-86.82
-68.04
-53.81
-43.76
-36.35
-28.67
-16.84
1.96
28.04
58.94
89.78
117.34
140.04
157.58
170.53
179.74
185.75
188.63
188.23
184.24
177.08
167.35
155.29
140.70
123.13
102.26
78.51
53.27
28.75
7.25
-9.74
-22.40
-32.72
-43.66
-57.77
-75.74
-95.96
-115.19
-130.10
-138.80
-141.60
-140.63
-138.73
-138.27
-140.43
-145.11
-151.39
-158.14
-164.37
-169.62
-173.89
-177.54
-180.96
-184.27
-187.08
-188.59
-187.84
-184.05
-176.94
-166.84
-154.50
-141.00
-127.57
-115.46
-105.81
-99.52
-97.02
-98.30
-103.12
-111.46
-123.89
-141.25
-164.11
-191.96
-222.83
-253.59
-280.87
-301.95
-315.40
-321.18
-320.34
-314.57
-306.03
-297.03
-289.81
-285.97
-285.98
-288.97
-293.19
-296.78
-298.72
-299.22
-299.34
-300.07
-301.58
-302.69
-301.17
-294.47
-280.65
-259.16
-231.01
-198.60
-165.21
-134.29
-108.95
-91.44
-82.89
-83.08
-90.45
-102.13
-114.38
-123.07
-124.58
-116.45
-97.96
-70.27
-35.84
2.32
41.72
81.19
120.94
162.26
206.86
256.40
312.05
373.97
440.66
508.25
570.46
619.60
648.65
653.43
634.13
595.11
543.36
486.22
429.58
377.14
330.82
291.56
259.91
235.94
218.88
206.84
197.05
186.60
173.33
156.36
136.11
113.85
90.99
68.68
47.70
28.84
13.18
2.21
-2.62
-0.46
8.43
22.47
39.11
55.39
68.59
76.83
79.63
78.15
75.34
75.43
82.83
100.42
128.29
163.21
199.43
230.65
252.05
261.63
260.15
249.99
233.40
211.45
184.03
151.05
114.04
76.86
44.93
22.97
12.32
9.55
7.23
-2.87
-25.87
-61.18
-102.66
-141.54
-170.52
-186.44
-190.90
-188.41
-183.67
-180.06
-179.23
-181.93
-188.40
-198.05
-209.03
-218.36
-223.16
-222.22
-216.78
-209.61
-203.05
-197.17
-189.66
-177.38
-158.73
-134.94
-109.75
-87.49
-71.07
-61.01
-56.02
-54.53
-55.93
-60.88
-70.37
-84.75
-103.09
-123.24
-142.75
-159.76
-173.44
-184.06
-192.33
-198.89
-203.97
-207.33
-208.59
-207.59
-204.69
-200.83
-197.40
-195.91
-197.43
-201.98
-208.15
-213.25
-214.10
-208.22
-194.76
-175.02
-151.80
-128.24
-106.72
-88.05
-71.64
-56.14
-40.20
-22.86
-3.49
18.16
41.93
66.72
90.12
108.37
117.11
112.57
92.91
58.79
13.01
-40.44
-97.64
-155.24
-210.35
-259.97
-300.72
-329.31
-343.57
-343.44
-331.24
-311.04
-287.22
-263.23
-240.79
-220.11
-200.65
-181.88
-163.81
-146.75
-131.08
-116.84
-103.64
-90.90
-78.16
-65.36
-52.87
-41.28
-31.11
-22.60
-15.61
-9.72
-4.42
0.62
5.47
9.93
13.69
16.51
18.33
19.35
19.88
20.23
20.59
20.96
21.17
21.01
20.33
19.10
17.45
15.58
13.75
12.18
11.03
10.41
10.40
11.07
12.48
14.63
17.50
20.98
24.90
29.07
33.31
37.47
41.45
45.20
48.69
51.93
54.93
57.72
60.33
62.79
65.13
67.36
69.42
71.22
72.66
73.59
73.92
73.66
72.87
71.74
70.48
69.27
68.23
67.38
66.68
66.06
65.52
65.15
65.12
65.60
66.60
68.04
69.63
71.04
72.08
72.74
73.34
74.37
76.38
79.70
84.35
90.03
96.29
102.78
109.40
116.33
124.00
132.75
142.78
154.14
166.69
180.20
194.16
207.69
219.73
229.44
236.80
243.00
250.19
260.65
275.68
294.86
316.04
336.15
352.29
362.65
366.63
364.56
357.08
344.81
328.39
308.75
287.31
265.82
245.89
228.50
213.69
200.62
188.12
175.21
161.58
147.67
134.31
122.25
111.69
102.18
92.78
82.49
70.63
56.99
41.93
26.10
10.30
-4.86
-19.02
-32.25
-44.94
-57.58
-70.50
-83.55
-95.98
-106.52
-113.63
-115.85
-112.14
-102.17
-86.35
-65.88
-42.51
-18.25
5.12
26.34
44.88
60.80
74.42
85.98
95.34
102.07
105.68
106.01
103.34
98.44
92.31
85.89
79.90
74.73
70.52
67.23
64.65
62.40
59.94
56.62
51.83
45.12
36.26
25.34
12.82
-0.41
-12.97
-23.11
-29.09
-29.75
-25.16
-16.82
-7.49
-0.48
1.36
-3.51
-14.89
-30.86
-48.38
-64.01
-74.74
-78.55
-74.73
-63.84
-47.57
-28.31
-8.82
8.30
20.98
28.03
29.37
25.87
19.11
10.81
2.37
-5.43
-12.38
-18.62
-24.28
-29.26
-33.22
-35.79
-36.84
-36.60
-35.62
-34.58
-33.93
-33.67
-33.32
-32.05
-28.88
-23.11
-14.44
-3.30
9.22
21.45
31.53
37.87
39.76
37.78
33.89
31.02
32.31
40.12
55.35
77.25
103.73
131.99
159.30
183.33
202.24
214.66
219.66
216.92
206.90
190.82
170.37
147.26
122.77
97.78
72.80
48.37
25.12
3.70
-15.45
-32.24
-46.81
-59.32
-69.66
-77.48
-82.34
-84.00
-82.63
-78.69
-72.57
-64.25
-53.15
-38.27
-18.67
5.96
34.85
66.28
98.09
128.46
156.39
181.80
205.05
226.35
245.28
260.84
271.90
277.86
278.93
276.19
271.12
265.06
258.70
251.87
243.61
232.47
217.09
196.69
171.50
142.75
112.29
81.88
52.51
24.15
-4.05
-33.33
-64.80
-99.27
-137.02
-177.34
-217.59
-252.74
-276.00
-280.99
-264.72
-229.77
-184.07
-138.27
-101.59
-78.54
-68.01
-65.29
-65.24
-65.12
-65.22
-67.68
-74.45
-85.83
-100.54
-116.78
-133.44
-150.59
-169.08
-189.96
-213.72
-240.13
-268.74
-299.50
-332.97
-369.77
-409.36
-449.05
-484.00
-508.43
-517.38
-508.52
-483.04
-445.33
-401.60
-357.94
-318.78
-286.36
-261.49
-243.59
-231.09
-221.71
-212.94
-202.78
-190.43
-176.48
-163.21
-154.75
-154.51
-163.18
-177.53
-191.24
-197.41
-191.17
-171.17
-140.50
-106.82
-78.03
-59.60
-53.06
-56.50
-66.40
-78.23
-86.25
-85.14
-73.13
-51.11
-23.05
4.96
26.39
35.78
31.36
16.25
11.00
30.77
79.21
144.80
209.12
258.65
288.86
299.22
297.99
290.29
275.24
249.82
211.43
159.34
97.79
30.29
-40.06
-109.40
-173.30
-227.34
-266.08
-284.60
-280.06
-253.22
-209.09
-154.71
-96.42
-39.45
11.74
54.02
85.42
105.62
116.13
119.51
118.99
117.73
117.17
116.63
114.46
108.98
99.57
86.98
72.68
58.43
45.88
35.84
28.01
21.41
14.73
6.90
-2.64
-13.91
-26.41
-39.37
-52.02
-63.60
-73.22
-79.78
-81.94
-78.48
-68.90
-54.00
-35.94
-17.74
-2.34
8.47
14.52
17.19
18.71
21.28
26.41
34.75
46.11
59.75
74.60
89.46
103.20
115.06
124.81
132.78
139.55
145.48
150.29
152.91
151.88
146.00
134.90
119.37
101.10
82.09
64.03
47.92
34.08
22.32
12.30
3.74
-3.43
-8.92
-11.97
-11.27
-5.18
7.83
28.66
57.12
91.86
130.49
169.94
206.84
237.99
260.73
273.40
275.53
267.93
252.36
231.06
206.41
180.53
155.27
131.99
111.44
93.54
77.43
61.65
44.68
25.61
4.44
-17.82
-39.61
-59.33
-75.94
-89.13
-99.32
-107.40
-114.38
-121.07
-127.89
-134.78
-141.20
-146.28
-149.03
-148.66
-144.83
-137.83
-128.50
-117.98
-107.38
-97.57
-89.02
-81.95
-76.37
-72.18
-69.19
-67.13
-65.66
-64.42
-63.07
-61.34
-59.04
-56.07
-52.41
-48.17
-43.63
-39.16
-35.15
-31.88
-29.50
-27.85
-26.61
-25.33
-23.64
-21.37
-18.65
-15.87
-13.43
-11.46
-9.58
-6.81
-1.79
6.80
19.84
37.44
58.89
82.87
107.83
132.23
154.83
174.69
191.24
204.26
213.99
221.14
226.86
232.50
239.34
248.27
259.71
273.58
289.34
305.88
321.36
333.16
338.31
334.26
319.72
295.19
262.73
224.98
183.97
140.36
93.63
43.15
-10.61
-65.41
-117.59
-163.30
-199.64
-225.44
-241.23
-248.69
-250.02
-247.58
-243.72
-240.65
-240.18
-243.35
-250.31
-260.48
-273.03
-287.45
-303.61
-321.43
-340.40
-359.43
-377.06
-391.84
-402.63
-408.54
-408.64
-401.80
-386.86
-363.12
-331.05
-292.49
-250.48
-208.52
-169.65
-135.83
-107.73
-84.98
-66.54
-51.10
-37.05
-22.50
-5.25
16.74
44.69
78.38
115.92
154.43
191.29
225.26
256.90
288.05
320.46
354.43
388.04
417.38
437.73
445.01
437.15
414.66
380.39
338.59
293.59
248.72
205.78
165.28
127.00
90.57
55.17
18.96
-21.23
-68.92
-125.84
-189.60
-252.71
-304.11
-332.81
-331.77
-300.17
-242.88
-168.02
-84.28
0.42
78.92
144.31
190.30
212.74
211.27
189.75
154.70
112.36
66.03
15.68
-40.16
-101.42
-164.04
-220.07
-260.03
-276.62
-267.70
-237.40
-194.64
-150.17
-113.14
-88.60
-77.07
-75.68
-80.32
-87.49
-95.33
-103.28
-111.27
-118.71
-124.27
-126.41
-124.23
-118.19
-109.93
-101.53
-94.53
-89.42
-85.82
-83.04
-80.71
-78.85
-77.45
-75.93
-72.86
-66.23
-54.14
-35.49
-10.48
19.52
52.19
84.89
115.24
141.54
163.13
180.44
194.64
207.10
218.76
229.89
240.19
249.26
256.91
263.24
268.27
271.44
271.58
267.10
256.85
240.67
219.60
195.44
170.05
144.68
119.77
95.05
69.89
43.51
15.20
-15.63
-49.30
-85.67
-124.18
-163.84
-203.41
-241.58
-276.78
-307.19
-330.84
-346.15
-352.53
-350.62
-341.73
-326.78
-305.48
-276.38
-238.29
-191.98
-141.29
-92.47
-52.05
-24.37
-9.90
-5.64
-6.77
-8.70
-7.98
-2.15
10.98
33.40
66.13
107.94
154.49
198.80
232.85
249.83
245.95
221.09
178.35
122.94
61.35
0.83
-50.83
-86.15
-99.78
-90.82
-64.38
-30.94
-3.21
8.43
-0.09
-25.19
-57.77
-87.56
-107.36
-115.04
-112.58
-103.40
-89.77
-71.92
-48.96
-20.60
11.45
43.32
69.98
86.94
91.76
84.89
69.33
49.27
28.34
8.21
-11.69
-33.24
-57.85
-85.02
-111.88
-134.28
-148.73
-154.16
-152.59
-148.22
-145.60
-147.79
-155.37
-166.63
-178.55
-188.09
-193.10
-192.63
-186.64
-175.63
-160.18
-140.83
-117.98
-92.21
-64.43
-36.06
-9.03
14.58
32.90
44.87
50.44
50.54
46.58
39.98
31.82
22.82
13.56
4.69
-3.05
-9.02
-13.02
-15.39
-16.95
-18.59
-21.01
-24.55
-29.27
-35.21
-42.48
-51.23
-61.57
-73.41
-86.38
-99.75
-112.24
-121.97
-126.59
-123.74
-111.75
-90.43
-61.26
-27.12
8.44
42.16
71.72
95.94
114.68
128.52
138.36
145.11
149.54
152.04
152.78
151.75
149.08
145.03
140.08
134.60
128.80
122.56
115.68
107.97
99.49
90.55
81.70
73.47
66.30
60.39
55.65
51.66
47.76
43.17
37.30
30.11
22.45
16.01
13.06
15.68
25.10
41.17
62.34
86.10
109.67
130.71
147.72
159.97
167.36
170.04
168.31
162.52
153.24
141.27
127.63
113.37
99.44
86.51
74.95
64.97
56.69
50.23
45.68
42.91
41.50
40.69
39.51
36.95
32.20
24.84
14.83
2.55
-11.19
-25.09
-37.39
-46.07
-49.25
-45.68
-35.13
-18.50
2.36
25.14
47.56
67.75
84.46
96.98
105.06
108.76
108.36
104.27
97.09
87.52
76.47
64.91
53.87
44.17
36.27
30.25
25.85
22.74
20.70
19.71
19.84
21.06
23.14
25.59
27.83
29.30
29.59
28.38
25.58
21.50
17.06
13.89
14.12
19.70
31.79
50.27
73.90
100.84
129.30
157.95
186.00
212.90
238.16
261.20
281.45
298.42
311.79
321.31
326.77
328.04
325.17
318.50
308.62
296.27
282.22
267.14
251.61
235.99
220.19
203.48
184.50
161.66
133.78
100.76
63.84
25.46
-11.24
-43.01
-67.01
-81.33
-85.68
-81.90
-74.14
-68.07
-69.21
-80.95
-103.13
-132.11
-162.17
-187.78
-205.35
-213.80
-214.02
-207.73
-196.80
-183.15
-168.90
-156.44
-148.00
-144.90
-147.05
-153.22
-161.82
-171.77
-182.92
-195.57
-209.55
-223.56
-235.25
-241.89
-241.44
-233.25
-218.00
-197.35
-173.32
-147.98
-123.31
-101.28
-83.58
-71.30
-64.44
-61.89
-61.74
-62.00
-61.28
-59.13
-56.04
-53.10
-51.52
-52.14
-55.15
-60.08
-66.08
-72.28
-78.17
-83.69
-89.25
-95.49
-103.09
-112.58
-124.25
-137.99
-153.19
-168.83
-183.63
-196.50
-206.90
-215.04
-221.69
-227.66
-233.21
-237.73
-239.72
-237.32
-228.87
-213.46
-191.29
-163.62
-132.53
-100.44
-69.48
-41.03
-15.40
8.05
30.38
52.49
74.53
95.83
115.12
131.09
142.95
150.63
154.62
155.63
154.21
150.65
145.05
137.52
128.32
117.92
106.85
95.61
84.64
74.29
64.92
56.98
50.88
46.85
44.70
43.71
42.79
40.72
36.67
30.44
22.45
13.54
4.49
-4.17
-12.39
-20.47
-28.86
-38.01
-48.14
-59.09
-70.25
-80.40
-87.86
-90.79
-87.75
-78.15
-62.59
-42.73
-20.90
0.55
19.72
35.41
47.12
54.79
58.63
59.02
56.57
52.26
47.32
43.07
40.52
40.07
41.32
43.26
44.66
44.55
42.49
38.66
33.62
27.98
22.13
16.16
9.98
3.55
-2.90
-8.93
-14.01
-17.87
-20.78
-23.55
-27.29
-32.87
-40.35
-48.64
-55.65
-58.87
-56.22
-46.86
-31.47
-12.06
8.71
28.40
45.33
58.82
68.93
76.05
80.54
82.57
82.20
79.60
75.10
69.24
62.65
55.92
49.54
43.84
39.05
35.26
32.42
30.38
28.94
27.93
27.26
26.87
26.62
26.17
24.99
22.47
18.15
11.88
3.97
-4.95
-14.03
-22.52
-29.91
-36.00
-41.03
-45.52
-50.25
-56.04
-63.42
-72.25
-81.37
-88.57
-90.96
-85.84
-71.66
-48.69
-19.24
12.88
43.39
68.55
86.00
95.09
96.65
92.53
84.91
75.85
66.89
58.96
52.45
47.36
43.50
40.71
38.87
37.98
38.04
39.03
40.75
42.84
44.78
46.01
46.00
44.42
41.12
36.18
29.79
22.23
13.85
5.02
-3.83
-12.33
-20.16
-27.14
-33.29
-38.79
-43.95
-49.11
-54.58
-60.50
-66.70
-72.61
-77.10
-78.68
-75.87
-67.62
-53.85
-35.58
-14.72
6.42
25.81
42.10
54.70
63.65
69.22
71.80
71.72
69.43
65.50
60.71
55.83
51.52
48.16
45.87
44.44
43.58
42.95
42.26
41.31
39.98
38.23
36.04
33.47
30.53
27.21
23.42
19.03
14.00
8.56
3.28
-1.04
-3.59
-3.93
-2.22
0.84
4.26
7.16
9.20
10.70
12.72
16.82
24.63
37.49
55.96
79.53
106.55
134.44
160.32
181.80
197.68
208.27
215.16
220.41
225.59
231.00
235.61
237.56
234.94
226.61
212.46
193.21
169.90
143.42
114.56
84.29
54.29
27.06
5.42
-8.69
-15.43
-17.50
-19.55
-26.53
-41.73
-65.51
-95.21
-126.34
-154.42
-176.39
-191.21
-199.31
-201.77
-199.45
-192.85
-182.17
-167.50
-148.74
-125.35
-96.32
-60.66
-18.13
30.09
81.21
131.42
176.80
214.16
241.41
257.44
261.98
255.55
239.74
217.34
191.89
166.86
144.45
124.81
106.23
85.92
60.94
29.16
-10.19
-55.71
-103.36
-146.47
-176.98
-188.06
-176.94
-146.68
-105.55
-64.21
-31.74
-12.75
-6.79
-10.13
-18.62
-29.88
-43.75
-61.11
-82.24
-106.02
-130.33
-153.38
-174.90
-196.51
-221.05
-251.04
-287.30
-328.18
-369.83
-407.35
-436.23
-453.53
-458.38
-451.96
-436.82
-416.18
-393.22
-370.66
-350.43
-333.56
-319.99
-308.68
-297.73
-284.77
-267.64
-244.93
-216.48
-183.39
-147.64
-111.35
-76.04
-42.39
-10.51
19.36
46.41
69.37
87.18
99.83
108.50
114.88
120.08
123.75
124.18
119.45
108.94
94.30
79.10
67.45
62.14
63.54
69.70
77.49
84.00
87.61
88.15
86.45
83.61
80.36
76.78
72.51
67.10
60.46
53.09
46.02
40.44
37.14
36.17
36.73
37.47
37.00
34.40
29.46
22.58
14.54
6.08
-2.24
-10.07
-17.23
-23.60
-29.22
-34.40
-39.64
-45.55
-52.40
-59.80
-66.64
-71.26
-72.02
-67.87
-58.65
-45.12
-28.60
-10.56
7.71
25.22
41.25
55.26
66.87
75.88
82.39
86.76
89.61
91.73
94.01
97.31
102.43
109.94
120.25
133.56
149.93
169.35
191.76
217.12
245.32
276.10
308.89
342.46
374.71
402.75
423.34
433.76
432.59
420.25
398.84
371.50
341.52
311.49
282.90
256.10
230.54
205.07
178.30
149.04
116.66
81.27
43.82
5.64
-32.08
-68.82
-105.11
-142.59
-183.74
-231.06
-285.90
-347.13
-410.24
-467.64
-510.18
-529.91
-522.87
-490.80
-440.96
-383.87
-329.92
-286.32
-255.49
-235.48
-221.84
-209.96
-196.69
-180.79
-162.41
-142.17
-120.49
-97.59
-73.77
-49.79
-26.57
-4.49
17.39
41.36
70.30
106.18
148.78
195.21
240.70
280.17
309.91
328.56
337.03
337.45
331.92
321.63
306.64
286.39
260.41
228.91
192.87
153.85
113.51
73.13
33.32
-6.08
-45.67
-86.08
-127.40
-168.83
-208.67
-244.46
-273.60
-293.77
-303.43
-302.02
-289.96
-268.63
-240.20
-207.43
-173.34
-140.74
-111.75
-87.53
-68.37
-53.92
-43.43
-35.88
-29.80
-23.13
-13.38
1.71
23.32
50.75
81.26
110.57
134.02
147.87
150.30
141.88
125.49
105.67
87.87
77.52
79.02
94.88
125.07
166.87
215.17
263.32
304.32
332.09
342.65
334.88
310.60
273.96
230.21
184.18
139.31
97.20
57.83
20.31
-16.62
-54.46
-95.02
-140.25
-191.17
-246.41
-301.30
-348.16
-378.52
-386.11
-369.16
-330.82
-277.37
-215.56
-150.55
-85.73
-23.80
31.78
76.74
107.40
122.68
124.97
119.31
110.93
103.16
96.73
90.84
85.13
80.93
80.81
86.70
97.81
110.14
117.78
115.67
101.95
78.75
50.93
23.59
-0.12
-19.93
-37.80
-56.26
-76.76
-98.74
-119.72
-136.22
-144.83
-143.17
-130.51
-108.13
-79.24
-48.36
-20.27
0.98
12.80
14.19
5.61
-11.32
-33.93
-58.72
-81.88
-100.03
-111.29
-115.85
-115.78
-113.98
-112.71
-112.47
-111.75
-107.71
-97.29
-78.31
-50.15
-14.33
25.47
63.83
94.86
113.99
119.68
113.79
100.56
84.44
68.24
52.56
36.88
20.95
5.47
-8.56
-21.28
-34.52
-51.03
-72.24
-96.41
-118.47
-132.35
-134.24
-125.27
-111.59
-101.88
-103.74
-120.91
-152.43
-193.96
-239.87
-285.04
-325.71
-359.53
-385.33
-403.07
-413.97
-420.25
-424.33
-427.64
-429.71
-428.19
-420.05
-403.18
-377.59
-345.55
-310.61
-276.11
-244.08
-215.02
-188.32
-163.06
-138.66
-114.96
-92.08
-70.06
-48.80
-28.01
-7.36
13.38
34.39
55.89
78.37
102.39
128.07
154.41
178.88
197.86
207.90
207.32
197.30
181.81
166.27
155.52
152.21
156.18
165.26
176.52
187.62
197.27
205.04
210.77
214.05
214.28
210.97
204.21
194.89
184.55
174.85
166.98
161.26
157.08
153.35
148.96
143.27
136.18
128.03
119.33
110.52
101.85
93.30
84.66
75.56
65.59
54.50
42.39
29.79
17.56
6.63
-2.35
-9.30
-14.85
-20.20
-26.77
-35.70
-47.28
-60.68
-73.78
-83.62
-87.22
-82.41
-68.60
-46.91
-19.88
9.33
37.70
62.90
83.53
98.95
109.23
114.92
116.99
116.68
115.22
113.61
112.28
111.08
109.41
106.58
102.21
96.48
90.09
84.02
79.07
75.55
73.21
71.43
69.50
66.94
63.54
59.35
54.40
48.69
42.12
34.72
26.71
18.63
11.08
4.59
-0.74
-5.16
-9.17
-13.12
-16.78
-19.30
-19.27
-15.37
-6.94
5.53
20.47
35.68
49.06
59.19
65.55
68.39
68.35
66.12
62.26
57.32
51.87
46.61
42.23
39.22
37.70
37.43
37.90
38.66
39.50
40.62
42.48
45.55
49.92
55.15
60.24
63.99
65.36
63.78
59.29
52.34
43.54
33.39
22.20
10.12
-2.64
-15.75
-28.69
-40.92
-52.12
-62.20
-71.19
-79.02
-85.16
-88.58
-87.92
-81.99
-70.26
-53.25
-32.44
-9.93
12.10
31.79
47.93
59.88
67.52
71.13
71.31
68.85
64.68
59.62
54.24
48.87
43.63
38.55
33.77
29.50
25.88
22.94
20.47
18.10
15.48
12.40
8.89
5.28
2.05
-0.27
-1.31
-1.06
0.04
1.04
0.65
-2.46
-9.22
-19.82
-33.58
-48.96
-63.97
-76.60
-85.20
-88.76
-86.99
-80.21
-69.19
-54.94
-38.57
-21.16
-3.74
12.77
27.48
39.65
48.70
54.37
56.76
56.36
53.94
50.28
45.93
41.09
35.67
29.52
22.72
15.70
9.14
3.68
-0.42
-3.41
-5.95
-8.71
-12.18
-16.32
-20.72
-24.79
-28.06
-30.43
-32.14
-33.73
-35.76
-38.61
-42.27
-46.30
-49.83
-51.72
-50.78
-46.09
-37.34
-24.94
-10.03
5.80
20.84
33.66
43.32
49.47
52.24
52.10
49.70
45.76
40.95
35.87
30.91
26.31
22.11
18.33
14.98
12.18
10.22
9.44
10.21
12.73
16.90
22.25
28.07
33.53
37.99
41.15
43.20
44.60
46.03
47.98
50.76
54.40
58.81
63.89
69.60
76.02
83.39
92.26
103.41
117.80
136.34
159.47
186.84
217.10
247.84
276.06
298.80
313.96
320.96
320.88
315.96
308.67
300.62
291.92
281.10
265.73
243.21
211.65
170.48
121.00
66.57
12.61
-34.22
-67.57
-83.46
-81.87
-67.08
-46.47
-28.14
-18.37
-20.18
-33.11
-54.45
-80.56
-108.13
-134.67
-158.52
-178.84
-195.61
-209.76
-223.11
-238.23
-257.95
-284.55
-318.62
-358.01
-397.61
-430.35
-449.59
-451.85
-438.68
-416.30
-392.86
-374.73
-363.52
-355.60
-344.21
-322.74
-287.56
-238.65
-178.57
-110.73
-38.42
35.06
105.60
167.95
216.52
246.80
256.88
248.05
224.29
191.01
153.63
116.68
83.38
55.63
34.33
19.78
12.21
12.02
19.59
34.46
54.28
74.39
88.29
89.20
72.01
34.94
-19.76
-86.34
-156.77
-222.33
-275.16
-309.55
-322.77
-315.17
-289.78
-251.32
-205.11
-156.16
-108.83
-66.64
-32.36
-7.76
6.59
11.50
8.90
1.35
-8.58
-18.72
-27.41
-33.52
-36.47
-36.17
-33.17
-28.49
-23.31
-18.60
-14.77
-11.62
-8.48
-4.40
1.50
9.82
20.68
33.49
46.82
58.58
66.53
68.92
65.20
56.28
44.27
31.86
21.61
15.43
14.35
18.53
27.37
39.58
53.38
66.91
78.74
88.32
96.10
103.21
110.81
119.45
128.84
138.05
146.08
152.45
157.49
162.27
168.42
177.75
191.92
212.06
238.07
268.15
298.70
324.98
342.47
348.41
342.75
327.91
307.64
285.35
263.06
241.13
219.07
196.47
173.62
151.39
130.68
111.84
94.38
77.39
59.99
41.84
23.38
5.63
-10.33
-23.79
-34.74
-43.92
-52.43
-61.34
-71.31
-82.55
-94.84
-107.67
-120.22
-131.20
-138.87
-141.34
-137.16
-126.01
-108.97
-88.26
-66.30
-44.74
-23.86
-2.90
19.09
42.15
64.83
84.45
98.05
103.57
100.57
90.21
74.69
56.31
36.76
16.98
-2.80
-22.71
-43.08
-64.48
-87.73
-113.58
-142.18
-172.40
-201.56
-225.77
-241.03
-244.55
-235.80
-216.74
-191.40
-164.73
-141.47
-125.13
-117.39
-117.87
-124.47
-133.96
-142.92
-148.57
-149.43
-145.25
-136.84
-125.52
-112.64
-99.38
-86.52
-74.40
-62.93
-51.78
-40.61
-29.52
-19.13
-10.53
-4.91
-2.87
-4.01
-6.91
-9.51
-9.94
-7.13
-1.18
6.80
15.14
22.28
27.14
29.25
28.77
26.34
22.98
19.93
18.28
18.44
19.81
20.81
19.41
13.97
3.84
-10.55
-28.04
-47.25
-66.87
-85.51
-101.38
-112.25
-115.74
-109.87
-93.65
-67.21
-31.59
11.41
59.25
108.26
153.27
187.89
205.61
201.88
176.51
134.85
86.71
43.25
12.94
-1.30
-2.54
2.21
5.61
2.79
-7.89
-26.12
-51.42
-83.66
-121.86
-162.42
-198.80
-223.69
-232.67
-227.40
-215.90
-209.57
-218.26
-246.24
-290.77
-343.79
-395.55
-438.15
-467.80
-484.67
-491.58
-492.27
-489.82
-485.68
-479.42
-469.33
-453.56
-431.15
-402.62
-369.70
-334.58
-298.99
-263.84
-229.39
-195.73
-163.17
-132.21
-103.17
-75.85
-49.39
-22.59
5.63
35.78
67.58
100.20
132.83
165.27
198.19
232.73
269.63
308.24
346.04
379.12
403.36
415.96
416.42
406.55
389.71
369.49
348.65
328.58
309.42
290.55
271.17
250.70
228.97
206.24
183.09
160.31
138.68
118.78
100.87
84.86
70.37
56.84
43.67
30.42
16.90
3.20
-10.33
-23.28
-35.34
-46.59
-57.62
-69.45
-83.36
-100.16
-119.57
-139.71
-157.23
-168.11
-168.78
-157.15
-133.07
-98.06
-54.67
-5.86
45.34
95.76
142.16
181.45
211.21
230.38
239.44
240.26
235.48
227.72
218.97
210.40
202.34
194.57
186.69
178.53
170.52
163.78
159.99
160.84
167.42
179.68
196.32
215.05
233.18
248.27
258.65
263.65
263.54
259.29
252.28
244.01
235.82
228.63
222.90
218.63
215.41
212.73
210.12
207.33
204.50
202.03
200.41
199.73
199.28
197.39
191.79
180.28
161.57
135.70
103.84
67.69
28.73
-11.91
-53.24
-93.86
-131.64
-164.11
-189.26
-206.33
-216.06
-220.42
-221.75
-222.07
-222.98
-225.80
-231.91
-242.74
-259.42
-282.22
-310.30
-341.75
-374.25
-405.77
-435.05
-461.66
-485.55
-506.51
-523.82
-536.31
-542.97
-543.44
-538.48
-529.83
-519.87
-510.67
-503.20
-496.78
-489.15
-477.12
-457.64
-428.83
-390.60
-344.62
-293.76
-241.15
-189.37
-139.93
-93.19
-48.69
-5.63
36.60
78.04
118.02
155.61
189.92
220.82
249.16
276.60
305.12
336.60
372.68
414.35
461.38
511.24
558.64
595.99
615.30
610.77
580.81
528.30
459.01
379.14
293.43
205.00
116.44
31.29
-45.18
-106.76
-148.09
-166.70
-164.47
-147.61
-125.25
-107.00
-100.15
-107.27
-126.00
-150.44
-173.96
-191.99
-203.34
-209.70
-213.63
-216.63
-218.25
-216.68
-209.95
-197.26
-179.23
-157.47
-133.81
-109.48
-84.72
-59.09
-32.40
-5.95
17.00
31.89
34.84
24.79
4.99
-17.76
-35.48
-42.02
-35.06
-15.87
12.89
49.78
95.51
151.57
217.24
287.24
351.90
400.20
424.23
422.32
399.33
363.94
324.51
285.77
247.96
208.44
164.15
113.73
58.05
-0.26
-57.92
-111.68
-158.76
-197.11
-225.67
-244.47
-254.28
-256.26
-251.53
-241.19
-226.62
-209.84
-193.45
-180.03
-171.20
-166.80
-164.72
-161.45
-153.20
-137.11
-112.02
-78.70
-39.27
3.80
48.88
95.70
145.08
197.72
252.78
307.10
355.86
394.26
419.65
432.62
436.49
435.57
433.00
429.47
423.17
410.93
389.70
357.61
314.36
261.18
200.34
134.95
68.74
5.81
-49.90
-95.45
-129.95
-155.33
-176.44
-199.81
-231.34
-273.60
-324.12
-375.51
-418.06
-443.31
-447.30
-431.51
-401.48
-363.83
-323.57
-282.83
-241.42
-198.47
-154.06
-109.78
-68.24
-31.92
-1.99
22.06
42.02
59.96
77.22
93.87
108.91
121.10
129.86
135.73
140.27
145.19
151.58
159.49
168.01
175.85
181.97
185.80
187.07
185.56
180.78
171.97
158.29
139.11
114.26
84.16
49.83
12.93
-24.24
-58.80
-87.53
-107.45
-116.47
-114.08
-101.66
-82.18
-59.35
-36.59
-16.11
1.41
16.47
30.07
42.83
54.73
65.26
74.02
81.18
87.64
94.54
102.64
111.84
121.15
129.23
135.01
138.13
138.78
137.25
133.35
126.20
114.49
97.18
74.14
46.55
16.62
-13.06
-40.39
-64.41
-85.47
-104.89
-124.35
-145.18
-167.84
-191.64
-214.63
-233.95
-246.27
-248.55
-238.90
-217.24
-185.51
-147.31
-107.07
-68.97
-36.18
-10.45
7.80
19.17
24.86
26.28
24.87
21.80
17.93
13.72
9.32
4.89
0.80
-2.08
-2.42
1.46
11.07
27.31
50.00
77.75
108.15
138.22
165.05
186.13
199.72
204.79
201.21
189.66
171.63
149.20
124.61
99.95
76.97
57.18
42.17
33.67
33.24
41.46
57.12
77.01
96.40
110.52
116.01
112.04
100.21
83.64
65.46
47.63
30.52
13.38
-4.57
-23.37
-41.85
-58.12
-70.44
-78.11
-81.87
-83.45
-84.71
-86.57
-88.83
-90.63
-91.61
-92.77
-96.43
-105.19
-120.53
-141.92
-167.02
-192.62
-215.71
-234.00
-245.41
-247.60
-237.95
-214.59
-178.08
-132.37
-84.43
-42.07
-11.20
6.32
12.90
13.77
14.59
19.36
29.71
45.44
65.73
89.94
117.51
147.10
175.92
199.83
214.56
217.50
208.86
191.75
170.74
149.94
131.58
115.74
101.11
86.20
70.11
52.61
33.81
13.88
-6.72
-26.79
-44.13
-55.95
-59.85
-54.89
-42.18
-24.59
-5.71
11.25
24.30
32.78
37.07
37.97
36.31
32.69
27.55
21.30
14.41
7.50
1.25
-3.72
-6.97
-8.46
-8.48
-7.57
-6.41
-5.74
-6.22
-8.44
-12.65
-18.33
-23.75
-25.72
-20.37
-4.52
22.41
57.30
93.53
122.81
137.99
135.48
116.55
86.76
54.24
27.42
13.29
16.36
38.33
77.93
130.91
190.32
247.50
293.89
323.11
332.51
323.60
301.12
271.22
239.44
209.49
182.86
159.25
137.30
115.25
91.42
64.52
33.93
-0.17
-36.71
-74.08
-110.49
-144.08
-173.15
-196.59
-214.47
-228.67
-242.70
-260.25
-283.02
-308.96
-332.17
-345.13
-342.05
-321.64
-287.72
-247.12
-206.48
-169.68
-137.29
-108.15
-81.57
-58.54
-41.27
-31.52
-29.08
-31.48
-34.98
-36.44
-34.61
-30.55
-26.75
-25.64
-28.40
-34.48
-42.18
-49.71
-56.13
-61.65
-67.05
-72.69
-77.83
-80.70
-79.29
-72.52
-61.20
-48.15
-37.57
-33.83
-40.02
-57.07
-83.44
-115.54
-148.93
-179.69
-205.46
-225.80
-241.63
-254.27
-264.63
-273.09
-279.74
-284.81
-288.42
-289.91
-287.14
-276.73
-255.42
-222.25
-180.02
-135.19
-95.80
-68.38
-55.53
-55.35
-62.89
-72.54
-80.01
-83.01
-80.60
-72.30
-57.56
-36.06
-8.49
22.93
54.87
83.96
107.96
126.41
140.37
151.63
161.78
171.69
181.49
190.86
199.44
207.07
213.86
220.25
226.92
234.72
244.45
256.49
270.47
285.00
297.86
306.56
309.15
304.98
295.10
282.30
270.54
263.96
265.47
275.49
291.14
306.73
315.29
310.89
290.85
256.65
213.54
168.70
129.07
99.72
83.24
80.05
88.82
106.76
129.38
150.70
163.99
163.32
145.45
110.98
64.29
12.00
-39.24
-84.95
-123.85
-157.77
-190.44
-226.19
-268.78
-320.54
-381.23
-447.29
-511.68
-565.18
-598.87
-607.18
-589.94
-552.21
-501.93
-446.31
-389.21
-330.58
-268.16
-200.36
-128.48
-57.00
8.14
61.67
100.84
125.79
138.75
143.21
143.43
144.10
149.58
162.26
181.05
201.28
216.33
220.71
212.39
193.53
168.53
141.12
112.66
82.86
52.73
26.18
9.43
7.22
19.79
41.40
62.04
71.37
62.64
35.64
-4.58
-49.64
-91.09
-121.39
-135.22
-130.69
-110.13
-79.97
-47.63
-20.06
-1.53
5.80
2.34
-9.97
-28.59
-50.50
-72.53
-90.00
-100.11
-96.37
-79.78
-58.46
-42.31
-34.81
-29.67
-20.59
3.11
46.43
107.11
176.65
245.81
307.29
355.82
389.67
403.97
397.61
373.66
339.66
303.72
272.02
248.95
232.85
221.68
213.34
207.25
202.18
197.22
190.13
178.54
160.95
137.10
108.41
76.59
44.15
12.51
-18.05
-48.68
-80.67
-114.38
-148.67
-180.46
-206.29
-222.67
-227.82
-222.15
-208.39
-190.70
-173.69
-161.82
-158.27
-164.00
-176.15
-187.80
-189.24
-171.15
-128.60
-63.73
14.05
91.25
154.90
196.76
215.01
213.07
196.75
171.48
141.01
107.51
72.40
36.62
0.55
-36.11
-73.81
-112.25
-149.72
-182.81
-207.25
-219.28
-216.81
-200.13
-171.44
-134.14
-92.25
-50.13
-12.44
15.97
30.91
29.82
12.39
-19.45
-62.37
-112.63
-166.60
-220.54
-270.23
-310.98
-338.35
-349.61
-344.92
-327.61
-303.06
-276.78
-252.60
-231.79
-213.49
-195.70
-176.62
-155.13
-131.07
-105.04
-78.34
-53.30
-33.44
-23.12
-26.78
-47.72
-87.40
-145.26
-218.75
-303.46
-393.21
-480.15
-555.52
-611.19
-641.62
-645.17
-624.24
-583.82
-529.45
-465.50
-394.45
-317.55
-235.94
-151.71
-68.21
10.52
80.50
138.85
184.20
217.02
238.90
251.60
256.22
253.08
242.39
225.42
205.04
185.37
170.36
162.23
160.68
163.44
167.72
171.69
175.05
178.79
184.09
191.73
201.68
213.60
227.41
243.67
263.55
288.34
318.80
354.49
393.55
432.84
468.51
496.86
515.35
523.22
521.85
514.23
503.79
493.07
482.74
471.80
458.61
442.13
422.50
400.70
377.62
353.48
327.72
299.63
269.12
237.19
205.42
174.99
145.88
116.86
86.20
52.62
15.96
-22.06
-57.60
-85.11
-99.79
-99.41
-85.83
-63.98
-39.80
-17.82
0.65
17.52
36.61
59.49
84.12
105.36
118.03
118.97
107.52
85.30
55.73
24.64
-3.05
-23.89
-37.17
-44.30
-49.12
-57.75
-76.38
-108.37
-150.90
-198.76
-246.40
-290.60
-330.23
-361.00
-377.40
-376.69
-371.43
-367.20
-366.33
-364.68
-360.79
-353.45
-341.33
-324.09
-302.53
-278.17
-250.78
-220.86
-188.86
-155.48
-120.89
-85.64
-51.99
-23.71
-5.04
2.04
-3.90
-23.10
-54.93
-97.09
-146.43
-200.19
-256.22
-312.20
-363.93
-406.41
-434.32
-443.77
-433.52
-406.03
-367.11
-323.67
-280.89
-240.20
-200.21
-158.52
-113.86
-66.64
-18.44
29.34
76.79
125.59
178.25
236.34
299.72
366.41
433.27
496.98
554.67
604.20
644.07
673.60
692.78
702.43
703.93
698.72
687.41
669.19
642.17
604.96
558.65
507.67
458.87
418.49
388.91
366.81
344.46
313.03
266.80
205.56
133.93
58.48
-15.62
-86.19
-153.24
-216.72
-274.73
-323.57
-359.67
-382.15
-394.20
-402.39
-413.94
-433.17
-459.16
-485.78
-504.44
-508.10
-494.59
-467.33
-433.46
-400.25
-372.14
-349.92
-332.17
-317.59
-306.23
-299.08
-295.81
-293.16
-284.96
-264.46
-227.54
-174.96
-112.21
-47.09
13.69
67.08
114.18
158.94
205.54
256.10
309.34
360.89
404.76
435.36
449.27
446.09
428.40
400.81
368.69
336.87
308.73
285.91
268.37
254.83
243.27
231.42
217.10
198.27
173.02
139.58
96.45
42.74
-21.30
-94.11
-172.77
-253.30
-331.26
-402.61
-464.41
-515.46
-556.23
-588.00
-611.70
-626.96
-631.95
-624.39
-603.08
-568.97
-525.33
-476.70
-427.34
-380.34
-337.44
-299.58
-267.42
-241.42
-221.33
-205.83
-192.55
-178.69
-162.05
-141.68
-117.97
-92.31
-66.31
-41.34
-18.24
2.79
22.17
40.77
59.74
80.08
102.27
126.11
150.92
175.95
200.67
224.83
248.14
270.03
289.63
305.91
317.82
324.19
323.53
314.04
294.05
263.04
222.62
176.98
132.18
94.72
69.65
59.35
63.18
78.24
100.47
125.92
151.40
174.73
194.54
209.89
219.99
224.15
222.07
214.27
202.33
188.71
176.12
166.70
161.38
159.77
160.50
161.89
162.54
161.65
159.02
155.07
150.76
147.60
147.48
152.27
163.14
180.15
202.01
226.46
250.88
272.96
291.23
305.16
315.07
321.76
326.07
328.31
327.94
323.45
312.81
294.20
266.86
231.64
190.87
147.68
105.01
64.92
28.32
-4.85
-35.24
-63.86
-92.02
-121.37
-153.48
-189.27
-228.17
-267.76
-304.24
-333.64
-353.30
-362.89
-364.38
-361.03
-355.96
-351.02
-346.39
-341.11
-333.83
-323.68
-310.48
-294.64
-276.83
-257.68
-237.74
-217.56
-197.73
-178.94
-161.88
-147.02
-134.44
-123.72
-114.06
-104.46
-94.06
-82.40
-69.56
-56.11
-42.87
-30.60
-19.72
-10.20
-1.62
6.64
15.29
24.89
35.74
47.74
60.39
72.92
84.66
95.32
105.03
114.09
122.43
129.31
133.43
133.45
128.64
119.21
106.19
90.86
74.35
57.43
40.77
25.12
11.37
0.22
-8.17
-14.36
-19.36
-24.13
-29.16
-34.32
-39.10
-43.02
-45.94
-48.02
-49.50
-50.20
-49.36
-45.71
-38.08
-26.15
-10.97
5.11
19.01
27.94
30.19
25.56
15.23
1.37
-13.38
-26.39
-35.33
-38.67
-35.89
-27.74
-16.20
-3.92
6.37
12.70
14.23
11.47
5.89
-0.53
-5.88
-8.87
-8.92
-6.09
-0.77
6.78
16.76
29.76
46.60
67.89
93.70
123.57
156.85
193.29
233.12
276.62
323.18
370.52
414.66
451.09
476.50
490.12
494.09
492.27
488.38
484.31
479.66
472.44
460.58
443.13
420.67
394.66
366.56
337.00
305.61
271.42
233.48
191.46
146.07
98.95
52.24
8.06
-32.13
-67.79
-99.27
-127.33
-152.62
-175.04
-193.70
-207.11
-213.95
-213.83
-207.90
-198.95
-190.96
-188.52
-195.78
-215.45
-247.79
-289.91
-335.57
-376.20
-403.13
-410.52
-397.86
-370.28
-336.46
-305.10
-281.70
-267.35
-259.72
-255.25
-251.18
-246.36
-241.08
-236.26
-232.97
-232.29
-235.20
-242.57
-255.07
-273.04
-296.59
-325.91
-361.15
-401.93
-446.29
-490.26
-528.34
-554.87
-565.64
-559.06
-536.18
-499.78
-453.09
-398.64
-337.80
-271.11
-199.04
-123.11
-46.61
25.51
87.98
137.08
172.34
197.28
218.54
243.81
279.14
326.42
382.43
439.91
490.22
526.42
545.36
548.02
538.10
520.04
497.42
472.51
446.61
420.84
396.32
374.02
354.05
335.00
314.02
287.56
252.55
207.67
154.18
95.84
38.21
-13.01
-53.72
-82.51
-100.54
-110.46
-114.85
-115.11
-111.39
-103.20
-90.42
-73.69
-54.28
-33.54
-12.47
8.50
29.24
49.57
68.85
85.65
98.04
104.06
102.66
94.50
82.14
69.39
60.07
56.72
59.96
68.81
81.57
96.81
113.79
132.14
151.36
170.34
187.47
201.07
209.91
213.63
212.84
208.88
203.11
196.41
188.72
179.23
167.01
151.63
133.47
113.48
92.59
71.36
49.93
28.26
6.27
-16.23
-39.83
-65.47
-94.03
-125.57
-158.84
-191.56
-221.38
-247.25
-270.20
-293.26
-320.18
-353.48
-392.68
-433.32
-467.48
-485.49
-478.68
-442.29
-377.56
-292.02
-197.70
-107.79
-32.97
21.14
54.50
71.30
77.49
78.51
78.05
78.07
79.58
83.27
89.69
98.66
108.61
116.55
118.91
113.17
99.25
79.85
59.51
42.62
31.39
24.79
19.02
9.44
-7.31
-31.82
-62.01
-94.32
-125.50
-153.90
-179.78
-204.71
-230.46
-258.13
-287.59
-317.45
-345.55
-369.72
-388.40
-401.10
-408.30
-410.89
-409.69
-404.91
-396.33
-383.79
-367.61
-348.62
-327.78
-305.82
-283.31
-261.00
-240.14
-222.26
-208.51
-198.84
-191.90
-185.64
-178.65
-170.95
-164.13
-160.41
-161.52
-167.98
-179.08
-193.64
-210.71
-229.86
-250.85
-273.21
-295.88
-317.35
-336.13
-351.04
-361.63
-367.99
-370.43
-369.11
-363.79
-353.80
-338.27
-316.55
-288.55
-254.85
-216.68
-175.58
-133.09
-90.37
-48.15
-6.53
34.85
76.62
119.28
162.66
205.64
246.23
282.14
311.64
334.31
351.15
364.30
376.11
388.52
402.66
418.97
437.45
457.79
479.32
500.81
520.57
536.83
548.14
553.82
553.88
548.62
538.15
522.09
499.69
470.28
434.01
392.30
347.88
304.34
265.20
233.00
208.56
190.89
177.65
165.93
153.07
137.26
117.87
95.51
71.99
50.06
32.73
22.34
19.68
23.37
30.30
36.69
39.67
38.40
34.40
30.93
31.87
40.44
58.25
84.65
116.60
148.97
175.64
191.19
192.69
180.66
159.00
133.48
109.87
92.42
83.31
83.08
91.25
106.74
127.55
150.41
170.74
183.68
185.74
176.43
158.97
139.42
124.66
119.76
126.04
140.69
157.98
171.65
177.19
173.18
160.96
143.30
122.80
101.03
78.50
55.31
31.94
9.28
-11.51
-29.73
-45.45
-59.48
-72.93
-86.60
-100.58
-114.29
-126.77
-137.16
-145.12
-150.89
-155.12
-158.52
-161.42
-163.57
-164.24
-162.57
-158.13
-151.18
-142.69
-134.00
-126.30
-120.20
-115.69
-112.19
-109.08
-105.92
-102.69
-99.65
-97.15
-95.36
-94.24
-93.49
-92.78
-91.83
-90.47
-88.76
-86.90
-85.31
-84.45
-84.77
-86.52
-89.60
-93.67
-98.25
-103.01
-107.92
-113.16
-118.82
-124.63
-129.82
-133.38
-134.43
-132.69
-128.59
-123.03
-117.12
-111.96
-108.71
-108.57
-112.62
-121.44
-134.67
-150.73
-167.00
-180.42
-188.28
-189.01
-182.48
-169.93
-153.39
-134.95
-116.15
-97.74
-79.85
-62.50
-46.04
-31.21
-19.00
-10.06
-4.23
-0.50
2.70
6.99
13.60
23.18
35.85
51.31
68.87
87.58
106.18
123.35
137.89
148.97
156.24
159.78
159.93
157.05
151.45
143.38
133.24
121.68
109.60
97.97
87.60
79.02
72.48
67.98
65.28
63.74
62.27
59.36
53.61
44.29
31.82
17.94
5.02
-4.87
-10.80
-13.21
-13.37
-12.51
-10.99
-7.99
-1.77
9.63
27.71
52.86
83.86
117.76
150.24
176.73
193.99
201.65
202.68
202.36
205.86
215.70
230.25
244.43
251.94
248.00
231.06
202.69
166.46
126.38
86.06
48.58
16.53
-8.47
-26.68
-40.69
-54.79
-72.95
-96.66
-123.67
-148.66
-165.71
-170.87
-163.60
-146.20
-122.20
-94.64
-65.56
-36.63
-9.88
12.17
27.54
36.10
40.34
44.60
53.24
68.59
89.75
112.68
131.60
141.26
139.00
125.78
105.61
83.53
63.04
44.28
24.34
-0.69
-32.66
-69.56
-105.91
-135.36
-153.79
-161.13
-160.93
-157.96
-155.77
-155.34
-155.71
-155.55
-154.60
-153.86
-154.81
-158.35
-164.14
-170.75
-176.64
-181.01
-184.23
-187.84
-193.78
-203.61
-217.78
-235.21
-253.61
-270.04
-281.84
-287.30
-285.96
-278.31
-265.16
-247.08
-224.21
-196.53
-164.45
-129.24
-92.98
-58.25
-27.43
-2.15
17.06
30.90
40.91
49.07
57.06
65.85
75.33
84.61
92.47
97.90
100.50
100.41
98.12
94.13
88.78
82.25
74.72
66.45
57.82
49.31
41.37
34.45
28.87
24.89
22.62
22.11
23.41
26.47
31.21
37.31
44.23
51.17
57.31
61.96
64.76
65.72
65.12
63.36
60.79
57.65
54.02
49.95
45.51
40.87
36.25
31.83
27.73
23.94
20.34
16.73
12.87
8.47
3.32
-2.63
-9.10
-15.41
-20.61
-23.67
-23.83
-20.82
-14.93
-6.92
2.24
11.64
20.55
28.44
35.00
39.99
43.27
44.76
44.53
42.76
39.76
35.98
31.91
27.99
24.46
21.33
18.38
15.29
11.77
7.65
2.83
-2.82
-9.38
-16.79
-24.60
-31.84
-37.16
-39.18
-37.01
-30.56
-20.61
-8.50
4.31
16.55
27.36
36.21
42.83
47.18
49.33
49.55
48.18
45.59
42.04
37.74
32.81
27.42
21.76
16.14
10.89
6.27
2.37
-1.04
-4.40
-8.27
-13.02
-18.60
-24.39
-29.30
-32.10
-31.80
-28.03
-21.11
-11.99
-1.89
7.96
16.69
23.88
29.48
33.71
36.87
39.14
40.62
41.27
41.00
39.63
36.91
32.61
26.61
19.08
10.45
1.35
-7.63
-16.12
-24.02
-31.43
-38.43
-44.86
-50.31
-54.16
-55.79
-54.67
-50.55
-43.43
-33.67
-21.96
-9.26
3.35
14.92
24.77
32.60
38.45
42.64
45.57
47.68
49.31
50.69
51.88
52.84
53.38
53.33
52.59
51.25
49.51
47.61
45.65
43.48
40.71
36.79
31.29
24.02
15.24
5.79
-3.10
-10.01
-13.62
-13.11
-8.39
-0.10
10.53
22.04
33.06
42.58
50.04
55.29
58.44
59.76
59.59
58.30
56.21
53.61
50.69
47.49
44.01
40.13
35.77
30.91
25.59
19.93
14.14
8.46
3.03
-2.14
-7.27
-12.74
-18.85
-25.66
-32.71
-39.04
-43.43
-44.76
-42.37
-36.27
-27.11
-15.96
-3.97
7.86
18.75
28.17
35.70
41.03
43.98
44.59
43.13
40.13
36.21
31.94
27.70
23.59
19.58
15.54
11.47
7.46
3.73
0.45
-2.26
-4.47
-6.42
-8.50
-11.16
-14.88
-19.93
-26.23
-33.13
-39.46
-43.72
-44.61
-41.44
-34.38
-24.45
-13.13
-1.86
8.30
16.86
23.75
29.13
33.09
35.67
36.84
36.64
35.25
32.95
30.08
26.98
23.84
20.71
17.53
14.18
10.56
6.72
2.81
-0.89
-4.09
-6.63
-8.54
-10.08
-11.69
-13.86
-16.95
-21.09
-26.02
-31.13
-35.47
-38.00
-37.84
-34.53
-28.26
-19.74
-10.08
-0.46
8.20
15.33
20.68
24.23
26.04
26.20
24.92
22.57
19.71
16.92
14.64
12.97
11.70
10.42
8.79
6.72
4.41
2.21
0.43
-0.84
-1.85
-3.05
-5.00
-8.14
-12.62
-18.24
-24.31
-29.84
-33.64
-34.68
-32.35
-26.70
-18.39
-8.48
1.83
11.58
20.15
27.24
32.78
36.81
39.35
40.48
40.30
38.99
36.80
34.05
31.04
28.08
25.36
23.02
21.04
19.33
17.70
15.96
13.96
11.63
9.03
6.28
3.54
0.95
-1.49
-3.91
-6.58
-9.86
-14.07
-19.33
-25.42
-31.70
-37.13
-40.54
-40.89
-37.65
-30.97
-21.64
-10.89
0.02
10.05
18.57
25.37
30.47
33.96
35.99
36.63
36.05
34.45
32.05
29.12
25.82
22.32
18.72
15.14
11.70
8.52
5.69
3.19
0.94
-1.20
-3.38
-5.70
-8.22
-10.98
-13.90
-16.89
-19.84
-22.67
-25.47
-28.45
-31.94
-36.26
-41.59
-47.73
-54.10
-59.77
-63.70
-65.02
-63.26
-58.50
-51.27
-42.35
-32.53
-22.45
-12.58
-3.26
5.08
12.00
17.07
20.04
21.04
20.56
19.25
17.71
16.22
14.65
12.60
9.71
5.82
1.22
-3.49
-7.62
-10.64
-12.35
-12.90
-12.63
-11.95
-11.14
-10.30
-9.39
-8.28
-6.95
-5.51
-4.26
-3.58
-3.94
-5.66
-8.83
-13.18
-17.95
-22.06
-24.25
-23.52
-19.42
-12.25
-3.01
6.97
16.41
24.47
30.81
35.49
38.74
40.71
41.51
41.24
40.13
38.50
36.66
34.72
32.53
29.81
26.30
21.97
17.08
12.02
7.12
2.50
-1.99
-6.57
-11.36
-16.23
-20.89
-25.03
-28.44
-31.09
-33.11
-34.74
-36.29
-38.13
-40.59
-43.88
-47.77
-51.55
-54.03
-53.93
-50.27
-42.78
-32.06
-19.29
-5.91
6.84
18.08
27.30
34.29
38.94
41.21
41.20
39.13
35.37
30.46
24.99
19.54
14.55
10.30
6.84
4.09
1.89
0.07
-1.48
-2.83
-4.05
-5.22
-6.46
-7.88
-9.57
-11.59
-13.97
-16.72
-19.90
-23.52
-27.49
-31.51
-35.05
-37.40
-37.82
-35.86
-31.48
-25.16
-17.71
-10.04
-2.87
3.38
8.59
12.83
16.18
18.67
20.29
21.05
20.99
20.17
18.64
16.45
13.73
10.70
7.69
5.01
2.94
1.53
0.68
0.19
-0.19
-0.65
-1.35
-2.39
-3.84
-5.70
-7.95
-10.57
-13.60
-17.14
-21.22
-25.70
-30.04
-33.42
-34.89
-33.73
-29.70
-23.19
-15.07
-6.40
1.87
9.16
15.25
20.20
24.15
27.20
29.40
30.78
31.49
31.74
31.77
31.76
31.66
31.21
30.09
28.06
25.20
21.95
18.86
16.42
14.77
13.66
12.60
11.04
8.62
5.28
1.31
-2.74
-6.25
-8.68
-9.80
-9.76
-9.13
-8.70
-9.23
-11.25
-14.85
-19.69
-25.11
-30.24
-34.17
-36.11
-35.52
-32.22
-26.49
-18.97
-10.46
-1.77
6.43
13.70
19.77
24.52
27.92
30.07
31.14
31.41
31.21
30.85
30.58
30.48
30.42
30.07
29.09
27.26
24.68
21.69
18.73
16.11
13.78
11.38
8.38
4.35
-0.83
-6.98
-13.66
-20.45
-27.00
-33.10
-38.72
-43.91
-48.83
-53.66
-58.54
-63.42
-67.90
-71.19
-72.35
-70.51
-65.28
-56.84
-46.02
-34.00
-22.04
-11.13
-1.91
5.31
10.49
13.74
15.31
15.49
14.63
13.00
10.79
8.10
5.09
2.00
-0.86
-3.13
-4.61
-5.23
-5.17
-4.66
-3.92
-3.18
-2.65
-2.54
-3.02
-4.12
-5.64
-7.15
-8.25
-8.69
-8.57
-8.31
-8.45
-9.44
-11.46
-14.38
-17.83
-21.26
-24.06
-25.67
-25.68
-23.96
-20.72
-16.42
-11.63
-6.81
-2.19
2.19
6.36
10.22
13.54
16.02
17.48
17.89
17.41
16.33
14.92
13.40
11.91
10.56
9.45
8.61
8.01
7.56
7.12
6.57
5.89
5.09
4.26
3.46
2.67
1.77
0.51
-1.41
-4.31
-8.29
-13.20
-18.45
-23.17
-26.39
-27.30
-25.60
-21.47
-15.50
-8.47
-1.11
5.98
12.41
17.89
22.24
25.30
27.07
27.64
27.27
26.24
24.89
23.47
22.16
21.05
20.12
19.29
18.44
17.50
16.43
15.24
13.89
12.33
10.50
8.43
6.25
4.05
1.85
-0.56
-3.52
-7.32
-11.95
-16.93
-21.41
-24.43
-25.22
-23.48
-19.39
-13.52
-6.64
0.49
7.25
13.16
17.88
21.21
23.07
23.49
22.56
20.49
17.54
14.03
10.23
6.36
2.55
-1.14
-4.66
-7.94
-10.91
-13.52
-15.76
-17.69
-19.37
-20.86
-22.17
-23.27
-24.14
-24.79
-25.31
-25.84
-26.49
-27.27
-27.95
-28.07
-26.97
-24.07
-19.07
-12.16
-3.98
4.56
12.59
19.49
25.03
29.29
32.46
34.75
36.27
37.08
37.26
36.95
36.34
35.67
35.06
34.55
33.99
33.08
31.48
28.89
25.17
20.37
14.77
8.77
2.81
-2.83
-8.10
-13.32
-18.99
-25.67
-33.70
-43.00
-52.98
-62.52
-70.19
-74.51
-74.31
-69.03
-59.04
-45.53
-30.36
-15.54
-2.78
6.87
13.09
16.16
16.67
15.27
12.61
9.23
5.67
2.42
-0.20
-2.04
-3.25
-4.08
-4.84
-5.66
-6.51
-7.19
-7.46
-7.22
-6.59
-5.94
-5.74
-6.47
-8.47
-11.83
-16.42
-21.80
-27.30
-32.05
-35.14
-35.81
-33.68
-28.83
-21.81
-13.43
-4.57
3.98
11.73
18.35
23.71
27.75
30.45
31.83
32.03
31.26
29.77
27.84
25.64
23.29
20.87
18.45
16.15
14.10
12.35
10.87
9.50
8.00
6.21
4.13
1.90
-0.31
-2.44
-4.59
-7.05
-10.10
-13.99
-18.70
-24.05
-29.65
-34.95
-39.27
-41.88
-42.06
-39.35
-33.76
-25.78
-16.32
-6.46
2.88
11.09
17.88
23.21
27.10
29.60
30.80
30.80
29.88
28.42
26.85
25.56
24.74
24.34
24.04
23.47
22.29
20.44
18.12
15.74
13.67
12.01
10.53
8.74
6.17
2.61
-1.74
-6.43
-10.90
-14.75
-17.85
-20.37
-22.60
-24.90
-27.64
-31.04
-35.22
-40.03
-44.94
-49.05
-51.24
-50.49
-46.18
-38.41
-27.92
-15.95
-3.87
7.18
16.47
23.68
28.82
32.05
33.63
33.84
33.02
31.52
29.69
27.78
25.93
24.22
22.68
21.44
20.68
20.59
21.24
22.46
23.89
25.09
25.71
25.65
25.02
24.08
22.95
21.64
19.93
17.56
14.39
10.47
6.08
1.55
-2.80
-6.79
-10.39
-13.67
-16.83
-20.10
-23.79
-28.09
-32.94
-37.82
-41.81
-43.80
-42.88
-38.68
-31.59
-22.56
-12.83
-3.49
4.74
11.57
17.00
21.11
23.98
25.66
26.21
25.75
24.50
22.68
20.54
18.28
16.10
14.09
12.34
10.85
9.62
8.64
7.86
7.27
6.78
6.33
5.74
4.89
3.64
1.93
-0.21
-2.66
-5.25
-7.86
-10.42
-13.02
-15.79
-18.89
-22.38
-26.24
-30.34
-34.43
-38.22
-41.26
-42.99
-42.84
-40.29
-35.18
-27.73
-18.65
-8.88
0.60
9.01
15.90
21.11
24.73
26.97
28.12
28.49
28.38
28.01
27.52
26.90
26.00
24.66
22.75
20.31
17.54
14.74
12.21
10.08
8.26
6.48
4.43
1.85
-1.28
-4.74
-8.13
-11.05
-13.25
-14.76
-15.84
-16.93
-18.48
-20.88
-24.32
-28.69
-33.61
-38.35
-41.92
-43.34
-41.88
-37.36
-30.26
-21.54
-12.36
-3.66
4.03
10.53
15.92
20.34
23.85
26.43
28.07
28.79
28.68
27.90
26.68
25.24
23.81
22.53
21.43
20.37
19.17
17.66
15.82
13.77
11.74
9.93
8.42
7.14
5.93
4.53
2.75
0.44
-2.48
-5.93
-9.74
-13.67
-17.46
-20.95
-24.13
-27.19
-30.42
-34.07
-38.25
-42.77
-47.09
-50.37
-51.69
-50.24
-45.58
-37.89
-27.85
-16.57
-5.24
5.19
14.15
21.47
27.27
31.75
35.03
37.17
38.16
38.06
37.04
35.36
33.34
31.24
29.24
27.45
25.96
24.87
24.23
23.99
23.95
23.75
23.08
21.70
19.60
16.98
14.15
11.38
8.81
6.37
3.88
1.11
-2.11
-5.78
-9.74
-13.72
-17.43
-20.67
-23.44
-25.94
-28.49
-31.42
-34.93
-38.99
-43.21
-46.88
-49.11
-48.96
-45.82
-39.58
-30.70
-20.10
-8.89
1.90
11.60
19.84
26.51
31.62
35.17
37.22
37.86
37.34
35.98
34.09
31.92
29.61
27.25
24.95
22.92
21.42
20.65
20.60
20.99
21.31
21.08
20.00
18.07
15.57
12.87
10.24
7.80
5.45
2.98
0.19
-2.99
-6.51
-10.15
-13.69
-16.95
-19.89
-22.75
-25.87
-29.55
-33.92
-38.77
-43.58
-47.72
-50.50
-51.34
-49.84
-45.79
-39.23
-30.54
-20.40
-9.68
0.68
9.92
17.60
23.57
27.96
30.94
32.70
33.36
33.07
31.97
30.27
28.28
26.29
24.59
23.32
22.46
21.87
21.31
20.62
19.73
18.71
17.71
16.81
15.95
14.88
13.32
10.97
7.75
3.75
-0.73
-5.34
-9.77
-13.79
-17.36
-20.62
-23.86
-27.43
-31.64
-36.55
-41.88
-47.02
-51.07
-53.11
-52.38
-48.54
-41.74
-32.63
-22.19
-11.48
-1.48
7.17
14.19
19.66
23.79
26.82
28.89
30.02
30.24
29.60
28.27
26.48
24.54
22.72
21.23
20.22
19.69
19.59
19.74
19.94
19.94
19.51
18.49
16.89
14.80
12.46
10.13
7.97
6.00
4.04
1.79
-0.99
-4.40
-8.29
-12.36
-16.22
-19.62
-22.51
-25.12
-27.83
-31.07
-35.13
-39.95
-45.12
-49.89
-53.28
-54.40
-52.66
-47.92
-40.55
-31.28
-21.03
-10.67
-0.90
7.83
15.27
21.31
25.85
28.85
30.36
30.57
29.81
28.52
27.09
25.79
24.69
23.71
22.73
21.69
20.66
19.75
19.10
18.73
18.54
18.35
17.97
17.28
16.25
14.89
13.18
11.08
8.51
5.42
1.91
-1.81
-5.45
-8.80
-11.83
-14.68
-17.56
-20.62
-23.89
-27.34
-30.91
-34.68
-38.80
-43.33
-47.96
-51.97
-54.36
-54.14
-50.75
-44.17
-35.04
-24.49
-13.78
-3.92
4.67
11.96
18.11
23.19
27.37
30.71
33.12
34.44
34.62
34.01
32.99
31.90
30.93
30.56
31.22
32.98
35.56
38.32
40.94
43.19
45.11
47.34
51.80
60.93
76.41
98.00
122.96
146.98
165.02
173.14
167.56
149.00
122.97
97.25
78.00
64.48
53.04
39.14
19.60
-8.09
-45.15
-91.73
-146.16
-203.97
-257.40
-296.41
-312.33
-301.50
-267.26
-218.60
-166.95
-122.07
-88.92
-67.01
-51.79
-38.06
-22.48
-4.46
14.88
33.83
50.93
65.15
75.80
82.51
84.87
82.60
75.98
66.34
55.90
47.20
42.20
41.64
44.90
50.30
55.93
60.50
63.97
67.37
71.95
78.38
86.11
93.45
98.20
98.52
93.73
84.66
73.31
62.08
52.95
46.80
43.30
41.34
39.57
36.91
32.78
27.01
19.68
11.13
2.00
-6.64
-13.41
-16.98
-16.64
-12.81
-7.11
-2.03
-0.10
-3.02
-11.15
-23.49
-38.12
-52.76
-65.38
-74.34
-78.45
-76.98
-69.77
-57.37
-41.16
-23.13
-5.39
10.49
24.02
35.70
46.60
57.48
68.21
77.55
83.65
84.71
79.74
68.83
53.00
33.84
12.96
-8.23
-28.52
-46.92
-62.67
-75.49
-85.98
-95.62
-106.53
-120.60
-138.65
-159.65
-180.75
-198.05
-207.76
-207.49
-196.76
-176.92
-150.39
-119.75
-87.23
-54.60
-23.37
4.95
28.83
47.05
59.00
64.95
65.93
63.37
58.55
52.20
44.45
35.08
23.97
11.51
-1.36
-13.40
-23.62
-31.63
-37.89
-43.43
-49.41
-56.56
-64.83
-73.48
-81.27
-87.02
-89.93
-89.85
-87.20
-82.85
-77.87
-73.27
-69.80
-67.65
-66.28
-64.36
-60.07
-51.55
-37.59
-18.01
6.23
33.43
61.82
90.08
117.59
144.24
170.14
195.30
219.56
242.64
264.13
283.26
298.66
308.33
310.00
301.85
283.38
255.84
221.97
185.02
147.64
110.93
74.49
37.06
-2.36
-43.76
-85.93
-127.07
-165.58
-200.71
-232.67
-262.23
-290.07
-316.28
-340.18
-360.38
-375.13
-382.66
-381.59
-371.38
-352.70
-327.47
-298.54
-268.88
-240.57
-214.10
-188.39
-161.55
-132.00
-99.38
-64.87
-30.54
1.72
31.10
58.10
84.04
109.94
135.77
160.22
181.16
196.54
205.17
206.84
202.17
192.11
177.60
159.61
139.24
117.96
97.40
79.14
64.18
52.76
44.27
37.61
31.54
25.11
17.88
10.00
2.01
-5.48
-12.04
-17.66
-22.69
-27.56
-32.54
-37.51
-42.02
-45.53
-47.74
-48.80
-49.31
-50.03
-51.50
-53.72
-55.98
-57.03
-55.38
-49.75
-39.36
-24.12
-4.68
17.76
41.67
65.38
87.36
106.39
121.72
133.15
140.93
145.60
147.81
148.23
147.54
146.61
146.50
148.22
152.41
158.96
167.00
175.16
182.18
187.40
190.94
193.42
195.56
197.68
199.70
201.34
202.55
203.72
205.57
208.74
213.31
218.46
222.43
222.92
217.75
205.57
186.27
161.08
132.09
101.59
71.35
42.29
14.53
-12.29
-38.51
-64.13
-88.88
-112.48
-134.87
-156.42
-177.71
-199.31
-221.49
-244.10
-266.71
-288.76
-309.79
-329.39
-347.11
-362.23
-373.59
-379.74
-379.43
-372.13
-358.48
-340.32
-320.20
-300.58
-283.04
-268.00
-254.81
-242.29
-229.38
-215.47
-200.40
-184.09
-166.30
-146.46
-124.01
-98.62
-70.61
-40.98
-11.21
17.08
42.52
64.26
82.08
96.25
107.31
115.87
122.47
127.58
131.67
135.32
139.18
143.72
149.01
154.42
158.78
160.77
159.44
154.66
147.16
138.10
128.61
119.36
110.57
102.38
95.26
90.28
88.82
92.12
100.71
114.15
131.25
150.50
170.58
190.37
208.86
224.74
236.29
241.73
239.80
230.34
214.51
194.24
171.35
146.81
120.45
91.55
59.58
24.88
-11.31
-47.40
-82.09
-114.87
-145.88
-175.52
-203.99
-231.14
-256.59
-280.05
-301.30
-319.98
-335.31
-345.98
-350.44
-347.59
-337.24
-320.45
-299.15
-275.60
-251.62
-228.23
-205.64
-183.59
-161.75
-140.03
-118.66
-97.97
-78.27
-59.78
-42.70
-27.33
-13.97
-2.79
6.49
14.74
23.32
33.66
46.87
63.37
82.86
104.58
127.55
150.82
173.43
194.19
211.64
224.24
230.83
231.11
225.94
217.09
206.67
196.41
187.25
179.32
172.31
166.01
160.62
156.77
155.18
156.30
160.02
165.64
172.12
178.27
183.01
185.39
184.60
179.96
171.11
158.18
142.02
124.11
106.24
89.89
75.70
63.12
50.70
36.63
19.50
-1.26
-25.28
-51.50
-78.66
-105.66
-131.82
-156.82
-180.70
-203.58
-225.49
-246.20
-265.24
-282.01
-295.98
-306.79
-314.13
-317.57
-316.33
-309.37
-295.82
-275.40
-248.87
-217.78
-184.12
-149.69
-115.66
-82.63
-50.88
-20.74
7.33
32.78
55.32
75.02
92.36
107.95
122.25
135.31
146.72
155.87
162.36
166.36
168.62
170.10
171.34
171.95
170.79
166.58
158.85
148.52
137.79
129.33
125.27
126.47
132.57
142.52
155.29
170.17
186.38
202.61
216.59
225.36
226.15
217.46
199.73
175.33
147.74
120.43
95.77
74.59
56.20
39.01
21.30
1.81
-19.90
-43.40
-67.80
-92.06
-115.46
-137.86
-159.61
-181.33
-203.55
-226.39
-249.46
-271.83
-292.19
-309.04
-320.89
-326.64
-325.83
-318.93
-307.33
-293.05
-278.32
-264.90
-253.57
-243.91
-234.45
-223.25
-208.65
-189.86
-167.21
-141.95
-115.68
-89.84
-65.36
-42.69
-22.08
-3.89
11.40
23.33
31.64
36.56
38.65
38.82
38.18
38.04
39.88
45.24
55.52
71.45
92.73
117.80
144.05
168.38
188.09
201.57
208.69
210.66
209.48
207.23
205.64
205.91
208.96
215.55
226.06
239.93
255.25
268.84
277.23
277.97
270.64
256.92
239.60
221.03
202.02
181.68
158.30
130.61
98.65
63.87
28.46
-5.50
-36.75
-64.95
-90.57
-114.42
-137.40
-160.20
-183.22
-206.65
-230.55
-254.92
-279.55
-303.82
-326.50
-345.78
-359.63
-366.47
-365.81
-358.42
-346.05
-330.55
-313.21
-294.24
-273.02
-248.72
-221.04
-190.69
-159.32
-129.05
-101.75
-78.48
-59.23
-43.11
-28.80
-14.96
-0.67
14.48
30.31
46.32
61.83
76.29
89.37
101.01
111.38
120.79
129.81
139.19
149.69
161.69
174.63
186.81
195.70
198.76
194.54
183.30
167.01
148.74
131.79
118.96
112.37
113.40
122.80
140.48
165.33
195.14
226.88
257.27
283.35
302.82
313.95
315.50
306.56
286.77
256.60
217.46
171.67
121.97
70.95
20.55
-28.11
-74.47
-118.19
-158.77
-195.59
-228.20
-256.61
-281.44
-303.55
-323.57
-341.37
-356.07
-366.33
-371.00
-369.55
-362.27
-350.08
-334.32
-316.56
-298.55
-282.07
-268.45
-258.06
-249.79
-241.24
-229.39
-211.80
-187.37
-156.59
-120.97
-82.11
-41.18
1.18
44.40
87.54
129.10
167.34
200.71
228.21
249.43
264.42
273.55
277.50
277.26
274.05
269.03
263.09
256.69
250.04
243.45
237.52
233.11
231.03
231.63
234.62
239.19
244.36
249.30
253.49
256.49
257.73
256.24
250.76
240.05
223.39
200.93
173.72
143.44
111.81
80.10
48.90
18.24
-12.03
-41.86
-70.63
-97.00
-119.06
-134.71
-142.26
-140.95
-131.32
-115.06
-94.49
-71.85
-48.63
-25.54
-2.97
18.31
36.71
50.04
56.37
55.08
47.35
35.92
23.88
13.53
5.39
-1.75
-10.12
-22.05
-39.42
-63.48
-94.88
-133.27
-176.58
-220.46
-258.76
-285.32
-296.39
-292.57
-278.96
-263.18
-252.35
-250.61
-258.33
-273.15
-292.01
-312.58
-333.49
-353.52
-370.69
-382.19
-385.26
-378.35
-361.84
-337.81
-309.04
-277.70
-244.58
-209.24
-170.70
-128.66
-84.37
-40.79
-1.79
29.06
49.93
61.47
66.78
70.23
76.04
86.84
103.02
122.91
143.76
162.80
178.14
189.00
195.46
198.00
197.10
193.14
186.51
177.80
167.91
157.74
148.00
138.92
130.30
121.72
112.79
103.34
93.47
83.44
73.54
63.96
54.80
46.06
37.60
29.23
20.69
11.68
1.94
-8.58
-19.63
-30.51
-40.15
-47.27
-50.63
-49.45
-43.55
-33.43
-20.19
-5.19
10.18
24.73
37.63
48.43
57.02
63.58
68.44
72.01
74.69
76.76
78.43
79.83
81.07
82.18
83.21
84.14
84.96
85.66
86.22
86.64
86.85
86.71
86.05
84.73
82.72
80.12
77.11
73.84
70.31
66.39
61.91
56.81
51.27
45.67
40.43
35.85
31.95
28.49
25.07
21.33
17.04
12.16
6.80
1.12
-4.66
-10.44
-16.19
-22.04
-28.24
-35.06
-42.62
-50.62
-58.24
-64.23
-67.18
-65.95
-60.07
-49.96
-36.72
-21.85
-6.81
7.28
19.68
30.03
38.13
43.94
47.56
49.33
49.78
49.52
49.13
49.02
49.43
50.41
51.93
53.93
56.27
58.77
61.18
63.23
64.65
65.19
64.69
63.10
60.54
57.25
53.50
49.54
45.46
41.21
36.65
31.77
26.68
21.65
16.98
12.88
9.40
6.40
3.63
0.84
-2.17
-5.53
-9.30
-13.42
-17.82
-22.41
-27.25
-32.56
-38.69
-45.87
-53.91
-61.98
-68.64
-72.15
-71.07
-64.75
-53.63
-39.05
-22.92
-7.10
7.03
18.70
27.74
34.33
38.77
41.39
42.47
42.36
41.45
40.16
38.92
38.01
37.52
37.34
37.28
37.18
37.01
36.86
36.91
37.20
37.61
37.79
37.31
35.81
33.16
29.54
25.30
20.92
16.73
12.94
9.48
6.10
2.42
-1.86
-6.94
-12.66
-18.65
-24.35
-29.27
-33.11
-35.95
-38.18
-40.38
-43.27
-47.54
-53.68
-61.80
-71.38
-81.18
-89.37
-94.00
-93.63
-87.79
-77.16
-63.24
-47.91
-32.82
-19.12
-7.47
1.79
8.47
12.46
13.85
13.00
10.50
7.07
3.32
-0.34
-3.66
-6.50
-8.78
-10.34
-11.08
-10.96
-10.12
-8.81
-7.33
-5.97
-5.01
-4.66
-5.18
-6.79
-9.64
-13.66
-18.55
-23.81
-28.92
-33.51
-37.50
-41.02
-44.33
-47.67
-51.21
-55.09
-59.53
-64.72
-70.69
-77.05
-82.84
-86.67
-87.17
-83.42
-75.26
-63.37
-49.05
-33.80
-19.01
-5.61
6.02
16.03
24.96
33.33
41.49
49.33
56.42
62.21
66.36
68.92
70.29
70.93
71.16
71.06
70.49
69.46
68.22
67.31
67.41
69.04
72.40
77.18
82.64
87.68
91.08
91.74
89.02
83.05
74.83
66.10
58.81
54.50
53.74
56.05
60.25
65.17
70.44
77.03
87.10
103.48
128.70
163.98
208.33
258.25
308.14
351.55
382.77
398.33
397.72
383.13
358.24
326.78
291.51
253.90
214.62
174.17
133.36
93.10
54.02
16.03
-21.82
-60.95
-102.76
-148.31
-198.12
-251.95
-308.45
-364.93
-417.33
-460.96
-491.84
-508.10
-510.59
-502.44
-487.49
-468.53
-446.17
-419.02
-384.92
-342.56
-292.66
-238.07
-182.87
-131.00
-84.93
-44.95
-9.10
26.14
64.78
109.83
162.16
219.74
277.70
329.43
368.38
389.85
392.23
376.92
347.29
307.08
259.27
205.72
147.66
86.22
22.79
-41.12
-103.91
-163.58
-217.26
-261.36
-292.68
-310.17
-316.00
-315.08
-312.83
-312.58
-314.33
-315.74
-314.72
-311.78
-310.19
-313.77
-323.65
-336.33
-344.66
-341.38
-323.10
-292.33
-256.41
-224.08
-201.69
-191.07
-189.71
-192.76
-195.23
-193.61
-186.02
-171.71
-150.49
-122.61
-89.04
-51.74
-13.50
22.69
54.34
80.04
99.54
113.54
123.26
130.08
135.25
139.81
144.54
149.99
156.50
164.16
172.79
181.89
190.75
198.64
205.10
210.14
214.33
218.42
222.99
227.92
232.28
234.75
234.24
230.84
226.02
222.46
223.16
230.49
245.51
267.76
295.45
325.85
355.63
381.37
399.90
408.92
407.21
394.65
371.78
339.13
296.64
243.54
178.92
102.96
18.28
-69.41
-151.76
-219.81
-266.62
-289.53
-290.86
-276.48
-252.94
-224.47
-191.58
-151.92
-103.10
-45.49
16.40
75.03
122.79
155.15
172.27
178.34
179.15
179.47
181.34
184.31
187.01
188.76
190.29
193.17
198.49
205.65
212.31
215.41
212.74
204.12
191.53
178.12
166.69
158.35
152.14
145.64
136.36
123.11
106.63
89.19
73.41
60.87
51.30
42.82
32.84
19.45
2.13
-18.29
-40.08
-61.32
-80.27
-95.57
-106.67
-114.49
-121.98
-133.63
-153.55
-182.89
-218.05
-251.07
-272.54
-275.81
-260.04
-230.65
-196.71
-167.00
-146.72
-136.56
-133.94
-135.29
-137.84
-140.08
-141.39
-141.17
-138.38
-131.94
-121.38
-107.51
-92.55
-79.81
-72.49
-72.53
-79.74
-91.67
-104.60
-114.82
-120.15
-120.59
-118.04
-115.19
-114.26
-116.09
-120.02
-124.43
-127.44
-127.63
-124.35
-117.61
-107.84
-95.49
-80.91
-64.41
-46.39
-27.56
-8.95
8.24
22.95
34.50
42.60
47.27
48.73
47.25
43.19
37.06
29.37
20.51
10.53
-0.75
-13.45
-27.27
-41.41
-54.84
-66.83
-77.37
-87.13
-96.97
-107.33
-117.87
-127.64
-135.58
-141.06
-144.12
-145.36
-145.50
-145.12
-144.57
-144.19
-144.49
-146.24
-150.31
-157.40
-167.56
-179.96
-192.88
-203.98
-210.90
-211.82
-205.86
-193.19
-174.95
-152.88
-129.07
-105.63
-84.55
-67.35
-54.96
-47.52
-44.31
-44.04
-45.14
-46.18
-46.13
-44.47
-41.12
-36.37
-30.71
-24.71
-18.85
-13.44
-8.52
-3.83
1.12
6.92
14.03
22.63
32.69
43.96
56.30
69.52
83.29
96.84
108.82
117.47
121.27
119.58
113.24
104.67
97.11
93.61
96.07
104.73
118.42
135.31
153.71
172.47
190.93
208.45
224.17
236.99
246.03
251.03
252.65
252.16
250.93
249.90
249.31
248.87
248.17
246.87
244.80
241.52
236.21
227.56
214.21
195.24
170.63
141.24
108.36
73.15
36.03
-3.20
-44.96
-89.02
-134.04
-177.48
-216.40
-248.42
-272.51
-289.31
-300.69
-308.95
-316.16
-323.78
-332.54
-342.41
-352.57
-361.47
-367.21
-368.28
-364.20
-355.71
-344.45
-332.33
-320.83
-310.83
-302.65
-296.31
-291.52
-287.55
-283.17
-277.00
-268.02
-256.23
-242.70
-228.99
-216.34
-204.98
-194.16
-182.69
-169.73
-155.19
-139.74
-124.34
-109.82
-96.62
-84.81
-74.25
-64.83
-56.57
-49.49
-43.53
-38.43
-33.83
-29.38
-24.89
-20.39
-16.16
-12.52
-9.73
-7.84
-6.72
-6.10
-5.71
-5.36
-5.00
-4.66
-4.40
-4.18
-3.82
-3.06
-1.58
0.84
4.26
8.55
13.39
18.44
23.37
28.03
32.41
36.59
40.65
44.60
48.36
51.76
54.68
57.13
59.28
61.49
64.12
67.43
71.45
75.96
80.57
84.92
88.81
92.38
96.00
100.14
105.14
111.06
117.60
124.30
130.71
136.61
142.15
147.80
154.24
162.25
172.52
185.41
200.56
216.65
231.41
242.18
246.89
244.83
237.08
226.03
214.26
203.50
193.99
184.65
173.79
159.99
142.73
122.55
100.95
80.05
62.21
49.63
43.86
45.40
53.56
66.70
82.68
99.43
115.45
129.98
143.02
155.07
166.86
178.98
191.71
204.79
217.56
229.00
238.02
243.54
244.82
241.53
233.85
222.41
208.00
191.28
172.54
151.80
129.15
105.21
81.36
59.55
41.68
28.87
21.04
16.81
14.03
10.35
3.81
-6.79
-21.72
-40.22
-60.51
-79.92
-95.36
-103.98
-103.98
-95.13
-78.88
-57.82
-34.95
-12.87
6.76
23.25
36.73
47.63
56.42
63.33
68.35
71.31
72.02
70.39
66.54
60.84
53.83
46.19
38.59
31.58
25.56
20.64
16.63
13.12
9.62
5.68
1.14
-3.92
-9.26
-14.65
-20.12
-26.05
-33.09
-41.85
-52.43
-64.01
-74.80
-82.33
-84.15
-78.61
-65.42
-45.71
-21.74
3.83
28.56
50.67
69.21
83.85
94.71
102.15
106.58
108.45
108.20
106.19
102.73
98.12
92.66
86.74
80.84
75.58
71.59
69.37
69.07
70.46
72.93
75.75
78.16
79.61
79.72
78.31
75.32
70.82
64.98
57.92
49.77
40.63
30.83
21.12
12.84
7.72
7.44
12.99
24.23
39.83
57.52
74.77
89.31
99.57
104.82
105.04
100.82
93.08
82.96
71.59
60.02
49.11
39.61
32.18
27.51
26.45
30.00
39.17
54.60
75.96
101.46
127.68
150.20
164.68
168.29
160.60
143.58
120.65
95.29
69.78
44.63
18.71
-10.16
-44.42
-85.95
-135.05
-189.71
-245.24
-294.89
-331.27
-348.46
-343.74
-318.51
-277.80
-228.85
-179.18
-134.96
-100.06
-75.91
-61.92
-56.17
-56.24
-59.69
-64.36
-68.44
-70.43
-69.34
-64.99
-58.27
-50.92
-44.96
-41.65
-40.89
-41.26
-40.77
-37.93
-32.55
-25.71
-19.00
-13.63
-9.91
-7.45
-5.96
-5.74
-7.61
-12.16
-18.79
-25.30
-28.49
-25.42
-14.80
2.34
23.04
43.53
60.60
72.42
78.65
79.94
77.29
71.58
63.64
54.37
44.87
36.18
28.86
22.57
16.02
7.52
-4.12
-18.83
-34.94
-49.53
-59.39
-62.06
-56.68
-44.17
-26.97
-8.38
8.25
20.19
25.73
24.31
16.35
2.90
-14.68
-34.92
-56.42
-77.84
-97.82
-114.92
-127.58
-134.17
-133.27
-124.10
-106.93
-83.31
-55.88
-27.74
-1.77
19.91
36.15
46.60
51.51
51.55
47.89
42.18
36.49
32.95
33.39
38.96
49.91
65.67
84.92
105.99
127.20
147.29
165.69
182.51
198.13
212.65
225.39
234.89
239.38
237.42
228.42
212.62
190.85
164.31
134.72
104.81
78.47
60.40
54.78
63.52
85.02
114.17
143.72
166.64
178.24
177.13
164.92
145.05
121.58
98.25
78.07
62.92
53.27
47.96
44.43
39.58
30.82
17.03
-1.09
-21.57
-42.20
-61.50
-79.20
-96.03
-113.17
-131.59
-151.66
-173.17
-195.59
-218.39
-241.35
-264.70
-289.07
-315.46
-345.29
-380.22
-421.64
-469.55
-521.44
-571.75
-612.85
-637.16
-639.91
-620.82
-583.96
-535.85
-482.71
-428.58
-374.90
-321.75
-269.36
-218.99
-172.65
-131.94
-97.11
-66.89
-39.27
-12.64
13.44
38.24
60.39
78.84
93.36
104.56
113.36
120.26
124.97
126.47
123.60
115.74
103.29
87.62
70.54
53.69
38.08
24.15
12.06
2.19
-4.71
-7.66
-5.78
1.14
12.51
26.91
42.40
56.90
68.52
75.84
77.99
74.76
66.53
54.35
39.77
24.68
10.98
0.30
-6.35
-8.75
-7.32
-3.00
3.02
9.66
15.93
21.02
24.17
24.70
22.16
16.54
8.45
-0.98
-10.42
-18.90
-26.16
-32.79
-39.88
-48.33
-58.17
-68.28
-76.59
-80.75
-79.02
-70.82
-56.83
-38.62
-18.05
3.21
23.85
42.74
58.90
71.44
79.82
84.03
84.68
82.85
79.62
75.85
72.01
68.36
65.17
62.81
61.67
61.88
63.17
64.82
65.93
65.67
63.61
59.92
55.40
51.20
48.60
48.59
51.48
56.79
63.46
70.30
76.70
83.15
91.42
104.28
124.91
156.00
198.76
251.99
311.70
371.55
424.22
463.47
485.90
491.89
484.97
470.12
451.76
432.51
413.03
392.86
371.57
349.33
326.71
304.12
281.29
257.20
230.65
200.93
168.25
133.76
99.16
66.05
35.39
7.21
-19.24
-45.23
-72.07
-100.79
-131.77
-164.44
-197.13
-227.08
-251.09
-266.27
-271.20
-266.51
-254.79
-239.65
-224.23
-209.80
-195.24
-177.74
-154.41
-124.36
-89.81
-55.90
-29.20
-15.45
-17.84
-36.12
-66.65
-103.00
-136.94
-159.81
-164.60
-148.25
-113.45
-68.31
-23.74
10.77
30.61
37.20
35.93
32.37
29.07
25.12
17.81
5.24
-12.22
-32.92
-55.77
-81.12
-109.70
-140.67
-170.51
-194.33
-208.28
-211.73
-207.29
-198.45
-186.86
-171.09
-147.98
-115.30
-74.00
-28.07
17.64
60.08
99.15
136.56
173.36
207.76
234.94
248.65
243.68
217.86
172.67
112.55
43.13
-30.85
-106.73
-183.90
-262.63
-342.15
-419.17
-487.94
-542.04
-577.31
-594.33
-598.80
-599.51
-604.55
-617.65
-636.65
-654.70
-663.52
-657.02
-633.33
-594.50
-544.63
-487.59
-425.69
-359.70
-289.79
-216.27
-139.89
-61.60
17.80
97.34
175.12
247.88
311.24
360.76
393.57
409.64
411.99
405.69
396.09
387.24
381.02
377.39
375.16
372.87
369.27
363.43
354.67
342.68
327.71
310.75
293.38
277.18
262.91
249.96
236.32
219.42
197.40
170.20
139.91
110.03
84.08
64.27
50.66
41.41
33.81
25.47
15.22
3.27
-9.16
-20.54
-29.60
-35.72
-38.94
-39.98
-40.00
-40.43
-42.66
-47.62
-55.46
-65.37
-75.84
-85.16
-92.05
-96.07
-97.73
-98.19
-98.76
-100.45
-103.69
-108.21
-113.23
-117.65
-120.48
-121.10
-119.38
-115.71
-110.78
-105.54
-101.04
-98.28
-98.12
-100.89
-106.10
-112.25
-117.13
-118.46
-114.66
-105.26
-90.76
-72.06
-49.89
-24.47
4.10
35.34
67.96
99.86
128.69
152.34
169.31
178.48
178.81
169.31
149.37
119.57
82.25
41.52
2.30
-30.99
-55.82
-72.08
-81.74
-87.77
-92.89
-98.79
-106.06
-114.49
-123.60
-132.77
-141.27
-148.10
-152.16
-152.62
-149.40
-143.56
-137.08
-132.28
-130.96
-133.71
-139.72
-146.94
-152.78
-154.80
-151.32
-141.76
-126.62
-107.25
-85.36
-62.69
-40.63
-20.08
-1.49
15.03
29.59
42.35
53.45
62.93
70.74
76.72
80.61
82.23
81.58
79.02
75.33
71.53
68.59
67.05
66.81
67.08
66.66
64.40
59.58
52.18
42.75
32.15
21.20
10.32
-0.49
-11.60
-23.46
-36.46
-50.65
-65.61
-80.21
-92.67
-100.62
-101.66
-94.07
-77.52
-53.31
-24.14
6.70
36.21
62.31
83.98
101.08
113.88
122.79
128.30
131.09
131.98
131.83
131.29
130.61
129.67
128.12
125.61
122.04
117.58
112.67
107.77
103.28
99.31
95.68
91.97
87.63
82.24
75.61
67.89
59.54
51.10
43.07
35.63
28.72
22.14
15.68
9.18
2.48
-4.71
-12.77
-21.94
-32.05
-42.23
-50.97
-56.43
-56.97
-51.67
-40.52
-24.39
-4.61
17.34
40.06
62.30
82.94
100.99
115.76
126.96
134.85
140.14
143.87
147.13
150.80
155.44
161.15
167.70
174.64
181.48
187.96
194.15
200.63
208.23
217.74
229.39
242.47
255.25
265.32
270.15
267.89
257.78
240.31
216.93
189.46
159.49
127.85
94.61
59.44
22.20
-16.40
-54.61
-89.93
-119.83
-142.57
-157.74
-166.34
-170.41
-172.45
-174.86
-179.53
-187.64
-199.35
-213.67
-228.49
-241.01
-248.45
-249.07
-242.78
-231.08
-216.39
-200.97
-185.99
-171.25
-155.63
-137.86
-117.33
-94.37
-70.08
-45.81
-22.72
-1.62
16.94
32.40
44.17
51.65
54.47
52.86
47.61
40.00
31.40
22.87
14.96
7.73
1.06
-4.97
-9.92
-12.98
-13.30
-10.33
-4.03
5.04
15.91
27.52
38.94
49.67
59.70
69.46
79.59
90.67
102.80
115.37
126.95
135.60
139.33
136.87
128.25
114.97
99.67
85.31
74.13
66.87
62.60
59.18
54.38
46.85
36.72
25.35
14.56
5.59
-1.56
-8.06
-15.64
-25.56
-37.93
-51.66
-65.11
-76.97
-86.95
-95.77
-104.68
-114.54
-125.27
-135.73
-144.16
-148.85
-148.71
-143.53
-133.83
-120.51
-104.51
-86.61
-67.37
-47.36
-27.28
-8.12
9.03
23.25
34.08
41.75
47.04
50.95
54.34
57.60
60.60
62.91
64.09
63.92
62.53
60.20
57.24
53.79
49.74
44.86
38.98
32.17
24.76
17.23
10.06
3.49
-2.53
-8.35
-14.48
-21.41
-29.38
-38.18
-47.04
-54.72
-59.81
-61.09
-57.97
-50.65
-40.05
-27.50
-14.36
-1.73
9.70
19.48
27.37
33.23
37.02
38.88
39.08
38.03
36.13
33.71
31.00
28.12
25.21
22.40
19.88
17.77
16.08
14.67
13.29
11.68
9.72
7.41
4.93
2.41
-0.11
-2.81
-6.01
-10.08
-15.27
-21.62
-29.01
-37.21
-45.93
-54.72
-62.92
-69.51
-73.35
-73.39
-69.11
-60.70
-49.05
-35.47
-21.27
-7.54
4.95
15.66
24.15
30.12
33.51
34.59
33.97
32.39
30.61
29.11
28.11
27.55
27.26
27.01
26.66
26.13
25.36
24.38
23.17
21.77
20.12
18.11
15.58
12.35
8.29
3.45
-2.01
-7.76
-13.49
-18.97
-24.23
-29.52
-35.25
-41.83
-49.39
-57.57
-65.42
-71.55
-74.44
-72.97
-66.80
-56.46
-43.29
-28.93
-14.87
-2.13
8.81
17.86
25.14
30.74
34.77
37.36
38.69
39.02
38.58
37.61
36.37
35.13
34.14
33.54
33.33
33.25
33.01
32.39
31.40
30.25
29.17
28.20
27.05
25.21
22.18
17.80
12.33
6.38
0.70
-4.18
-8.12
-11.37
-14.53
-18.26
-23.06
-29.04
-35.75
-42.26
-47.27
-49.42
-47.60
-41.30
-30.65
-16.41
0.34
18.45
36.99
55.29
72.85
89.28
104.18
117.28
128.63
138.78
148.79
160.10
174.11
191.91
213.80
239.05
265.80
291.27
312.28
326.04
330.86
326.61
314.51
296.53
274.55
249.76
222.43
192.32
159.24
123.62
86.76
50.61
17.33
-11.36
-34.63
-52.61
-66.26
-76.82
-85.34
-92.33
-97.81
-101.60
-103.60
-103.92
-102.84
-100.54
-96.98
-92.01
-85.62
-78.16
-70.36
-63.16
-57.24
-52.66
-48.79
-44.41
-38.15
-29.02
-16.98
-3.23
9.81
18.96
21.14
14.27
-2.18
-27.12
-58.20
-92.44
-126.84
-158.77
-186.24
-208.00
-223.70
-233.91
-239.99
-243.60
-246.11
-248.13
-249.39
-248.96
-245.76
-238.97
-228.37
-214.29
-197.57
-179.31
-160.70
-142.85
-126.56
-112.37
-100.54
-91.17
-84.30
-79.85
-77.42
-76.18
-74.85
-71.96
-66.28
-57.21
-45.00
-30.69
-15.70
-1.42
11.14
21.58
29.98
36.72
42.23
46.72
50.18
52.37
53.05
52.09
49.57
45.74
40.96
35.65
30.26
25.28
21.24
18.63
17.81
18.94
21.94
26.54
32.22
38.31
44.03
48.68
51.74
53.00
52.52
50.57
47.45
43.43
38.78
33.76
28.60
23.42
18.16
12.58
6.38
-0.57
-8.12
-15.85
-23.26
-30.05
-36.21
-42.11
-48.23
-55.04
-62.70
-70.98
-79.16
-86.14
-90.58
-91.22
-87.28
-78.66
-66.09
-50.88
-34.68
-19.05
-5.21
6.14
14.74
20.79
24.73
27.17
28.70
29.82
30.80
31.72
32.54
33.18
33.64
34.04
34.54
35.33
36.48
37.94
39.60
41.33
42.97
44.38
45.34
45.52
44.53
41.98
37.73
31.94
25.10
17.85
10.77
4.14
-2.07
-8.16
-14.43
-21.07
-27.96
-34.68
-40.66
-45.30
-48.17
-49.23
-48.75
-47.38
-45.92
-45.17
-45.55
-47.00
-48.80
-49.80
-48.64
-44.23
-36.04
-24.27
-9.79
6.14
22.17
37.14
50.12
60.48
67.83
72.06
73.36
72.23
69.37
65.53
61.38
57.48
54.22
51.82
50.32
49.54
49.11
48.57
47.60
46.09
44.22
42.33
40.68
39.30
37.97
36.33
34.12
31.32
28.18
25.09
22.36
20.07
18.05
15.94
13.39
10.18
6.28
1.89
-2.74
-7.30
-11.54
-15.25
-18.38
-21.09
-23.87
-27.47
-32.73
-40.17
-49.55
-59.78
-69.01
-75.15
-76.49
-72.27
-62.92
-49.90
-35.24
-20.98
-8.73
0.61
6.80
10.18
11.33
10.91
9.44
7.22
4.42
1.14
-2.44
-6.00
-9.12
-11.41
-12.63
-12.76
-11.85
-10.04
-7.41
-4.08
-0.33
3.34
6.28
7.85
7.65
5.62
2.06
-2.61
-8.02
-13.89
-20.04
-26.17
-31.81
-36.36
-39.27
-40.30
-39.61
-37.76
-35.49
-33.50
-32.22
-31.73
-31.80
-32.10
-32.30
-32.33
-32.41
-33.05
-34.82
-38.02
-42.44
-47.18
-50.82
-51.84
-49.10
-42.27
-31.89
-19.15
-5.52
7.72
19.72
30.11
38.87
46.19
52.22
57.02
60.50
62.47
62.70
60.99
57.31
51.81
44.98
37.53
30.38
24.48
20.60
19.15
20.14
23.13
27.36
31.94
36.02
39.00
40.60
40.81
39.83
37.97
35.49
32.64
29.59
26.46
23.24
19.77
15.77
10.91
5.01
-1.79
-8.98
-15.81
-21.65
-26.24
-29.82
-33.11
-36.98
-42.07
-48.52
-55.78
-62.79
-68.13
-70.47
-68.83
-62.87
-52.96
-40.09
-25.64
-11.08
2.27
13.51
22.11
28.03
31.53
33.11
33.31
32.69
31.66
30.43
29.06
27.43
25.46
23.15
20.64
18.27
16.40
15.31
15.05
15.37
15.84
15.96
15.38
13.96
11.85
9.30
6.53
3.62
0.51
-2.96
-6.89
-11.20
-15.73
-20.22
-24.48
-28.43
-32.10
-35.63
-39.28
-43.36
-48.11
-53.55
-59.27
-64.31
-67.35
-66.98
-62.25
-52.99
-39.99
-24.71
-8.89
5.98
18.90
29.46
37.65
43.64
47.66
49.94
50.81
50.72
50.21
49.75
49.55
49.56
49.53
49.25
48.71
48.22
48.31
49.47
51.99
55.76
60.31
64.86
68.61
70.93
71.63
71.02
69.75
68.56
67.94
67.99
68.46
69.01
69.56
70.34
71.93
74.98
79.95
86.85
95.24
104.07
111.82
116.58
116.47
110.18
97.46
79.43
58.29
36.67
16.91
0.32
-12.78
-22.95
-30.98
-37.63
-43.38
-48.58
-53.53
-58.52
-63.78
-69.41
-75.35
-81.49
-87.80
-94.39
-101.40
-108.87
-116.54
-123.78
-129.60
-133.00
-133.22
-130.03
-123.67
-114.65
-103.46
-90.34
-75.41
-58.77
-40.67
-21.68
-2.58
15.52
31.16
42.49
47.55
44.72
33.45
14.65
-9.40
-35.73
-61.59
-85.17
-105.71
-123.00
-136.80
-146.40
-150.66
-148.43
-139.01
-122.50
-99.83
-72.64
-42.87
-12.41
17.39
45.78
72.46
97.06
118.67
135.52
145.36
146.16
136.93
118.35
92.66
63.12
33.15
5.55
-17.84
-36.17
-49.37
-57.91
-62.60
-64.49
-64.75
-64.64
-65.26
-67.43
-71.42
-76.87
-82.96
-88.57
-92.70
-94.78
-94.80
-93.25
-90.91
-88.57
-86.83
-86.01
-86.12
-86.91
-87.81
-87.97
-86.29
-81.62
-73.16
-60.71
-44.93
-27.12
-9.00
7.88
22.39
34.02
42.70
48.68
52.35
54.10
54.40
53.76
52.72
51.76
51.21
51.20
51.70
52.47
53.21
53.61
53.47
52.79
51.70
50.41
48.99
47.35
45.19
42.16
37.98
32.60
26.24
19.30
12.18
5.22
-1.50
-8.06
-14.70
-21.76
-29.57
-38.30
-47.85
-57.66
-66.70
-73.56
-76.77
-75.20
-68.41
-56.85
-41.78
-24.91
-7.99
7.54
20.79
31.42
39.54
45.55
50.03
53.52
56.46
59.09
61.41
63.28
64.43
64.68
63.98
62.48
60.48
58.33
56.24
54.30
52.35
50.12
47.32
43.81
39.66
35.12
30.47
25.90
21.45
17.03
12.48
7.68
2.61
-2.70
-8.19
-13.81
-19.52
-25.41
-31.64
-38.54
