1677567829.00
64.000000
-0.00
-0.00
-0.00
-0.00
-0.00
-0.00
-0.00
-0.00
-0.00
-0.00
0.00
0.01
0.01
-0.00
-0.03
-0.05
-0.05
0.00
0.13
0.36
0.66
1.01
1.37
1.72
2.06
2.40
2.79
3.24
3.80
4.42
5.06
5.66
6.20
6.68
7.15
7.68
8.31
9.14
10.09
11.04
11.88
12.56
13.14
13.76
14.65
15.96
17.91
20.32
22.90
25.38
27.58
29.57
31.68
34.32
37.81
42.54
48.15
54.10
59.83
64.97
69.58
74.14
79.34
85.71
93.76
103.00
112.62
121.73
129.77
136.75
143.30
150.75
157.77
166.64
177.95
191.79
206.97
220.57
228.25
225.36
208.53
176.87
132.76
80.05
23.07
-34.94
-92.44
-149.16
-205.23
-260.37
-313.74
-363.87
-409.82
-450.88
-486.45
-515.67
-537.12
-549.08
-549.78
-538.14
-513.92
-478.33
-433.48
-381.99
-326.49
-269.24
-211.96
-155.91
-102.13
-51.47
-4.92
36.66
72.60
102.63
126.90
145.90
160.36
170.97
178.37
182.95
184.99
184.73
182.44
178.47
173.23
167.12
160.50
153.62
146.61
139.54
132.47
125.43
118.48
111.70
105.16
98.91
92.99
87.40
82.17
77.30
72.79
68.66
64.92
61.56
58.60
56.05
53.88
52.09
50.65
49.52
48.63
47.88
47.12
46.21
44.95
43.18
40.74
37.54
33.51
28.69
23.13
16.99
10.48
3.86
-2.60
-8.63
-14.00
-18.54
-22.12
-24.68
-26.24
-26.86
-26.65
-25.75
-24.30
-22.44
-20.29
-17.95
-15.48
-12.92
-10.31
-7.69
-5.06
-2.44
0.19
2.83
5.50
8.21
11.01
13.86
16.75
19.68
22.65
25.69
28.82
32.07
35.49
39.14
42.94
46.86
50.88
55.01
59.28
63.71
68.35
73.26
78.56
84.07
89.71
95.42
101.17
106.92
112.66
118.40
124.16
129.99
135.61
140.81
145.40
149.14
151.76
152.90
152.07
148.57
143.71
137.95
131.60
124.84
117.83
110.71
103.59
96.59
89.87
83.59
77.62
71.90
66.40
61.12
56.07
51.26
46.72
42.52
38.73
35.21
31.89
28.73
25.71
22.85
20.17
17.70
15.51
13.66
12.07
10.67
9.40
8.21
7.04
5.85
4.65
3.46
2.32
1.21
0.12
-0.98
-2.11
-3.28
-4.49
-5.70
-6.84
-7.85
-8.71
-9.44
-10.10
-10.80
-11.60
-12.56
-13.65
-14.79
-15.89
-16.88
-17.80
-18.79
-20.05
-21.79
-24.07
-26.82
-29.80
-32.74
-35.47
-38.02
-40.69
-43.89
-48.03
-53.32
-59.64
-66.57
-73.63
-80.46
-87.07
-93.86
-101.48
-110.52
-121.23
-133.40
-146.41
-159.53
-172.24
-184.41
-196.36
-208.72
-222.35
-238.24
-257.30
-279.90
-305.29
-331.12
-353.68
-368.75
-373.05
-365.46
-347.44
-322.36
-294.13
-265.87
-239.29
-214.82
-192.36
-171.93
-153.73
-137.95
-124.39
-112.33
-100.84
-89.23
-77.32
-65.50
-54.57
-45.22
-37.77
-31.96
-27.02
-22.01
-16.14
-9.10
-1.16
7.02
14.69
21.30
26.68
30.94
34.32
37.05
39.28
41.09
42.55
43.71
44.65
45.34
45.79
45.94
45.80
45.40
44.83
44.14
43.38
42.59
41.80
41.06
40.41
39.79
39.11
38.21
36.93
35.21
33.13
30.91
28.81
27.03
25.58
24.28
22.82
20.86
18.27
15.18
11.97
9.13
7.13
6.26
6.53
7.72
9.44
11.21
12.66
13.63
14.19
14.59
15.10
15.88
16.88
17.96
18.98
19.84
20.55
21.15
21.60
21.78
21.56
20.91
19.98
19.06
18.43
18.20
18.28
18.37
18.20
17.61
16.70
15.65
14.68
13.84
13.04
12.08
10.81
9.23
7.40
5.45
3.50
1.61
-0.08
-1.39
-2.03
-1.82
-0.75
0.99
3.03
5.02
6.75
8.17
9.32
10.24
10.88
11.15
10.96
10.30
9.32
8.33
7.67
7.57
8.06
8.93
9.83
10.47
10.76
10.82
10.90
11.20
11.77
12.38
12.81
12.85
12.47
11.77
10.88
9.89
8.82
7.66
6.48
5.37
4.43
3.72
3.12
2.45
1.49
0.16
-1.41
-2.91
-3.91
-4.10
-3.35
-1.82
0.16
2.18
3.91
5.13
5.77
5.93
5.70
5.22
4.63
4.07
3.69
3.63
3.97
4.68
5.65
6.66
7.50
8.05
8.32
8.53
8.88
9.55
10.51
11.53
12.25
12.37
11.73
10.41
8.70
6.95
5.47
4.38
3.64
3.06
2.44
1.60
0.42
-1.10
-2.88
-4.68
-6.21
-7.15
-7.28
-6.52
-4.97
-2.88
-0.58
1.62
3.49
4.88
5.78
6.28
6.52
6.65
6.78
6.97
7.22
7.48
7.69
7.77
7.67
7.39
6.98
6.56
6.29
6.27
6.48
6.76
6.87
6.68
6.19
5.58
5.05
4.80
4.83
5.03
5.21
5.23
5.02
4.53
3.72
2.52
0.88
-1.13
-3.26
-5.08
-6.15
-6.16
-5.15
-3.45
-1.56
0.08
1.28
2.15
2.97
3.96
5.16
6.42
7.41
7.92
7.87
7.40
6.77
6.24
5.95
5.92
6.01
6.15
6.27
6.37
6.47
6.54
6.39
5.75
4.42
2.44
0.17
-1.75
-2.71
-2.49
-1.31
0.14
1.08
1.04
-0.07
-1.96
-4.18
-6.37
-8.34
-9.94
-11.06
-11.52
-11.16
-9.98
-8.13
-5.84
-3.39
-1.02
1.05
2.64
3.62
3.91
3.60
2.86
1.91
0.96
0.14
-0.47
-0.84
-0.94
-0.78
-0.42
0.03
0.44
0.68
0.70
0.51
0.16
-0.26
-0.67
-0.97
-1.12
-1.13
-1.06
-1.01
-1.08
-1.31
-1.67
-2.12
-2.65
-3.26
-3.95
-4.59
-4.97
-4.80
-3.90
-2.25
-0.11
2.18
4.24
5.84
6.94
7.67
8.23
8.75
9.32
9.93
10.55
11.12
11.62
12.09
12.57
13.07
13.55
13.96
14.20
14.23
14.05
13.70
13.23
12.64
11.95
11.19
10.50
10.02
9.91
10.24
10.99
12.02
13.04
13.67
13.46
12.21
10.04
7.64
6.06
6.32
8.88
13.38
18.62
23.12
25.74
26.14
24.78
22.55
20.19
18.01
15.93
13.78
11.68
10.02
9.31
9.75
11.12
12.78
13.99
14.23
13.31
11.38
8.70
5.55
2.12
-1.44
-5.00
-8.41
-11.54
-14.35
-16.80
-18.93
-20.77
-22.40
-23.91
-25.37
-26.79
-28.01
-28.84
-29.02
-28.44
-27.22
-25.64
-24.11
-22.89
-22.04
-21.31
-20.37
-18.95
-17.06
-14.99
-13.29
-12.47
-12.75
-13.94
-15.47
-16.68
-17.11
-16.77
-16.14
-16.00
-17.09
-19.76
-23.95
-29.18
-34.82
-40.14
-44.46
-47.15
-47.83
-46.56
-43.92
-40.97
-38.77
-38.03
-38.74
-40.36
-42.21
-43.96
-45.98
-49.20
-54.65
-62.75
-72.93
-83.47
-92.06
-96.56
-95.86
-90.32
-81.49
-71.55
-62.35
-54.78
-48.80
-43.80
-39.18
-34.73
-30.65
-27.14
-24.16
-21.24
-17.73
-13.10
-7.32
-0.95
5.04
9.53
11.83
11.95
10.64
9.07
8.31
8.78
10.07
11.30
11.56
10.45
8.25
5.83
4.23
4.30
6.49
10.74
16.56
23.12
29.42
34.45
37.56
38.59
37.88
36.14
34.04
31.95
29.83
27.20
23.53
18.47
12.00
4.47
-3.67
-11.99
-20.33
-28.77
-37.58
-47.03
-57.18
-67.87
-78.80
-89.64
-100.20
-110.50
-120.64
-130.52
-139.67
-147.18
-151.82
-152.44
-148.16
-138.45
-122.96
-101.38
-73.62
-40.30
-3.17
34.79
69.85
98.60
118.91
130.51
134.75
133.81
129.86
124.52
118.85
113.61
109.51
107.08
106.42
107.13
108.35
109.16
108.91
107.39
104.68
100.89
95.90
89.36
80.97
70.83
59.60
48.46
38.66
31.15
26.22
23.51
22.18
21.35
20.27
18.60
16.34
13.72
11.05
8.56
6.33
4.33
2.57
1.10
0.09
-0.25
0.20
1.37
2.97
4.54
5.58
5.72
4.81
2.98
0.67
-1.51
-2.90
-2.95
-1.37
1.75
6.05
11.02
16.21
21.29
26.06
30.33
33.92
36.66
38.45
39.36
39.65
39.65
39.68
39.89
40.26
40.63
40.77
40.60
40.13
39.52
38.93
38.48
38.06
37.52
36.70
35.46
33.88
32.10
30.29
28.49
26.62
24.44
21.72
18.31
14.16
9.40
4.25
-0.95
-5.84
-9.95
-12.93
-14.43
-14.24
-12.42
-9.18
-5.04
-0.58
3.58
6.98
9.39
10.79
11.39
11.41
11.12
10.62
9.95
9.14
8.28
7.53
7.03
6.86
6.88
6.82
6.36
5.26
3.50
1.24
-1.23
-3.68
-6.00
-8.30
-10.76
-13.64
-17.07
-21.12
-25.68
-30.50
-35.23
-39.39
-42.50
-44.13
-44.06
-42.37
-39.39
-35.66
-31.76
-28.21
-25.34
-23.31
-22.18
-21.95
-22.53
-23.72
-25.18
-26.58
-27.61
-28.19
-28.52
-29.00
-30.08
-32.07
-34.99
-38.54
-42.11
-45.03
-46.70
-46.87
-45.67
-43.55
-41.15
-39.05
-37.65
-37.13
-37.47
-38.54
-40.07
-41.57
-42.27
-41.32
-37.99
-32.01
-23.74
-14.07
-4.14
5.11
13.19
19.99
25.65
30.27
33.83
36.16
37.19
37.10
36.34
35.49
35.01
35.08
35.53
36.00
36.01
35.27
33.72
31.53
28.99
26.30
23.48
20.33
16.46
11.49
5.08
-2.90
-12.23
-22.32
-32.07
-40.03
-44.68
-44.81
-39.93
-30.51
-17.80
-3.51
10.81
24.08
35.86
46.15
55.11
62.79
69.11
73.90
77.10
78.84
79.46
79.40
79.08
78.79
78.70
78.84
79.20
79.67
80.09
80.26
79.96
79.01
77.36
75.09
72.38
69.38
66.21
62.86
59.24
55.25
50.90
46.48
42.65
40.31
40.48
43.88
50.72
60.49
72.06
83.86
94.16
101.47
104.87
104.22
100.10
93.71
86.31
78.90
71.91
65.27
58.64
51.77
44.73
37.76
31.15
24.94
18.98
13.05
7.14
1.56
-3.11
-6.25
-7.47
-6.66
-4.20
-0.77
2.70
5.23
6.03
4.76
1.58
-2.86
-7.67
-12.04
-15.51
-17.93
-19.49
-20.44
-20.98
-21.23
-21.36
-21.59
-22.29
-23.83
-26.45
-30.20
-34.80
-39.81
-44.71
-49.04
-52.47
-54.90
-56.48
-57.57
-58.63
-60.05
-61.94
-64.06
-65.88
-66.88
-66.81
-65.90
-64.69
-63.84
-63.69
-64.07
-64.39
-63.89
-61.90
-57.99
-51.91
-43.51
-32.81
-20.14
-6.31
7.43
19.70
29.42
36.07
39.75
40.87
39.82
36.75
31.69
24.75
16.40
7.35
-1.48
-9.37
-15.89
-20.89
-24.35
-26.34
-26.93
-26.30
-24.80
-22.93
-21.30
-20.36
-20.42
-21.50
-23.38
-25.78
-28.40
-31.13
-33.92
-36.81
-39.83
-42.97
-46.20
-49.52
-53.07
-56.98
-61.41
-66.31
-71.45
-76.28
-80.02
-81.76
-80.66
-76.14
-68.16
-57.33
-44.77
-31.81
-19.62
-8.88
0.29
8.15
15.06
21.20
26.51
30.82
33.98
36.03
37.27
38.04
38.69
39.35
40.04
40.60
40.86
40.75
40.27
39.45
38.29
36.69
34.52
31.77
28.57
25.17
21.80
18.44
14.84
10.59
5.44
-0.51
-6.77
-12.69
-17.72
-21.78
-25.26
-28.90
-33.49
-39.55
-47.04
-55.23
-62.78
-67.96
-69.12
-65.23
-56.20
-43.03
-27.47
-11.54
3.13
15.56
25.51
33.27
39.29
43.96
47.51
50.02
51.60
52.39
52.62
52.53
52.28
51.95
51.53
51.04
50.50
50.02
49.71
49.59
49.51
49.08
47.80
45.23
41.06
35.36
28.53
21.16
13.88
7.14
1.09
-4.46
-9.96
-15.89
-22.71
-30.67
-39.72
-49.35
-58.62
-66.18
-70.53
-70.43
-65.27
-55.40
-42.07
-27.14
-12.52
0.32
10.72
18.71
24.80
29.53
33.20
35.89
37.53
38.16
38.03
37.62
37.41
37.71
38.54
39.63
40.58
41.07
40.93
40.29
39.44
38.62
37.89
37.03
35.62
33.26
29.73
25.11
19.79
14.25
8.94
4.04
-0.45
-4.75
-9.17
-14.06
-19.77
-26.57
-34.56
-43.43
-52.30
-59.74
-63.99
-63.55
-57.66
-46.78
-32.46
-16.92
-2.33
9.85
19.07
25.65
30.34
33.89
36.73
39.02
40.72
41.83
42.44
42.66
42.63
42.37
41.81
40.78
39.22
37.19
34.88
32.54
30.38
28.42
26.46
24.23
21.37
17.62
12.83
7.03
0.38
-6.81
-14.19
-21.46
-28.38
-34.93
-41.21
-47.40
-53.66
-60.09
-66.66
-73.10
-78.96
-83.41
-85.45
-84.05
-78.53
-68.85
-55.72
-40.45
-24.52
-9.23
4.67
16.95
27.77
37.42
46.00
53.45
59.42
63.54
65.49
65.19
62.84
58.96
54.17
49.13
44.37
40.21
36.81
34.15
32.10
30.40
28.67
26.53
23.67
19.95
15.44
10.43
5.28
0.28
-4.40
-8.83
-13.20
-17.71
-22.39
-27.09
-31.45
-34.97
-37.19
-37.75
-36.55
-33.64
-29.21
-23.45
-16.59
-9.01
-1.27
5.85
11.62
15.55
17.64
18.34
18.30
18.17
18.23
18.47
18.67
18.63
18.28
17.64
16.70
15.35
13.43
10.86
7.81
4.67
1.96
0.19
-0.33
0.43
2.16
4.31
6.17
7.20
7.09
6.02
4.57
3.54
3.85
6.11
10.56
16.90
24.30
31.61
37.63
41.40
42.42
40.82
37.13
32.11
26.39
20.38
14.31
8.37
2.88
-1.77
-5.16
-7.11
-7.79
-7.63
-7.26
-7.16
-7.56
-8.34
-9.19
-9.85
-10.29
-10.74
-11.52
-12.89
-14.84
-17.14
-19.48
-21.70
-23.83
-26.04
-28.46
-30.96
-33.16
-34.50
-34.55
-33.11
-30.36
-26.75
-22.78
-18.82
-15.09
-11.61
-8.38
-5.45
-2.95
-1.01
0.31
1.11
1.61
1.99
2.36
2.65
2.74
2.57
2.22
1.90
1.83
2.13
2.71
3.32
3.65
3.47
2.65
1.22
-0.71
-3.02
-5.69
-8.72
-12.16
-15.96
-19.93
-23.69
-26.71
-28.54
-28.88
-27.75
-25.46
-22.43
-19.09
-15.68
-12.34
-9.05
-5.87
-2.92
-0.41
1.42
2.44
2.65
2.26
1.57
0.89
0.43
0.26
0.28
0.34
0.27
0.00
-0.50
-1.25
-2.28
-3.65
-5.40
-7.51
-9.87
-12.29
-14.64
-16.84
-19.05
-21.52
-24.51
-28.10
-32.05
-35.81
-38.54
-39.43
-37.85
-33.62
-27.04
-18.85
-9.94
-1.14
7.01
14.24
20.44
25.61
29.66
32.53
34.18
34.75
34.47
33.64
32.51
31.23
29.94
28.71
27.64
26.78
26.05
25.27
24.12
22.41
20.04
17.12
13.82
10.33
6.75
3.04
-0.92
-5.33
-10.33
-16.07
-22.50
-29.34
-36.00
-41.57
-45.02
-45.44
-42.38
-35.98
-27.04
-16.68
-6.14
3.57
11.87
18.46
23.31
26.46
28.01
28.10
26.91
24.82
22.22
19.56
17.15
15.21
13.78
12.78
12.04
11.30
10.32
8.87
6.79
4.07
0.82
-2.77
-6.50
-10.28
-14.08
-18.05
-22.38
-27.26
-32.84
-39.04
-45.53
-51.62
-56.34
-58.69
-57.81
-53.38
-45.69
-35.53
-24.04
-12.33
-1.31
8.45
16.60
22.98
27.45
29.99
30.70
29.87
27.93
25.40
22.77
20.36
18.29
16.50
14.87
13.32
11.84
10.51
9.38
8.44
7.57
6.54
5.15
3.27
0.95
-1.70
-4.45
-7.19
-9.91
-12.72
-15.85
-19.50
-23.84
-28.81
-34.13
-39.08
-42.69
-43.84
-41.68
-35.92
-27.01
-16.05
-4.45
6.52
16.01
23.74
29.76
34.27
37.33
38.94
39.04
37.71
35.29
32.28
29.28
26.79
25.08
24.08
23.57
23.18
22.68
22.00
21.18
20.30
19.33
18.10
16.34
13.91
10.80
7.16
3.18
-1.03
-5.51
-10.36
-15.64
-21.31
-27.17
-33.00
-38.61
-43.87
-48.64
-52.71
-55.75
-57.34
-57.10
-54.81
-50.49
-44.46
-37.18
-29.25
-21.21
-13.51
-6.46
-0.24
5.14
9.73
13.63
17.03
20.02
22.70
25.02
26.91
28.31
29.18
29.63
29.79
29.86
29.88
29.81
29.45
28.56
27.00
24.73
21.89
18.70
15.40
12.17
9.14
6.32
3.72
1.34
-0.88
-3.02
-5.21
-7.55
-10.14
-12.97
-15.84
-18.45
-20.41
-21.36
-21.08
-19.58
-17.04
-13.80
-10.15
-6.31
-2.40
1.52
5.28
8.67
11.37
13.17
13.98
13.95
13.38
12.63
12.03
11.74
11.77
11.96
12.08
11.92
11.36
10.44
9.25
7.96
6.67
5.44
4.28
3.18
2.20
1.37
0.65
-0.05
-0.86
-1.86
-3.04
-4.33
-5.67
-7.05
-8.62
-10.49
-12.78
-15.41
-18.20
-20.85
-23.10
-24.77
-25.68
-25.71
-24.69
-22.53
-19.25
-15.06
-10.29
-5.31
-0.46
4.03
7.94
11.06
13.17
14.12
13.93
12.79
11.12
9.35
7.82
6.68
5.93
5.47
5.26
5.26
5.38
5.48
5.31
4.67
3.39
1.51
-0.82
-3.36
-5.84
-8.01
-9.70
-10.86
-11.57
-12.01
-12.43
-13.03
-13.93
-15.08
-16.37
-17.67
-18.93
-20.13
-21.19
-21.94
-22.11
-21.43
-19.77
-17.29
-14.36
-11.43
-8.80
-6.50
-4.36
-2.14
0.21
2.53
4.53
5.96
6.78
7.20
7.54
8.09
8.91
9.90
10.89
11.78
12.54
13.23
13.88
14.42
14.62
14.27
13.21
11.42
9.05
6.33
3.49
0.69
-2.00
-4.59
-7.08
-9.49
-11.77
-13.95
-16.02
-17.91
-19.48
-20.47
-20.57
-19.50
-17.22
-13.88
-9.82
-5.49
-1.29
2.48
5.62
8.07
9.78
10.81
11.21
11.11
10.59
9.79
8.77
7.63
6.49
5.51
4.78
4.38
4.30
4.36
4.44
4.35
3.99
3.29
2.22
0.77
-1.03
-3.10
-5.34
-7.59
-9.74
-11.70
-13.52
-15.31
-17.25
-19.51
-22.17
-25.11
-28.01
-30.33
-31.48
-31.04
-28.85
-25.13
-20.33
-15.02
-9.68
-4.66
-0.16
3.66
6.75
9.04
10.52
11.33
11.63
11.61
11.43
11.21
11.01
10.84
10.61
10.22
9.55
8.52
7.14
5.46
3.53
1.31
-1.23
-4.13
-7.35
-10.70
-13.93
-16.84
-19.38
-21.65
-23.89
-26.33
-29.17
-32.42
-35.95
-39.42
-42.19
-43.53
-42.64
-39.01
-32.57
-23.77
-13.52
-2.89
7.10
15.82
22.93
28.41
32.39
34.98
36.28
36.43
35.62
34.16
32.39
30.62
29.01
27.60
26.29
24.98
23.65
22.35
21.10
19.90
18.61
16.99
14.88
12.19
9.04
5.63
2.19
-1.11
-4.23
-7.22
-10.20
-13.29
-16.60
-20.20
-24.10
-28.08
-31.66
-34.06
-34.43
-32.08
-26.81
-19.08
-9.83
-0.24
8.67
16.26
22.36
27.05
30.46
32.68
33.66
33.39
31.97
29.74
27.20
24.91
23.30
22.52
22.38
22.44
22.23
21.35
19.76
17.67
15.49
13.56
11.96
10.48
8.68
6.16
2.72
-1.49
-6.02
-10.33
-13.97
-16.77
-18.88
-20.65
-22.52
-24.87
-27.89
-31.55
-35.60
-39.52
-42.60
-44.05
-43.11
-39.36
-32.85
-24.21
-14.53
-5.02
3.31
9.93
14.83
18.40
21.17
23.53
25.62
27.34
28.55
29.16
29.25
29.05
28.81
28.71
28.77
28.88
28.85
28.54
27.84
26.73
25.15
23.03
20.20
16.59
12.24
7.43
2.59
-1.85
-5.53
-8.42
-10.77
-13.08
-15.83
-19.36
-23.68
-28.50
-33.27
-37.39
-40.24
-41.28
-40.12
-36.55
-30.67
-22.95
-14.19
-5.40
2.44
8.68
13.05
15.67
16.93
17.23
16.92
16.31
15.58
14.90
14.39
14.08
13.94
13.86
13.70
13.34
12.73
11.90
10.94
9.94
8.91
7.78
6.40
4.58
2.21
-0.67
-3.87
-7.13
-10.21
-13.05
-15.72
-18.45
-21.42
-24.78
-28.44
-32.09
-35.10
-36.68
-36.05
-32.71
-26.73
-18.77
-9.93
-1.41
5.84
11.40
15.33
18.01
19.84
21.02
21.61
21.55
20.88
19.81
18.60
17.54
16.77
16.27
15.85
15.31
14.53
13.54
12.43
11.26
10.02
8.54
6.63
4.12
1.00
-2.55
-6.28
-9.90
-13.33
-16.72
-20.29
-24.21
-28.31
-31.98
-34.30
-34.29
-31.34
-25.52
-17.55
-8.64
-0.07
7.18
12.63
16.30
18.43
19.40
19.53
19.08
18.22
17.14
16.02
15.00
14.13
13.36
12.52
11.46
10.03
8.26
6.23
4.11
2.00
-0.13
-2.49
-5.26
-8.53
-12.22
-16.07
-19.82
-23.33
-26.71
-30.19
-33.99
-38.13
-42.24
-45.59
-47.18
-46.10
-41.83
-34.44
-24.71
-13.82
-3.09
6.42
14.10
19.84
23.80
26.23
27.35
27.32
26.34
24.72
22.89
21.23
19.98
19.15
18.53
17.79
16.65
14.90
12.55
9.69
6.47
3.00
-0.62
-4.36
-8.14
-11.89
-15.54
-19.11
-22.76
-26.73
-31.30
-36.57
-42.35
-48.03
-52.66
-55.15
-54.56
-50.41
-42.91
-32.91
-21.63
-10.34
-0.02
8.84
16.13
21.97
26.46
29.67
31.63
32.46
32.39
31.74
30.77
29.65
28.42
27.06
25.58
24.04
22.51
20.96
19.25
17.23
14.72
11.68
8.12
4.16
-0.10
-4.54
-9.12
-13.80
-18.61
-23.68
-29.18
-35.20
-41.64
-48.02
-53.38
-56.51
-56.28
-52.02
-43.86
-32.73
-20.07
-7.42
3.95
13.39
20.78
26.33
30.37
33.17
34.93
35.83
36.06
35.79
35.13
34.12
32.78
31.20
29.55
28.06
26.90
25.99
25.06
23.75
21.74
18.89
15.27
11.05
6.39
1.45
-3.66
-8.82
-13.86
-18.78
-23.71
-28.94
-34.76
-41.09
-47.31
-52.23
-54.45
-52.85
-47.03
-37.57
-25.82
-13.44
-1.87
7.98
15.84
21.84
26.31
29.51
31.58
32.67
32.92
32.56
31.90
31.18
30.56
30.09
29.71
29.30
28.79
28.12
27.20
25.96
24.26
21.93
18.85
14.96
10.34
5.24
-0.03
-5.15
-9.91
-14.32
-18.57
-23.06
-28.21
-34.27
-41.06
-47.82
-53.29
-56.00
-54.80
-49.25
-39.93
-28.21
-15.90
-4.61
4.66
11.61
16.52
19.82
21.94
23.05
23.18
22.36
20.69
18.44
15.90
13.30
10.69
7.97
4.99
1.65
-2.02
-5.98
-10.25
-14.99
-20.46
-26.91
-34.40
-42.72
-51.45
-60.18
-68.67
-77.01
-85.60
-94.92
-105.33
-116.76
-128.58
-139.59
-148.21
-152.95
-152.75
-147.34
-137.11
-122.93
-105.71
-86.11
-64.50
-41.12
-16.33
9.26
34.77
59.26
81.91
102.06
119.25
133.04
143.07
149.09
151.16
149.66
145.36
139.12
131.73
123.71
115.27
106.44
97.21
87.69
78.12
68.79
59.89
51.44
43.26
35.00
26.27
16.86
6.94
-2.83
-11.37
-17.36
-19.72
-17.89
-12.12
-3.40
6.80
16.95
25.79
32.59
37.15
39.65
40.53
40.25
39.24
37.83
36.20
34.52
32.82
31.14
29.44
27.63
25.64
23.46
21.17
18.92
16.82
14.88
12.92
10.68
7.93
4.56
0.64
-3.60
-7.92
-12.08
-15.98
-19.60
-23.13
-26.89
-31.30
-36.67
-42.93
-49.46
-55.00
-58.00
-57.09
-51.66
-42.13
-29.83
-16.55
-3.90
7.05
15.90
22.74
27.86
31.50
33.76
34.74
34.63
33.78
32.62
31.53
30.74
30.24
29.82
29.24
28.30
26.95
25.33
23.68
22.20
20.90
19.51
17.64
14.87
11.06
6.32
1.15
-3.87
-8.26
-11.83
-14.77
-17.55
-20.77
-24.97
-30.36
-36.77
-43.49
-49.42
-53.16
-53.47
-49.66
-41.82
-30.91
-18.45
-6.03
5.13
14.36
21.63
27.21
31.46
34.63
36.85
38.22
38.84
38.90
38.56
38.02
37.41
36.77
36.17
35.55
34.86
33.97
32.77
31.14
29.06
26.49
23.47
20.05
16.31
12.34
8.21
4.00
-0.25
-4.46
-8.54
-12.40
-15.96
-19.18
-22.13
-24.97
-27.92
-31.20
-34.97
-39.27
-43.93
-48.49
-52.22
-54.23
-53.63
-49.89
-43.01
-33.60
-22.80
-11.92
-2.10
5.94
11.99
16.24
19.08
20.89
21.95
22.46
22.52
22.28
21.93
21.64
21.52
21.56
21.66
21.59
21.14
20.19
18.72
16.85
14.76
12.55
10.25
7.73
4.79
1.27
-2.89
-7.61
-12.63
-17.61
-22.20
-26.12
-29.24
-31.65
-33.57
-35.31
-37.19
-39.38
-41.95
-44.70
-47.23
-48.90
-48.97
-46.72
-41.74
-34.14
-24.57
-14.13
-3.99
4.95
12.25
17.90
22.15
25.25
27.33
28.45
28.65
28.15
27.29
26.45
25.89
25.61
25.39
24.90
23.91
22.44
20.75
19.13
17.79
16.66
15.41
13.66
11.11
7.76
3.82
-0.31
-4.26
-7.82
-11.03
-14.09
-17.34
-21.07
-25.44
-30.39
-35.50
-40.03
-43.04
-43.56
-40.99
-35.26
-26.97
-17.20
-7.18
2.02
9.80
15.95
20.53
23.68
25.48
26.00
25.42
24.15
22.71
21.58
21.03
21.00
21.21
21.34
21.21
20.80
20.25
19.67
19.07
18.32
17.20
15.58
13.40
10.79
7.96
5.09
2.27
-0.51
-3.42
-6.67
-10.48
-14.98
-20.14
-25.69
-31.13
-35.74
-38.70
-39.24
-36.91
-31.69
-24.14
-15.23
-6.13
2.15
8.98
14.23
18.13
21.03
23.15
24.48
24.87
24.18
22.47
20.04
17.36
14.89
12.88
11.36
10.15
9.02
7.80
6.42
4.83
2.97
0.64
-2.41
-6.30
-10.98
-16.14
-21.26
-25.88
-29.76
-33.01
-36.05
-39.43
-43.58
-48.60
-54.11
-59.25
-62.82
-63.65
-60.90
-54.42
-44.79
-33.14
-20.91
-9.37
0.64
8.73
14.96
19.58
22.83
24.93
26.07
26.47
26.42
26.23
26.07
25.99
25.83
25.39
24.53
23.27
21.77
20.26
18.89
17.62
16.24
14.41
11.85
8.41
4.15
-0.66
-5.57
-10.18
-14.23
-17.65
-20.70
-23.73
-27.19
-31.38
-36.35
-41.81
-47.12
-51.35
-53.38
-52.30
-47.64
-39.66
-29.25
-17.76
-6.61
3.16
11.08
17.19
21.89
25.50
28.22
30.00
30.79
30.66
29.91
28.97
28.22
27.83
27.68
27.49
26.95
25.89
24.42
22.78
21.28
20.08
19.04
17.78
15.81
12.73
8.43
3.25
-2.23
-7.38
-11.79
-15.49
-18.89
-22.57
-27.06
-32.60
-38.96
-45.54
-51.37
-55.30
-56.27
-53.57
-47.10
-37.45
-25.81
-13.58
-2.12
7.70
15.51
21.34
25.47
28.25
30.01
31.00
31.50
31.68
31.73
31.76
31.75
31.68
31.42
30.84
29.80
28.24
26.23
23.92
21.54
19.22
16.94
14.48
11.56
7.90
3.48
-1.49
-6.56
-11.29
-15.41
-18.94
-22.26
-25.89
-30.31
-35.76
-42.05
-48.49
-54.00
-57.39
-57.59
-54.03
-46.81
-36.69
-24.93
-12.88
-1.69
7.90
15.57
21.33
25.31
27.67
28.73
28.84
28.46
28.02
27.76
27.66
27.51
27.03
26.09
24.80
23.41
22.19
21.19
20.22
18.86
16.72
13.54
9.33
4.39
-0.85
-5.99
-10.75
-15.04
-18.98
-22.86
-27.06
-31.90
-37.54
-43.79
-50.04
-55.29
-58.37
-58.27
-54.52
-47.41
-37.94
-27.58
-17.75
-9.44
-3.01
1.77
5.39
8.31
10.83
12.98
14.75
16.14
17.26
18.25
19.27
20.40
21.67
23.00
24.28
25.30
25.79
25.46
24.08
21.56
17.99
13.61
8.84
4.06
-0.44
-4.55
-8.36
-12.16
-16.32
-21.22
-27.03
-33.55
-40.11
-45.55
-48.52
-47.86
-43.04
-34.38
-22.99
-10.45
1.77
12.64
21.76
29.18
35.13
39.79
43.12
44.99
45.28
44.04
41.53
38.12
34.17
30.01
25.82
21.72
17.79
14.13
10.93
8.39
6.69
5.83
5.61
5.71
5.70
5.29
4.38
2.96
1.07
-1.42
-4.82
-9.53
-15.81
-23.47
-31.69
-39.15
-44.37
-46.09
-43.76
-37.61
-28.63
-18.14
-7.39
2.76
11.91
19.97
26.96
32.78
37.20
39.95
40.87
40.07
37.91
34.90
31.49
28.02
24.61
21.22
17.76
14.19
10.52
6.79
3.11
-0.51
-4.01
-7.39
-10.66
-13.83
-17.05
-20.58
-24.77
-29.90
-35.95
-42.36
-48.10
-51.83
-52.33
-48.94
-41.81
-31.88
-20.54
-9.20
1.09
9.74
16.50
21.38
24.35
25.44
24.75
22.59
19.50
16.17
13.25
11.18
10.06
9.64
9.49
9.14
8.25
6.73
4.71
2.45
0.15
-2.13
-4.54
-7.34
-10.82
-15.22
-20.61
-26.86
-33.54
-39.90
-44.84
-47.22
-46.11
-41.15
-32.79
-22.15
-10.71
0.13
9.48
17.00
22.79
27.05
29.91
31.33
31.28
29.95
27.76
25.32
23.17
21.54
20.24
18.82
16.78
13.85
10.13
6.01
1.99
-1.62
-4.78
-7.78
-11.11
-15.27
-20.68
-27.41
-35.15
-43.09
-49.97
-54.36
-55.08
-51.54
-44.01
-33.52
-21.51
-9.41
1.74
11.40
19.37
25.62
30.13
32.82
33.68
32.89
30.83
28.04
25.09
22.39
20.10
18.07
16.01
13.54
10.45
6.80
2.87
-0.98
-4.49
-7.72
-10.99
-14.86
-19.89
-26.47
-34.64
-43.97
-53.50
-61.78
-67.14
-68.15
-64.10
-55.29
-42.94
-28.88
-14.80
-1.93
9.24
18.74
26.77
33.41
38.50
41.82
43.23
42.91
41.33
39.12
36.86
34.89
33.19
31.43
29.24
26.33
22.71
18.70
14.71
11.06
7.76
4.44
0.51
-4.62
-11.27
-19.36
-28.39
-37.43
-45.33
-50.80
-52.67
-50.11
-42.98
-31.92
-18.33
-3.98
9.45
20.85
29.87
36.72
41.89
45.72
48.26
49.34
48.85
46.91
43.97
40.67
37.53
34.88
32.67
30.67
28.55
26.07
23.09
19.65
15.83
11.72
7.39
2.87
-1.80
-6.60
-11.52
-16.63
-22.11
-28.20
-35.00
-42.21
-48.98
-53.89
-55.41
-52.31
-44.31
-32.23
-17.79
-3.09
10.05
20.58
28.29
33.61
37.17
39.49
40.76
41.04
40.30
38.67
36.38
33.81
31.29
29.02
27.08
25.41
23.89
22.34
20.61
18.52
15.92
12.74
8.97
4.71
0.12
-4.64
-9.42
-14.17
-18.92
-23.83
-29.05
-34.65
-40.34
-45.41
-48.72
-49.02
-45.32
-37.39
-25.96
-12.58
0.81
12.49
21.41
27.33
30.68
32.17
32.45
32.01
31.13
29.94
28.59
27.19
25.80
24.41
22.93
21.29
19.52
17.72
15.98
14.36
12.79
11.03
8.86
6.09
2.71
-1.09
-5.05
-8.93
-12.63
-16.26
-20.12
-24.54
-29.76
-35.68
-41.78
-47.05
-50.20
-49.95
-45.57
-37.11
-25.57
-12.60
-0.01
10.80
19.11
24.91
28.59
30.60
31.25
30.75
29.28
27.14
24.80
22.66
21.01
19.87
19.09
18.44
17.78
17.03
16.15
15.05
13.55
11.44
8.58
4.98
0.84
-3.50
-7.71
-11.56
-15.03
-18.31
-21.75
-25.76
-30.63
-36.31
-42.31
-47.67
-51.07
-51.27
-47.46
-39.63
-28.63
-16.04
-3.60
7.20
15.52
21.23
24.69
26.44
27.00
26.70
25.82
24.65
23.46
22.44
21.63
20.90
20.03
18.87
17.46
15.93
14.45
13.02
11.46
9.52
6.96
3.74
0.01
-3.95
-7.85
-11.48
-14.81
-17.92
-21.04
-24.46
-28.48
-33.27
-38.73
-44.35
-49.12
-51.80
-51.19
-46.62
-38.27
-27.22
-15.13
-3.77
5.53
12.21
16.42
18.69
19.69
19.87
19.52
18.82
17.94
17.07
16.38
15.87
15.47
15.04
14.49
13.84
13.20
12.61
12.00
11.17
9.83
7.73
4.76
0.98
-3.35
-7.83
-12.08
-15.83
-19.02
-21.90
-24.91
-28.56
-33.17
-38.58
-44.01
-48.19
-49.67
-47.34
-40.86
-30.87
-18.75
-6.24
5.15
14.47
21.44
26.18
28.99
30.10
29.69
28.08
25.71
23.25
21.29
20.17
19.84
19.87
19.81
19.36
18.51
17.51
16.67
16.05
15.50
14.61
12.98
10.37
6.84
2.70
-1.63
-5.77
-9.54
-12.97
-16.29
-19.86
-24.00
-28.89
-34.43
-40.19
-45.38
-48.91
-49.68
-46.91
-40.41
-30.75
-19.20
-7.30
3.53
12.38
18.98
23.56
26.53
28.30
29.10
29.00
28.13
26.73
25.14
23.71
22.71
22.16
21.92
21.72
21.31
20.52
19.32
17.72
15.74
13.34
10.43
6.96
2.95
-1.42
-5.84
-9.94
-13.53
-16.51
-19.10
-21.65
-24.59
-28.28
-32.87
-38.14
-43.45
-47.83
-50.08
-49.15
-44.53
-36.39
-25.72
-13.96
-2.60
7.24
15.03
20.77
24.69
27.06
28.04
27.72
26.32
24.27
22.14
20.49
19.62
19.45
19.57
19.49
18.82
17.50
15.78
14.00
12.39
10.91
9.27
7.08
4.08
0.28
-4.06
-8.51
-12.65
-16.27
-19.40
-22.31
-25.39
-29.02
-33.43
-38.48
-43.61
-47.91
-50.25
-49.64
-45.53
-38.02
-27.84
-16.20
-4.48
6.14
14.83
21.24
25.43
27.68
28.42
28.10
27.13
25.87
24.60
23.44
22.41
21.46
20.46
19.31
17.94
16.38
14.68
12.95
11.24
9.54
7.72
5.58
2.92
-0.37
-4.22
-8.34
-12.34
-15.86
-18.81
-21.36
-24.01
-27.30
-31.57
-36.68
-41.87
-45.88
-47.33
-45.13
-38.99
-29.48
-17.91
-5.93
4.94
13.70
19.99
24.00
26.19
27.08
27.07
26.42
25.26
23.74
22.04
20.32
18.81
17.66
16.90
16.48
16.22
15.89
15.26
14.16
12.44
10.04
7.01
3.40
-0.62
-4.86
-9.06
-13.06
-16.75
-20.25
-23.85
-27.85
-32.42
-37.29
-41.66
-44.32
-44.02
-39.99
-32.28
-21.85
-10.24
0.90
10.33
17.43
22.18
24.91
26.06
26.00
25.07
23.59
21.87
20.20
18.76
17.61
16.64
15.73
14.76
13.72
12.62
11.51
10.36
9.03
7.28
4.91
1.79
-2.02
-6.25
-10.57
-14.66
-18.42
-22.07
-26.01
-30.66
-36.15
-42.06
-47.41
-50.82
-50.98
-47.09
-39.22
-28.32
-15.93
-3.73
6.98
15.45
21.58
25.66
28.13
29.36
29.63
29.12
28.04
26.62
25.10
23.67
22.35
21.13
19.92
18.70
17.52
16.37
15.21
13.78
11.80
9.00
5.29
0.86
-3.95
-8.70
-13.11
-17.11
-20.94
-24.93
-29.47
-34.68
-40.32
-45.75
-49.89
-51.54
-49.74
-44.05
-34.82
-23.11
-10.44
1.69
12.09
20.20
25.99
29.83
32.18
33.46
33.93
33.71
32.93
31.69
30.18
28.56
26.96
25.41
23.91
22.39
20.82
19.23
17.59
15.82
13.73
11.07
7.67
3.50
-1.26
-6.31
-11.23
-15.74
-19.73
-23.36
-27.01
-31.15
-36.16
-42.07
-48.44
-54.27
-58.22
-58.92
-55.47
-47.80
-36.65
-23.47
-9.88
2.74
13.50
22.11
28.67
33.48
36.79
38.77
39.57
39.35
38.40
37.04
35.60
34.25
32.96
31.53
29.74
27.49
24.91
22.27
19.83
17.60
15.30
12.50
8.75
3.97
-1.55
-7.22
-12.38
-16.60
-19.86
-22.51
-25.11
-28.33
-32.63
-38.18
-44.70
-51.42
-57.13
-60.46
-60.27
-55.99
-47.87
-36.89
-24.48
-12.12
-1.02
8.13
15.11
20.10
23.47
25.61
26.89
27.54
27.68
27.38
26.70
25.76
24.65
23.50
22.41
21.46
20.74
20.27
20.01
19.73
19.06
17.52
14.78
10.77
5.83
0.59
-4.33
-8.46
-11.79
-14.68
-17.76
-21.63
-26.68
-32.88
-39.70
-46.19
-51.06
-53.05
-51.17
-45.11
-35.37
-23.22
-10.37
1.60
11.58
19.15
24.47
27.96
29.99
30.71
30.09
28.14
25.07
21.37
17.75
14.89
13.24
12.92
13.68
15.07
16.62
17.93
18.74
18.91
18.33
16.94
14.76
11.95
8.76
5.46
2.21
-0.96
-4.24
-7.86
-11.99
-16.57
-21.17
-24.99
-27.06
-26.43
-22.53
-15.43
-5.82
5.05
15.82
25.29
32.73
37.86
40.81
41.88
41.39
39.67
37.03
33.79
30.28
26.73
23.27
19.82
16.29
12.55
8.61
4.62
0.80
-2.67
-5.80
-8.86
-12.37
-16.86
-22.65
-29.53
-36.74
-43.01
-47.01
-47.75
-45.02
-39.49
-32.48
-25.60
-20.18
-16.98
-15.95
-16.42
-17.27
-17.32
-15.59
-11.51
-5.13
2.95
11.79
20.38
28.10
34.77
40.72
46.43
52.19
57.93
63.20
67.52
70.63
72.60
73.77
74.43
74.66
74.33
73.27
71.54
69.55
67.91
67.15
67.49
68.69
70.18
71.24
71.28
69.91
67.00
62.54
56.63
49.31
40.59
30.47
18.97
6.29
-7.10
-20.40
-32.59
-42.57
-49.52
-53.03
-53.31
-50.95
-46.78
-41.56
-35.91
-30.19
-24.71
-19.80
-15.84
-13.29
-12.50
-13.63
-16.56
-20.83
-25.67
-30.21
-33.69
-35.80
-36.75
-37.19
-37.88
-39.25
-41.19
-43.12
-44.31
-44.22
-42.76
-40.19
-36.91
-33.57
-31.03
-30.53
-33.48
-40.88
-52.63
-67.26
-82.26
-95.07
-104.08
-109.09
-110.94
-110.67
-108.64
-104.35
-96.98
-86.22
-72.79
-58.38
-44.86
-33.49
-24.49
-17.20
-10.78
-4.80
0.53
4.50
6.43
6.19
4.30
1.84
-0.03
-0.38
1.21
4.69
9.69
15.61
21.88
27.96
33.47
38.27
42.49
46.41
50.48
55.21
61.07
68.41
77.39
87.67
98.16
106.82
111.07
108.51
97.99
80.21
57.71
34.06
12.72
-3.93
-14.99
-20.71
-21.90
-19.37
-13.71
-5.55
4.27
14.66
24.52
33.05
39.96
45.39
49.64
52.95
55.57
57.77
59.97
62.52
65.33
67.66
68.36
66.39
61.51
54.58
47.21
40.99
36.72
34.08
31.93
28.94
24.32
17.98
10.38
2.23
-5.91
-13.55
-20.29
-25.82
-30.00
-33.00
-35.19
-37.05
-38.90
-40.76
-42.26
-42.88
-42.09
-39.67
-35.77
-31.00
-26.28
-22.56
-20.68
-21.03
-23.49
-27.50
-32.34
-37.42
-42.64
-48.52
-56.15
-66.72
-80.93
-98.19
-116.33
-131.73
-140.42
-139.34
-127.66
-107.16
-81.66
-55.62
-32.63
-14.68
-2.13
5.45
8.61
7.63
2.93
-4.46
-12.79
-19.95
-24.36
-25.69
-25.06
-24.49
-25.92
-30.29
-37.01
-44.32
-49.89
-51.85
-49.23
-42.18
-31.52
-18.33
-3.48
12.45
29.06
45.92
62.32
77.17
89.06
96.53
98.33
93.88
83.61
69.13
53.08
38.58
28.46
24.38
26.34
32.72
40.72
47.22
49.82
47.59
41.31
32.98
24.84
18.42
14.17
11.73
10.62
10.62
11.67
13.40
14.77
14.35
11.04
4.97
-2.21
-7.95
-10.02
-7.65
-1.88
4.97
10.51
13.22
12.80
9.88
5.59
1.01
-3.01
-5.85
-7.08
-6.33
-3.36
1.91
9.32
18.48
28.65
38.74
47.22
52.40
52.85
48.19
39.47
29.16
20.32
15.44
15.43
19.40
25.24
30.71
34.36
35.79
35.25
33.03
29.05
22.97
14.76
5.03
-5.03
-14.12
-21.46
-27.09
-31.76
-36.32
-41.24
-46.20
-50.28
-52.46
-52.08
-49.20
-44.49
-38.95
-33.50
-28.79
-25.07
-22.30
-20.37
-19.15
-18.56
-18.51
-18.82
-19.24
-19.52
-19.47
-19.12
-18.60
-18.08
-17.74
-17.64
-17.80
-18.14
-18.62
-19.09
-19.36
-19.24
-18.57
-17.33
-15.64
-13.68
-11.66
-9.67
-7.73
-5.92
-4.35
-3.20
-2.55
-2.38
-2.50
-2.63
-2.56
-2.24
-1.75
-1.31
-1.09
-1.12
-1.31
-1.48
-1.50
-1.31
-0.97
-0.60
-0.34
-0.26
-0.33
-0.55
-0.88
-1.43
-2.28
-3.48
-4.91
-6.32
-7.34
-7.64
-7.12
-5.92
-4.44
-3.14
-2.34
-2.14
-2.34
-2.64
-2.74
-2.51
-1.94
-1.14
-0.20
0.81
1.98
3.36
4.95
6.63
8.11
9.11
9.45
9.19
8.61
8.07
7.83
7.86
7.96
7.81
7.20
6.14
4.81
3.47
2.30
1.38
0.70
0.21
-0.09
-0.15
0.10
0.69
1.65
2.87
4.18
5.33
6.10
6.29
5.93
5.14
4.09
2.94
1.71
0.40
-1.00
-2.41
-3.75
-4.94
-5.97
-6.92
-7.88
-8.90
-9.93
-10.95
-11.91
-12.83
-13.74
-14.65
-15.58
-16.49
-17.43
-18.57
-20.12
-22.27
-25.13
-28.59
-32.35
-36.06
-39.31
-41.79
-43.31
-43.76
-43.15
-41.51
-38.93
-35.63
-32.03
-28.78
-26.61
-26.06
-27.25
-29.84
-33.14
-36.48
-39.39
-41.81
-43.83
-45.54
-46.80
-47.12
-45.80
-41.97
-34.80
-23.72
-8.64
9.74
29.76
48.96
64.62
74.55
77.77
74.97
68.35
60.98
55.88
54.99
58.54
65.04
71.79
75.95
75.59
70.31
61.24
50.43
39.94
31.10
24.25
18.93
14.35
9.81
4.91
-0.61
-6.92
-14.28
-22.94
-32.96
-44.23
-56.34
-68.82
-81.25
-93.39
-105.18
-116.57
-127.42
-137.40
-146.12
-153.23
-158.83
-163.61
-168.81
-175.76
-185.24
-196.66
-207.70
-214.58
-213.10
-200.00
-174.15
-136.91
-91.62
-42.48
6.56
52.45
93.03
126.79
152.65
170.06
179.28
181.47
178.51
172.44
165.00
157.33
150.05
143.50
137.93
133.46
129.99
127.12
124.23
120.47
114.99
107.01
96.09
82.25
66.21
49.35
33.40
19.94
9.94
3.63
0.63
0.36
2.24
5.74
10.27
15.07
19.25
22.11
23.40
23.42
22.81
22.27
22.15
22.41
22.71
22.71
22.25
21.49
20.78
20.47
20.71
21.31
21.92
22.10
21.57
20.30
18.50
16.49
14.55
12.78
11.09
9.27
7.06
4.31
1.04
-2.55
-6.10
-9.23
-11.51
-12.66
-12.52
-11.09
-8.51
-4.99
-0.86
3.49
7.62
11.14
13.71
15.24
15.80
15.64
15.04
14.17
13.11
11.80
10.21
8.35
6.31
4.21
2.19
0.27
-1.58
-3.41
-5.29
-7.28
-9.42
-11.72
-14.17
-16.71
-19.21
-21.49
-23.43
-24.97
-26.17
-27.16
-28.05
-28.78
-29.19
-28.93
-27.65
-25.04
-20.93
-15.33
-8.41
-0.60
7.49
15.07
21.40
25.93
28.50
29.34
28.93
27.81
26.33
24.61
22.60
20.27
17.72
15.21
13.06
11.47
10.48
9.93
9.59
9.24
8.81
8.31
7.85
7.51
7.30
7.14
6.83
6.18
4.99
3.20
0.85
-1.93
-4.88
-7.73
-10.15
-11.82
-12.53
-12.18
-10.92
-9.05
-7.01
-5.14
-3.64
-2.50
-1.57
-0.71
0.16
0.97
1.68
2.24
2.72
3.18
3.68
4.22
4.82
5.56
6.54
7.88
9.58
11.52
13.46
15.13
16.33
17.03
17.35
17.52
17.77
18.24
19.00
19.93
20.77
21.11
20.53
18.78
15.86
12.09
8.03
4.31
1.49
-0.17
-0.72
-0.43
0.29
1.08
1.86
2.76
4.18
6.59
10.30
15.38
21.43
27.65
32.99
36.42
37.22
35.17
30.61
24.32
17.20
10.04
3.28
-2.98
-8.89
-14.61
-20.22
-25.57
-30.34
-34.18
-36.82
-38.21
-38.47
-37.86
-36.70
-35.29
-33.92
-32.86
-32.33
-32.50
-33.33
-34.53
-35.60
-36.00
-35.33
-33.48
-30.67
-27.29
-23.78
-20.42
-17.32
-14.47
-11.85
-9.46
-7.40
-5.76
-4.62
-3.96
-3.68
-3.58
-3.52
-3.36
-3.09
-2.80
-2.60
-2.56
-2.70
-3.00
-3.40
-3.88
-4.42
-4.98
-5.47
-5.82
-5.96
-5.99
-6.14
-6.69
-7.84
-9.57
-11.65
-13.73
-15.52
-16.90
-17.95
-18.84
-19.65
-20.39
-20.97
-21.26
-21.19
-20.74
-19.94
-18.82
-17.36
-15.56
-13.46
-11.14
-8.80
-6.68
-4.95
-3.72
-2.95
-2.50
-2.12
-1.60
-0.83
0.16
1.16
1.94
2.35
2.40
2.22
1.97
1.77
1.56
1.21
0.56
-0.46
-1.75
-3.11
-4.32
-5.28
-5.98
-6.54
-7.16
-8.01
-9.27
-10.97
-13.12
-15.54
-18.04
-20.35
-22.24
-23.61
-24.42
-24.77
-24.81
-24.67
-24.43
-24.12
-23.73
-23.34
-23.16
-23.56
-24.94
-27.50
-31.09
-35.19
-39.01
-41.83
-43.23
-43.17
-41.97
-40.06
-37.85
-35.61
-33.41
-31.25
-29.04
-26.75
-24.41
-22.13
-20.09
-18.54
-17.72
-17.82
-18.96
-20.98
-23.39
-25.28
-25.42
-22.66
-16.40
-6.90
4.67
16.74
27.91
37.55
45.81
53.31
60.58
67.62
73.90
78.62
81.15
81.32
79.44
76.10
71.77
66.69
60.88
54.30
47.20
40.14
33.90
29.17
26.17
24.45
22.97
20.54
16.35
10.23
2.74
-5.15
-12.44
-18.45
-22.86
-25.74
-27.36
-28.09
-28.28
-28.20
-27.94
-27.40
-26.39
-24.82
-22.80
-20.75
-19.15
-18.38
-18.52
-19.40
-20.77
-22.53
-24.74
-27.50
-30.73
-34.06
-36.92
-38.74
-39.21
-38.33
-36.39
-33.83
-31.10
-28.66
-26.85
-25.87
-25.64
-25.79
-25.68
-24.72
-22.60
-19.53
-16.18
-13.45
-12.19
-12.86
-15.42
-19.27
-23.39
-26.43
-27.08
-24.37
-17.92
-8.12
3.95
16.87
29.27
40.19
49.24
56.58
62.65
67.95
72.82
77.34
81.36
84.54
86.52
87.01
85.94
83.36
79.54
74.69
68.98
62.47
55.19
47.20
38.66
29.79
20.76
11.63
2.31
-7.36
-17.47
-27.94
-38.53
-48.84
-58.46
-67.01
-74.22
-79.84
-83.69
-85.65
-85.76
-84.24
-81.45
-77.70
-73.08
-67.33
-59.98
-50.66
-39.43
-26.99
-14.56
-3.44
5.51
12.16
17.17
21.52
25.92
30.51
34.71
37.60
38.38
36.68
32.73
27.11
20.56
13.65
6.82
0.27
-5.85
-11.57
-17.02
-22.43
-27.96
-33.53
-38.79
-43.13
-45.84
-46.34
-44.43
-40.32
-34.56
-27.89
-20.96
-14.09
-7.23
0.05
8.29
17.84
28.59
39.90
50.75
60.21
67.73
73.35
77.50
80.71
83.26
85.04
85.61
84.34
80.69
74.36
65.35
54.03
40.96
26.90
12.56
-1.60
-15.40
-28.85
-41.99
-54.52
-65.65
-74.16
-78.68
-78.15
-72.19
-61.30
-46.74
-30.20
-13.40
2.33
16.13
27.66
36.90
43.97
49.05
52.42
54.46
55.70
56.77
58.25
60.55
63.72
67.50
71.36
74.68
76.96
77.97
77.79
76.65
74.88
72.59
69.64
65.63
60.07
52.62
43.29
32.54
21.11
9.91
-0.26
-8.83
-15.41
-19.72
-21.58
-20.89
-17.82
-12.81
-6.69
-0.40
5.24
9.78
13.28
16.14
18.83
21.71
24.84
27.98
30.85
33.22
35.08
36.57
37.86
38.97
39.74
39.89
39.17
37.53
35.12
32.13
28.66
24.56
19.54
13.28
5.72
-2.92
-12.17
-21.51
-30.48
-38.66
-45.70
-51.20
-54.81
-56.28
-55.53
-52.67
-47.81
-41.10
-32.66
-22.82
-12.10
-1.40
8.21
15.75
20.56
22.48
21.79
19.15
15.36
11.15
7.08
3.38
-0.00
-3.27
-6.55
-9.79
-12.67
-14.77
-15.80
-15.79
-15.12
-14.37
-14.02
-14.34
-15.34
-16.90
-18.92
-21.36
-24.16
-27.02
-29.33
-30.27
-29.16
-25.78
-20.48
-14.07
-7.37
-0.92
5.15
10.99
16.68
22.08
26.73
30.11
31.82
31.81
30.28
27.59
24.04
19.88
15.33
10.66
6.21
2.33
-0.69
-2.79
-4.10
-4.94
-5.64
-6.49
-7.59
-8.91
-10.32
-11.67
-12.90
-14.01
-14.96
-15.66
-15.82
-15.16
-13.49
-10.97
-8.04
-5.33
-3.39
-2.44
-2.35
-2.73
-3.10
-3.23
-3.08
-2.82
-2.65
-2.67
-2.83
-2.98
-2.99
-2.79
-2.42
-1.99
-1.61
-1.34
-1.22
-1.27
-1.54
-2.17
-3.24
-4.85
-6.98
-9.58
-12.56
-15.82
-19.25
-22.56
-25.33
-27.00
-27.13
-25.56
-22.52
-18.59
-14.38
-10.38
-6.79
-3.66
-0.95
1.23
2.71
3.34
3.14
2.35
1.38
0.62
0.25
0.26
0.39
0.33
-0.20
-1.31
-2.98
-5.08
-7.46
-10.06
-12.91
-16.04
-19.41
-22.90
-26.37
-29.72
-33.04
-36.56
-40.49
-44.86
-49.31
-53.11
-55.36
-55.17
-52.06
-46.11
-38.00
-28.91
-20.17
-12.89
-7.71
-4.69
-3.45
-3.40
-3.95
-4.57
-4.80
-4.23
-2.49
0.57
4.82
9.81
14.88
19.41
22.97
25.44
26.92
27.64
27.73
27.14
25.65
23.00
19.09
14.04
8.37
2.77
-1.95
-5.14
-6.30
-5.23
-2.00
3.11
9.53
16.59
23.56
29.74
34.55
37.54
38.40
36.99
33.46
28.30
22.26
16.15
10.62
5.92
1.99
-1.39
-4.28
-6.47
-7.57
-7.15
-5.07
-1.53
2.93
7.58
11.66
14.47
15.53
14.55
11.56
6.88
1.02
-5.36
-11.73
-17.77
-23.46
-29.04
-34.82
-41.04
-47.62
-54.10
-59.60
-63.02
-63.30
-59.85
-52.70
-42.56
-30.69
-18.48
-7.13
2.58
10.35
16.24
20.49
23.35
24.99
25.55
25.22
24.28
23.08
21.97
21.20
20.86
20.89
21.17
21.56
21.88
21.99
21.68
20.74
19.04
16.52
13.23
9.29
4.81
-0.05
-5.21
-10.61
-16.26
-22.20
-28.47
-34.81
-40.59
-44.78
-46.20
-43.97
-37.91
-28.66
-17.55
-6.09
4.41
13.19
19.97
24.88
28.13
29.98
30.65
30.33
29.28
27.74
25.98
24.19
22.59
21.35
20.58
20.30
20.32
20.41
20.24
19.53
18.09
15.87
12.91
9.33
5.33
1.10
-3.22
-7.54
-11.92
-16.52
-21.50
-26.85
-32.24
-36.86
-39.62
-39.38
-35.40
-27.68
-17.04
-4.95
6.93
17.17
24.96
30.10
32.89
33.81
33.34
31.82
29.49
26.63
23.60
20.87
18.84
17.78
17.67
18.10
18.49
18.25
17.05
14.86
11.98
8.76
5.43
1.99
-1.81
-6.24
-11.53
-17.63
-24.42
-31.61
-38.89
-45.76
-51.51
-55.20
-55.86
-52.89
-46.29
-36.86
-25.92
-14.93
-5.06
3.13
9.49
14.13
17.11
18.36
17.84
15.77
12.75
9.66
7.36
6.37
6.71
7.97
9.50
10.79
11.53
11.71
11.47
10.91
10.07
8.95
7.55
5.89
4.07
2.15
0.23
-1.63
-3.23
-4.30
-4.46
-3.27
-0.44
4.08
9.99
16.68
23.24
28.77
32.55
34.23
33.98
32.35
30.15
28.09
26.62
25.81
25.49
25.41
25.35
25.20
24.83
24.04
22.51
19.99
16.42
12.14
7.82
4.13
1.54
-0.02
-1.04
-2.32
-4.58
-8.20
-13.10
-18.72
-24.19
-28.48
-30.56
-29.65
-25.39
-18.07
-8.57
1.73
11.38
19.21
24.62
27.67
28.83
28.77
27.97
26.72
25.05
22.98
20.60
18.16
15.99
14.32
13.21
12.47
11.67
10.36
8.16
4.99
1.01
-3.38
-7.78
-11.94
-15.89
-19.86
-24.19
-29.14
-34.77
-40.81
-46.61
-51.24
-53.63
-52.84
-48.38
-40.37
-29.60
-17.33
-4.93
6.49
16.20
24.01
30.06
34.57
37.80
39.90
41.03
41.41
41.35
41.18
41.18
41.47
41.97
42.48
42.81
42.84
42.57
42.12
41.54
40.82
39.83
38.36
36.23
33.37
29.82
25.74
21.34
16.79
12.28
8.03
4.31
1.55
0.19
0.56
2.73
6.42
11.09
16.10
20.96
25.36
29.28
32.74
35.77
38.32
40.35
41.78
42.59
42.73
41.93
39.77
35.66
29.04
19.81
8.47
-3.76
-15.33
-24.79
-31.36
-35.12
-36.88
-37.79
-38.87
-40.74
-43.59
-47.35
-51.75
-56.34
-60.28
-62.35
-61.16
-55.62
-45.45
-31.42
-15.22
1.12
15.79
27.73
36.72
43.03
47.05
48.85
48.18
44.79
38.81
31.07
22.92
15.85
10.93
8.36
7.50
7.18
6.31
4.22
0.88
-3.29
-7.76
-12.19
-16.55
-21.02
-25.77
-30.81
-36.00
-41.13
-46.09
-50.89
-55.58
-59.88
-63.20
-64.61
-63.24
-58.77
-51.60
-42.91
-34.14
-26.56
-20.80
-16.89
-14.41
-12.97
-12.37
-12.68
-14.04
-16.35
-19.21
-21.96
-23.89
-24.52
-23.80
-22.06
-19.79
-17.48
-15.32
-13.25
-11.04
-8.52
-5.73
-3.00
-0.88
0.15
-0.22
-1.99
-4.86
-8.35
-11.95
-15.14
-17.40
-18.29
-17.42
-14.63
-10.04
-4.05
2.73
9.66
16.07
21.48
25.48
27.75
28.09
26.52
23.34
19.10
14.56
10.42
7.13
4.78
3.10
1.63
-0.08
-2.27
-4.96
-7.91
-10.81
-13.46
-15.85
-18.18
-20.80
-24.09
-28.33
-33.53
-39.26
-44.72
-48.77
-50.27
-48.36
-42.80
-34.08
-23.26
-11.65
-0.44
9.55
17.96
24.72
29.88
33.47
35.49
35.95
35.10
33.39
31.43
29.79
28.78
28.36
28.15
27.64
26.45
24.48
21.90
19.02
16.04
12.90
9.23
4.57
-1.41
-8.71
-16.95
-25.39
-33.14
-39.27
-42.98
-43.75
-41.48
-36.51
-29.54
-21.50
-13.29
-5.58
1.23
6.99
11.60
15.02
17.17
18.08
17.92
17.06
15.94
14.93
14.18
13.61
12.98
12.01
10.57
8.71
6.66
4.70
2.99
1.46
-0.22
-2.49
-5.76
-10.21
-15.63
-21.44
-26.76
-30.63
-32.24
-31.13
-27.28
-21.10
-13.31
-4.72
3.95
12.14
19.48
25.74
30.82
34.63
37.23
38.76
39.50
39.79
39.98
40.24
40.60
40.87
40.84
40.38
39.47
38.27
36.97
35.74
34.60
33.42
31.93
29.76
26.64
22.54
17.86
13.31
9.82
8.17
8.65
10.93
14.22
17.62
20.49
22.60
24.05
25.01
25.46
25.20
23.96
21.58
18.09
13.73
8.85
3.84
-0.97
-5.26
-8.83
-11.59
-13.62
-15.12
-16.37
-17.64
-19.19
-21.23
-24.02
-27.82
-32.90
-39.28
-46.70
-54.59
-62.23
-69.01
-74.66
-79.31
-83.29
-86.87
-90.06
-92.56
-93.99
-94.19
-93.28
-91.56
-89.14
-85.72
-80.65
-73.34
-63.74
-52.52
-40.87
-29.97
-20.55
-12.72
-6.11
-0.26
5.10
9.96
14.25
18.01
21.42
24.77
28.23
31.80
35.32
38.58
41.49
44.07
46.38
48.31
49.59
49.72
48.07
44.04
37.33
28.12
17.20
5.95
-3.97
-11.01
-14.20
-13.44
-9.40
-3.27
3.76
10.77
17.29
23.02
27.70
31.01
32.67
32.70
31.49
29.80
28.37
27.68
27.70
27.99
27.96
27.19
25.65
23.63
21.57
19.75
18.21
16.67
14.75
12.18
8.93
5.30
1.78
-1.11
-3.05
-4.00
-4.21
-4.07
-3.94
-3.98
-4.10
-4.01
-3.36
-1.85
0.58
3.70
6.98
9.72
11.21
11.00
9.02
5.64
1.53
-2.62
-6.19
-8.67
-9.64
-8.67
-5.39
0.26
7.95
16.87
25.98
34.31
41.23
46.64
50.83
54.38
58.03
62.56
68.70
77.00
87.57
99.75
112.13
122.75
129.66
131.52
128.05
120.16
109.56
98.09
87.17
77.47
68.89
60.92
52.92
44.36
34.95
24.56
13.33
1.59
-10.01
-20.67
-29.58
-36.13
-40.10
-41.68
-41.40
-39.96
-38.02
-36.12
-34.56
-33.37
-32.41
-31.43
-30.31
-29.09
-28.04
-27.48
-27.61
-28.44
-29.78
-31.33
-32.86
-34.18
-35.15
-35.62
-35.46
-34.70
-33.52
-32.30
-31.46
-31.23
-31.51
-31.97
-32.16
-31.82
-30.94
-29.74
-28.56
-27.61
-26.89
-26.29
-25.58
-24.65
-23.53
-22.29
-21.06
-19.91
-18.89
-17.99
-17.27
-16.75
-16.44
-16.25
-16.08
-15.84
-15.56
-15.41
-15.60
-16.30
-17.51
-19.01
-20.50
-21.69
-22.48
-22.96
-23.37
-23.90
-24.56
-25.19
-25.54
-25.39
-24.72
-23.65
-22.39
-21.11
-19.87
-18.69
-17.55
-16.51
-15.62
-14.90
-14.25
-13.54
-12.62
-11.44
-10.04
-8.54
-7.02
-5.54
-4.09
-2.65
-1.24
0.09
1.30
2.29
2.92
2.99
2.27
0.62
-1.81
-4.64
-7.30
-9.26
-10.22
-10.19
-9.41
-8.21
-6.84
-5.40
-3.87
-2.28
-0.72
0.60
1.50
1.89
1.85
1.63
1.54
1.83
2.54
3.47
4.23
4.47
4.05
3.10
1.99
1.08
0.53
0.26
-0.02
-0.53
-1.39
-2.44
-3.47
-4.37
-5.20
-6.11
-7.23
-8.50
-9.66
-10.39
-10.53
-10.13
-9.47
-8.90
-8.64
-8.69
-8.84
-8.84
-8.50
-7.84
-7.07
-6.47
-6.20
-6.26
-6.43
-6.45
-6.18
-5.69
-5.27
-5.24
-5.75
-6.72
-7.83
-8.68
-9.00
-8.75
-8.12
-7.40
-6.87
-6.70
-6.93
-7.52
-8.42
-9.59
-10.98
-12.52
-14.10
-15.52
-16.59
-17.17
-17.22
-16.73
-15.71
-14.15
-12.00
-9.27
-6.09
-2.77
0.34
2.92
4.79
5.93
6.48
6.63
6.53
6.29
6.02
5.84
5.83
5.97
6.16
6.22
6.00
5.49
4.80
4.10
3.52
3.08
2.64
2.07
1.29
0.39
-0.50
-1.21
-1.71
-2.07
-2.39
-2.76
-3.14
-3.49
-3.83
-4.27
-4.97
-6.04
-7.40
-8.79
-9.83
-10.20
-9.78
-8.64
-7.11
-5.50
-4.14
-3.14
-2.52
-2.14
-1.81
-1.38
-0.81
-0.17
0.38
0.66
0.61
0.33
-0.02
-0.25
-0.31
-0.25
-0.16
-0.08
0.06
0.40
0.97
1.66
2.21
2.32
1.87
0.98
-0.06
-0.90
-1.32
-1.35
-1.20
-1.16
-1.42
-1.99
-2.69
-3.28
-3.59
-3.63
-3.52
-3.44
-3.48
-3.60
-3.63
-3.38
-2.72
-1.74
-0.65
0.24
0.70
0.70
0.39
0.06
0.01
0.35
0.98
1.69
2.27
2.62
2.82
2.96
3.09
3.07
2.72
1.92
0.72
-0.62
-1.73
-2.36
-2.47
-2.22
-1.88
-1.62
-1.46
-1.31
-1.04
-0.56
0.07
0.74
1.30
1.69
1.90
1.98
2.00
2.00
1.94
1.83
1.65
1.50
1.53
1.87
2.55
3.47
4.43
5.22
5.67
5.75
5.52
5.11
4.59
4.01
3.39
2.69
1.89
0.97
-0.06
-1.13
-2.15
-2.95
-3.46
-3.62
-3.56
-3.45
-3.43
-3.57
-3.82
-4.06
-4.19
-4.18
-4.02
-3.81
-3.58
-3.40
-3.30
-3.33
-3.51
-3.81
-4.15
-4.40
-4.52
-4.51
-4.49
-4.67
-5.13
-5.88
-6.79
-7.70
-8.53
-9.25
-9.87
-10.31
-10.44
-10.11
-9.26
-8.02
-6.65
-5.39
-4.34
-3.43
-2.49
-1.41
-0.21
0.92
1.75
2.08
1.87
1.20
0.20
-1.00
-2.21
-3.28
-4.09
-4.55
-4.63
-4.37
-3.75
-2.80
-1.54
-0.15
1.10
1.86
1.84
1.02
-0.31
-1.66
-2.54
-2.62
-1.88
-0.49
1.26
3.15
5.09
7.02
8.91
10.60
11.92
12.68
12.86
12.60
12.16
11.75
11.47
11.19
10.67
9.68
8.19
6.40
4.63
3.17
2.14
1.50
1.10
0.84
0.73
0.82
1.09
1.39
1.46
1.08
0.12
-1.30
-2.95
-4.55
-5.90
-6.93
-7.68
-8.27
-8.86
-9.60
-10.60
-11.91
-13.41
-14.87
-16.00
-16.56
-16.52
-16.00
-15.23
-14.39
-13.51
-12.51
-11.31
-9.95
-8.61
-7.46
-6.59
-5.88
-5.11
-4.06
-2.72
-1.28
-0.07
0.64
0.80
0.52
0.04
-0.43
-0.79
-1.06
-1.30
-1.51
-1.60
-1.45
-0.98
-0.28
0.38
0.75
0.62
0.03
-0.85
-1.71
-2.31
-2.54
-2.43
-2.15
-1.83
-1.62
-1.58
-1.68
-1.80
-1.75
-1.33
-0.43
0.87
2.36
3.71
4.63
4.99
4.84
4.38
3.87
3.54
3.46
3.60
3.79
3.91
3.89
3.76
3.59
3.40
3.19
2.87
2.38
1.75
1.05
0.46
0.03
-0.19
-0.29
-0.36
-0.46
-0.63
-0.83
-1.01
-1.14
-1.17
-1.13
-1.06
-1.04
-1.18
-1.53
-2.04
-2.56
-2.92
-2.96
-2.65
-2.07
-1.33
-0.53
0.24
0.97
1.62
2.12
2.45
2.59
2.66
2.81
3.19
3.81
4.50
4.98
5.00
4.52
3.69
2.86
2.29
2.11
2.17
2.26
2.13
1.76
1.27
0.79
0.40
0.01
-0.53
-1.35
-2.40
-3.51
-4.49
-5.20
-5.65
-5.91
-6.13
-6.34
-6.48
-6.42
-6.03
-5.32
-4.39
-3.45
-2.63
-2.03
-1.56
-1.09
-0.46
0.39
1.40
2.42
3.28
3.81
3.92
3.59
2.89
1.98
1.06
0.32
-0.05
-0.04
0.24
0.62
0.91
1.06
1.09
1.13
1.28
1.56
1.91
2.23
2.42
2.42
2.20
1.71
0.89
-0.32
-1.87
-3.55
-5.01
-5.85
-5.80
-4.84
-3.25
-1.52
-0.07
0.84
1.25
1.42
1.70
2.24
3.01
3.79
4.33
4.54
4.49
4.36
4.31
4.35
4.39
4.32
4.08
3.71
3.34
3.06
2.90
2.79
2.64
2.36
1.97
1.55
1.24
1.14
1.22
1.35
1.34
0.99
0.27
-0.68
-1.64
-2.37
-2.67
-2.57
-2.16
-1.58
-0.96
-0.36
0.23
0.78
1.31
1.82
2.28
2.65
2.92
3.09
3.23
3.38
3.57
3.74
3.84
3.78
3.58
3.35
3.20
3.19
3.23
3.12
2.68
1.82
0.57
-0.88
-2.28
-3.43
-4.16
-4.42
-4.21
-3.67
-3.01
-2.46
-2.17
-2.19
-2.41
-2.61
-2.55
-2.11
-1.27
-0.17
1.01
2.04
2.84
3.40
3.79
4.11
4.39
4.57
4.55
4.28
3.76
3.14
2.56
2.13
1.90
1.83
1.86
1.98
2.20
2.48
2.81
3.06
3.08
2.79
2.21
1.46
0.74
0.24
0.02
0.03
0.06
-0.12
-0.64
-1.56
-2.75
-4.05
-5.28
-6.36
-7.28
-8.01
-8.46
-8.44
-7.71
-6.14
-3.80
-0.95
1.94
4.45
6.26
7.31
7.74
7.81
7.75
7.73
7.73
7.64
7.27
6.45
5.15
3.44
1.52
-0.38
-2.09
-3.51
-4.63
-5.45
-6.03
-6.42
-6.75
-7.17
-7.83
-8.79
-9.97
-11.15
-12.03
-12.38
-12.12
-11.36
-10.36
-9.43
-8.87
-8.88
-9.59
-11.04
-13.20
-15.99
-19.23
-22.61
-25.73
-28.15
-29.56
-29.88
-29.33
-28.36
-27.46
-27.01
-27.17
-27.87
-28.95
-30.23
-31.52
-32.67
-33.49
-33.82
-33.69
-33.38
-33.50
-34.74
-37.69
-42.52
-48.91
-56.03
-62.79
-68.12
-71.22
-71.72
-69.75
-65.89
-60.93
-55.71
-50.83
-46.59
-42.95
-39.72
-36.69
-33.74
-30.87
-28.22
-25.96
-24.25
-23.20
-22.82
-22.95
-23.31
-23.64
-23.75
-23.70
-23.68
-23.91
-24.49
-25.39
-26.51
-27.89
-29.69
-32.21
-35.70
-40.24
-45.72
-51.85
-58.22
-64.35
-69.69
-73.53
-75.12
-73.89
-69.54
-62.32
-52.93
-42.37
-31.66
-21.54
-12.38
-4.11
3.53
10.83
17.83
24.28
29.74
33.80
36.37
37.77
38.71
40.06
42.52
46.36
51.33
56.79
61.88
65.78
67.91
68.01
66.16
62.86
58.87
55.21
52.81
52.10
52.75
53.65
53.34
50.69
45.58
39.17
33.48
30.61
31.92
37.57
46.68
57.85
69.64
80.89
90.70
98.55
104.34
108.54
112.18
116.52
122.52
130.36
139.33
148.20
155.72
161.14
164.29
165.39
164.72
162.50
158.94
154.28
148.92
143.21
137.34
131.17
124.30
116.26
106.77
95.88
84.03
71.88
60.09
49.14
39.20
30.19
21.89
14.12
6.85
0.21
-5.61
-10.52
-14.56
-17.92
-20.84
-23.47
-25.91
-28.15
-30.18
-32.02
-33.68
-35.14
-36.36
-37.28
-37.93
-38.46
-39.02
-39.76
-40.65
-41.57
-42.32
-42.80
-43.05
-43.19
-43.38
-43.68
-44.03
-44.26
-44.18
-43.57
-42.26
-40.17
-37.33
-33.86
-29.98
-25.92
-21.85
-17.88
-14.04
-10.44
-7.29
-4.88
-3.45
-3.06
-3.51
-4.42
-5.33
-5.90
-6.02
-5.84
-5.59
-5.52
-5.68
-5.94
-6.15
-6.12
-5.87
-5.56
-5.51
-6.00
-7.19
-8.97
-11.00
-12.81
-14.02
-14.43
-14.09
-13.25
-12.14
-10.91
-9.57
-8.03
-6.23
-4.26
-2.33
-0.73
0.37
0.95
1.14
1.13
1.15
1.30
1.60
1.99
2.40
2.74
3.00
3.23
3.48
3.80
4.19
4.59
4.92
5.16
5.32
5.39
5.29
4.84
3.88
2.32
0.29
-1.87
-3.70
-4.79
-4.90
-4.01
-2.33
-0.15
2.17
4.39
6.38
8.16
9.83
11.54
13.32
15.09
16.66
17.81
18.46
18.65
18.48
18.12
17.67
17.21
16.77
16.35
15.95
15.50
14.89
13.97
12.64
10.89
8.83
6.63
4.39
2.08
-0.44
-3.34
-6.68
-10.28
-13.76
-16.65
-18.55
-19.36
-19.31
-18.85
-18.56
-18.88
-19.99
-21.79
-24.03
-26.45
-28.97
-31.67
-34.77
-38.47
-42.83
-47.81
-53.26
-59.02
-64.89
-70.75
-76.53
-82.39
-88.71
-95.97
-104.55
-114.42
-124.96
-135.11
-143.81
-150.31
-154.38
-156.12
-155.59
-152.61
-146.82
-137.90
-125.78
-110.77
-93.39
-74.24
-53.92
-33.15
-12.85
5.92
22.10
34.99
44.31
50.26
53.27
53.72
51.98
48.40
43.48
37.88
32.34
27.42
23.35
20.05
17.16
14.32
11.34
8.32
5.59
3.54
2.53
2.74
4.21
6.72
9.88
13.12
15.79
17.37
17.80
17.68
18.14
20.51
25.73
33.91
44.23
55.22
65.30
73.23
78.43
80.87
80.89
78.89
75.33
70.72
65.60
60.54
56.01
52.19
49.01
46.19
43.54
41.03
38.85
37.23
36.33
36.00
35.92
35.57
34.52
32.51
29.51
25.68
21.29
16.57
11.71
6.90
2.33
-1.62
-4.44
-5.52
-4.41
-1.11
3.90
9.70
15.23
19.67
22.61
24.01
24.03
22.80
20.38
16.85
12.49
7.87
3.75
0.85
-0.40
-0.06
1.46
3.51
5.49
7.03
8.02
8.53
8.65
8.43
7.90
7.03
5.83
4.34
2.58
0.60
-1.58
-3.90
-6.31
-8.77
-11.22
-13.52
-15.45
-16.72
-17.03
-16.21
-14.37
-11.84
-9.12
-6.60
-4.45
-2.59
-0.86
0.80
2.30
3.42
3.98
3.97
3.63
3.29
3.21
3.51
4.10
4.79
5.43
5.90
6.21
6.37
6.40
6.25
5.84
5.09
3.97
2.56
0.98
-0.61
-2.11
-3.57
-5.16
-7.10
-9.52
-12.30
-15.05
-17.22
-18.28
-18.02
-16.54
-14.19
-11.42
-8.58
-5.81
-3.11
-0.46
2.05
4.22
5.79
6.58
6.58
6.02
5.25
4.65
4.41
4.53
4.82
5.04
5.02
4.75
4.29
3.73
3.07
2.25
1.25
0.14
-0.91
-1.66
-2.04
-2.13
-2.21
-2.65
-3.77
-5.72
-8.47
-11.81
-15.31
-18.45
-20.64
-21.37
-20.40
-17.87
-14.23
-10.11
-6.12
-2.63
0.29
2.74
4.84
6.64
8.00
8.74
8.78
8.16
7.15
6.11
5.37
5.06
5.09
5.20
5.13
4.70
3.85
2.71
1.42
0.15
-1.02
-2.04
-2.97
-3.88
-4.90
-6.15
-7.66
-9.42
-11.36
-13.46
-15.72
-18.10
-20.37
-22.06
-22.57
-21.32
-18.10
-13.16
-7.11
-0.71
5.49
11.23
16.60
21.74
26.79
31.70
36.40
40.82
45.01
49.03
52.80
56.03
58.19
58.73
57.35
54.15
49.68
44.74
40.05
36.11
33.10
30.95
29.47
28.30
26.90
24.49
20.20
13.42
4.14
-6.84
-18.05
-27.83
-34.96
-39.00
-40.36
-39.90
-38.44
-36.45
-33.99
-30.93
-27.30
-23.37
-19.63
-16.53
-14.27
-12.73
-11.64
-10.73
-9.89
-9.18
-8.74
-8.59
-8.65
-8.72
-8.63
-8.35
-8.03
-7.90
-8.14
-8.74
-9.52
-10.21
-10.61
-10.66
-10.54
-10.55
-10.98
-11.98
-13.45
-15.04
-16.32
-16.81
-16.19
-14.39
-11.57
-8.12
-4.51
-1.16
1.61
3.67
5.04
5.81
6.18
6.31
6.41
6.60
6.97
7.55
8.20
8.72
8.88
8.51
7.61
6.35
5.03
3.88
2.99
2.24
1.38
0.19
-1.39
-3.21
-5.08
-6.87
-8.62
-10.47
-12.53
-14.69
-16.63
-17.92
-18.23
-17.41
-15.61
-13.16
-10.41
-7.63
-5.00
-2.57
-0.39
1.53
3.10
4.25
4.90
5.07
4.88
4.55
4.31
4.33
4.63
5.12
5.63
6.03
6.25
6.32
6.31
6.24
6.04
5.63
4.91
3.85
2.48
0.89
-0.84
-2.66
-4.52
-6.37
-8.04
-9.31
-9.93
-9.74
-8.74
-7.06
-4.98
-2.74
-0.58
1.37
3.03
4.33
5.22
5.65
5.59
5.06
4.16
3.02
1.82
0.75
0.03
-0.15
0.32
1.41
2.98
4.71
6.27
7.33
7.66
7.21
6.08
4.45
2.58
0.61
-1.36
-3.32
-5.28
-7.13
-8.73
-9.87
-10.39
-10.18
-9.35
-8.12
-6.78
-5.63
-4.86
-4.59
-4.70
-5.05
-5.40
-5.62
-5.62
-5.48
-5.28
-5.10
-4.91
-4.60
-4.10
-3.37
-2.57
-1.91
-1.63
-1.86
-2.61
-3.77
-5.18
-6.78
-8.50
-10.31
-12.17
-14.00
-15.76
-17.39
-18.89
-20.18
-21.13
-21.48
-20.99
-19.59
-17.39
-14.74
-12.01
-9.48
-7.23
-5.25
-3.51
-2.16
-1.44
-1.59
-2.74
-4.73
-7.30
-10.09
-12.90
-15.64
-18.30
-20.85
-23.21
-25.36
-27.32
-29.16
-30.79
-31.99
-32.42
-31.84
-30.33
-28.25
-26.13
-24.31
-22.84
-21.54
-20.23
-18.97
-18.21
-18.45
-19.90
-22.19
-24.43
-25.46
-24.41
-20.94
-15.38
-8.54
-1.38
5.36
11.27
16.36
20.92
25.45
30.35
35.89
42.09
48.71
55.37
61.64
67.12
71.41
74.10
74.71
72.86
68.38
61.58
53.23
44.47
36.44
29.94
25.24
22.05
19.85
18.12
16.48
14.76
12.94
11.04
9.14
7.39
6.02
5.33
5.55
6.77
8.81
11.32
13.86
16.08
17.78
18.93
19.60
19.84
19.75
19.38
18.87
18.39
18.10
18.15
18.56
19.27
20.11
20.83
21.20
21.08
20.46
19.47
18.34
17.29
16.40
15.53
14.47
13.01
11.09
8.84
6.42
3.97
1.49
-1.08
-3.77
-6.47
-8.95
-10.91
-12.09
-12.33
-11.62
-10.06
-7.85
-5.29
-2.72
-0.47
1.23
2.28
2.77
2.85
2.66
2.31
1.84
1.37
1.08
1.15
1.63
2.41
3.19
3.63
3.51
2.85
1.86
0.84
-0.04
-0.79
-1.60
-2.79
-4.59
-7.09
-10.15
-13.37
-16.24
-18.25
-19.03
-18.52
-16.88
-14.48
-11.70
-8.86
-6.13
-3.57
-1.22
1.01
3.19
5.43
7.81
10.27
12.60
14.48
15.57
15.73
15.04
13.78
12.29
10.80
9.38
7.99
6.54
4.99
3.37
1.72
0.10
-1.51
-3.17
-4.89
-6.68
-8.53
-10.38
-12.11
-13.56
-14.45
-14.52
-13.58
-11.67
-9.09
-6.34
-3.94
-2.21
-1.21
-0.75
-0.55
-0.43
-0.41
-0.64
-1.35
-2.68
-4.58
-6.87
-9.31
-11.70
-13.89
-15.89
-17.82
-19.90
-22.34
-25.33
-28.94
-33.16
-37.89
-43.00
-48.29
-53.54
-58.53
-63.11
-67.27
-71.17
-75.03
-79.03
-83.24
-87.53
-91.66
-95.25
-97.93
-99.26
-98.85
-96.43
-91.97
-85.72
-78.22
-70.12
-62.06
-54.56
-47.91
-42.24
-37.49
-33.54
-30.27
-27.67
-25.92
-25.43
-26.68
-30.04
-35.54
-42.79
-51.14
-59.81
-68.27
-76.38
-84.39
-92.80
-102.13
-112.63
-124.11
-135.88
-146.95
-156.20
-162.67
-165.66
-164.85
-160.27
-152.20
-141.02
-126.96
-110.12
-90.45
-67.98
-42.99
-16.14
11.57
39.05
65.29
89.49
111.12
129.73
144.90
156.27
163.63
167.09
167.11
164.38
159.61
153.36
145.84
137.07
126.93
115.35
102.50
88.79
74.93
61.84
50.60
42.25
37.58
36.90
39.91
45.77
53.40
61.83
70.50
79.29
88.25
97.21
105.46
111.85
115.10
114.54
110.37
103.66
95.98
88.74
82.74
78.18
74.84
72.43
70.81
69.91
69.56
69.39
68.87
67.49
65.05
61.64
57.65
53.52
49.60
46.10
43.06
40.40
37.99
35.66
33.31
30.85
28.31
25.77
23.36
21.19
19.30
17.69
16.23
14.77
13.16
11.35
9.46
7.78
6.75
6.71
7.79
9.78
12.26
14.77
17.05
19.12
21.15
23.29
25.45
27.31
28.42
28.41
27.16
24.78
21.58
17.86
13.80
9.39
4.45
-1.35
-8.41
-17.09
-27.61
-39.96
-53.85
-68.58
-83.21
-96.52
-107.22
-114.20
-116.79
-114.95
-109.32
-101.09
-91.67
-82.41
-74.25
-67.67
-62.73
-59.26
-57.05
-55.90
-55.62
-55.85
-56.08
-55.70
-54.19
-51.33
-47.31
-42.69
-38.19
-34.42
-31.67
-29.72
-27.91
-25.27
-20.83
-13.84
-4.04
8.31
22.45
37.37
51.96
65.24
76.40
84.93
90.50
93.17
93.33
91.71
89.24
86.82
85.11
84.30
84.25
84.46
84.37
83.50
81.58
78.61
74.86
70.76
66.75
63.18
60.21
57.79
55.71
53.73
51.64
49.33
46.74
43.81
40.44
36.50
31.84
26.45
20.46
14.18
8.08
2.64
-1.78
-5.00
-7.09
-8.30
-8.93
-9.27
-9.47
-9.64
-9.85
-10.13
-10.41
-10.60
-10.50
-9.94
-8.85
-7.30
-5.49
-3.56
-1.59
0.48
2.72
5.10
7.47
9.66
11.49
12.95
14.13
15.14
16.02
16.72
17.14
17.24
17.08
16.81
16.57
16.42
16.29
16.02
15.46
14.54
13.38
12.23
11.42
11.30
12.09
13.79
16.21
18.99
21.71
24.05
25.84
27.13
28.13
29.04
29.97
30.86
31.55
31.79
31.41
30.36
28.71
26.59
24.14
21.51
18.85
16.33
14.07
12.12
10.38
8.65
6.67
4.27
1.42
-1.82
-5.32
-8.97
-12.65
-16.32
-19.94
-23.46
-26.88
-30.20
-33.40
-36.40
-39.04
-41.07
-42.27
-42.49
-41.73
-40.12
-37.88
-35.29
-32.58
-29.92
-27.45
-25.21
-23.24
-21.56
-20.17
-19.07
-18.30
-17.79
-17.48
-17.27
-17.09
-16.94
-16.78
-16.61
-16.38
-16.05
-15.56
-14.94
-14.28
-13.73
-13.44
-13.50
-13.87
-14.41
-14.96
-15.37
-15.56
-15.61
-15.60
-15.71
-16.08
-16.79
-17.84
-19.11
-20.39
-21.43
-21.95
-21.75
-20.78
-19.15
-17.10
-14.91
-12.78
-10.79
-8.92
-7.09
-5.31
-3.62
-2.09
-0.81
0.19
0.94
1.45
1.80
2.03
2.20
2.40
2.68
3.07
3.52
3.88
4.00
3.73
3.00
1.84
0.35
-1.33
-3.04
-4.65
-6.10
-7.41
-8.66
-9.97
-11.43
-13.05
-14.74
-16.29
-17.45
-17.97
-17.71
-16.59
-14.74
-12.40
-9.88
-7.51
-5.54
-4.10
-3.19
-2.69
-2.48
-2.44
-2.54
-2.80
-3.29
-4.05
-5.06
-6.26
-7.49
-8.60
-9.45
-9.96
-10.10
-9.93
-9.52
-8.98
-8.44
-8.02
-7.84
-7.99
-8.53
-9.43
-10.62
-11.96
-13.31
-14.54
-15.60
-16.48
-17.29
-18.10
-18.98
-19.83
-20.47
-20.66
-20.21
-19.10
-17.43
-15.44
-13.36
-11.41
-9.70
-8.25
-7.04
-6.02
-5.11
-4.31
-3.60
-3.01
-2.55
-2.22
-1.98
-1.79
-1.62
-1.46
-1.32
-1.23
-1.16
-1.16
-1.27
-1.58
-2.20
-3.15
-4.38
-5.74
-7.07
-8.23
-9.22
-10.10
-11.00
-11.99
-13.09
-14.24
-15.38
-16.45
-17.39
-18.13
-18.57
-18.56
-18.00
-16.89
-15.37
-13.66
-11.98
-10.42
-8.94
-7.45
-5.95
-4.55
-3.52
-3.09
-3.30
-3.94
-4.64
-5.01
-4.88
-4.29
-3.49
-2.73
-2.16
-1.77
-1.50
-1.32
-1.25
-1.45
-2.04
-3.03
-4.31
-5.69
-6.99
-8.12
-9.07
-9.90
-10.61
-11.17
-11.47
-11.44
-11.10
-10.60
-10.17
-10.04
-10.27
-10.71
-11.01
-10.73
-9.47
-7.03
-3.41
1.17
6.34
11.65
16.63
20.91
24.22
26.52
27.93
28.79
29.44
30.16
31.11
32.25
33.41
34.34
34.84
34.78
34.12
32.90
31.27
29.31
27.13
24.78
22.26
19.57
16.74
13.84
10.96
8.25
5.82
3.75
2.08
0.75
-0.34
-1.27
-2.12
-2.85
-3.37
-3.56
-3.31
-2.60
-1.50
-0.24
0.95
1.79
2.10
1.83
1.10
0.11
-0.90
-1.72
-2.31
-2.68
-2.96
-3.28
-3.72
-4.28
-4.91
-5.55
-6.08
-6.43
-6.55
-6.44
-6.14
-5.67
-5.11
-4.52
-3.97
-3.53
-3.20
-2.95
-2.70
-2.43
-2.24
-2.32
-2.94
-4.22
-6.08
-8.25
-10.28
-11.80
-12.58
-12.62
-12.02
-10.97
-9.62
-8.10
-6.52
-4.96
-3.45
-2.00
-0.59
0.78
2.09
3.31
4.40
5.33
6.16
6.94
7.75
8.64
9.63
10.69
11.77
12.74
13.48
13.90
13.93
13.55
12.81
11.75
10.46
9.00
7.44
5.81
4.11
2.29
0.32
-1.74
-3.76
-5.49
-6.67
-7.10
-6.69
-5.56
-3.93
-2.11
-0.41
0.95
1.88
2.37
2.53
2.43
2.15
1.70
1.12
0.44
-0.22
-0.70
-0.89
-0.74
-0.31
0.21
0.64
0.82
0.73
0.43
0.05
-0.32
-0.67
-1.07
-1.68
-2.61
-3.96
-5.73
-7.82
-10.06
-12.25
-14.15
-15.55
-16.30
-16.30
-15.57
-14.19
-12.35
-10.24
-8.06
-5.97
-4.03
-2.28
-0.72
0.62
1.67
2.38
2.65
2.47
1.86
0.94
-0.20
-1.44
-2.72
-3.97
-5.10
-6.09
-6.94
-7.79
-8.85
-10.38
-12.51
-15.17
-18.09
-20.90
-23.31
-25.20
-26.65
-27.78
-28.72
-29.44
-29.85
-29.84
-29.37
-28.51
-27.34
-25.96
-24.43
-22.82
-21.25
-19.90
-18.95
-18.49
-18.47
-18.72
-19.02
-19.17
-19.08
-18.85
-18.63
-18.65
-19.03
-19.80
-20.93
-22.34
-24.04
-26.03
-28.41
-31.18
-34.29
-37.61
-40.93
-44.03
-46.66
-48.60
-49.57
-49.31
-47.62
-44.40
-39.65
-33.52
-26.22
-18.03
-9.31
-0.46
8.03
15.62
21.83
26.29
28.85
29.63
28.92
27.18
24.89
22.48
20.24
18.25
16.34
14.17
11.34
7.56
2.90
-2.32
-7.50
-12.03
-15.50
-17.82
-19.25
-20.30
-21.56
-23.59
-26.73
-30.98
-35.86
-40.37
-43.19
-42.95
-38.71
-30.29
-18.35
-4.23
10.52
24.60
37.26
48.29
57.83
66.01
72.75
77.70
80.42
80.68
78.53
74.39
68.92
62.84
56.72
50.89
45.45
40.31
35.34
30.37
25.32
20.20
15.08
10.04
5.13
0.33
-4.44
-9.39
-14.76
-20.85
-27.80
-35.39
-42.98
-49.41
-53.34
-53.56
-49.51
-41.47
-30.50
-18.18
-6.12
4.50
13.07
19.56
24.29
27.69
30.17
32.03
33.42
34.43
35.13
35.48
35.46
34.93
33.85
32.21
30.18
28.03
26.04
24.39
23.04
21.74
20.18
18.15
15.67
12.96
10.40
8.29
6.73
5.47
4.06
1.94
-1.35
-6.02
-11.88
-18.30
-24.29
-28.68
-30.45
-28.97
-24.23
-16.86
-7.95
1.25
9.64
16.53
21.77
25.60
28.56
31.20
33.91
36.83
39.81
42.61
45.00
46.96
48.65
50.39
52.47
55.08
58.26
61.92
65.95
70.19
74.45
78.44
81.77
83.94
84.48
83.05
79.55
74.12
67.08
58.86
49.91
40.62
31.34
22.41
14.22
7.17
1.69
-1.90
-3.50
-3.35
-1.99
-0.12
1.65
2.91
3.58
3.82
3.88
3.91
3.92
3.82
3.59
3.31
3.23
3.57
4.36
5.43
6.41
6.95
6.84
6.11
4.93
3.48
1.88
0.13
-1.78
-3.80
-5.83
-7.76
-9.63
-11.56
-13.73
-16.21
-18.88
-21.41
-23.42
-24.59
-24.83
-24.28
-23.18
-21.83
-20.44
-19.13
-17.93
-16.86
-15.94
-15.22
-14.75
-14.50
-14.39
-14.33
-14.24
-14.16
-14.18
-14.41
-14.91
-15.58
-16.22
-16.63
-16.66
-16.33
-15.82
-15.36
-15.14
-15.18
-15.39
-15.60
-15.69
-15.72
-15.88
-16.42
-17.51
-19.08
-20.83
-22.30
-23.09
-22.97
-21.97
-20.31
-18.27
-16.11
-13.95
-11.89
-9.99
-8.34
-7.01
-5.99
-5.28
-4.81
-4.53
-4.44
-4.51
-4.69
-4.85
-4.85
-4.61
-4.13
-3.55
-3.03
-2.73
-2.71
-2.94
-3.37
-3.92
-4.56
-5.25
-5.96
-6.66
-7.38
-8.18
-9.20
-10.56
-12.29
-14.31
-16.39
-18.20
-19.41
-19.83
-19.41
-18.26
-16.60
-14.65
-12.65
-10.78
-9.16
-7.89
-7.00
-6.40
-5.99
-5.62
-5.15
-4.61
-4.12
-3.82
-3.92
-4.43
-5.29
-6.32
-7.32
-8.20
-9.00
-9.89
-11.07
-12.66
-14.63
-16.82
-19.05
-21.22
-23.38
-25.72
-28.41
-31.50
-34.85
-38.22
-41.38
-44.17
-46.54
-48.51
-50.14
-51.44
-52.45
-53.26
-54.04
-55.00
-56.34
-58.15
-60.36
-62.82
-65.33
-67.76
-70.08
-72.26
-74.31
-76.18
-77.70
-78.65
-78.79
-77.93
-76.01
-73.12
-69.48
-65.48
-61.57
-58.26
-55.97
-54.90
-54.91
-55.54
-56.20
-56.37
-56.00
-55.54
-55.81
-57.59
-61.18
-66.06
-70.89
-73.85
-73.19
-67.83
-57.70
-43.64
-27.21
-10.17
5.88
19.87
31.24
39.87
45.90
49.55
51.05
50.67
48.80
45.95
42.71
39.57
36.87
34.71
33.00
31.52
30.05
28.39
26.32
23.61
19.99
15.31
9.55
2.80
-4.70
-12.75
-21.17
-29.88
-38.83
-47.91
-56.83
-64.90
-71.08
-73.97
-72.24
-65.07
-52.59
-36.00
-17.34
1.09
17.40
30.49
40.14
46.69
50.64
52.45
52.42
50.83
48.06
44.62
41.04
37.78
35.10
33.14
31.99
31.71
32.40
33.99
36.24
38.62
40.48
41.17
40.30
37.86
34.15
29.71
25.08
20.62
16.37
12.03
7.07
0.98
-6.42
-14.63
-22.36
-27.72
-28.78
-24.30
-14.27
-0.14
15.62
30.37
42.10
49.95
54.20
55.72
55.46
54.02
51.60
48.34
44.50
40.65
37.42
35.27
34.26
34.02
33.91
33.26
31.67
29.07
25.72
22.05
18.45
15.06
11.68
7.92
3.18
-2.94
-10.61
-19.57
-29.05
-37.82
-44.34
-46.97
-44.44
-36.24
-22.86
-5.80
12.90
31.10
47.12
59.94
69.20
75.04
77.91
78.53
77.81
76.76
76.25
76.88
78.86
82.04
86.03
90.40
94.75
98.74
102.10
104.71
106.54
107.71
108.48
109.05
109.47
109.61
109.07
107.36
104.04
98.81
91.64
82.82
72.98
62.94
53.60
45.65
39.44
34.88
31.52
28.74
25.95
22.76
18.97
14.48
9.24
3.22
-3.52
-10.77
-18.18
-25.37
-31.97
-37.70
-42.29
-45.60
-47.65
-48.82
-49.85
-51.52
-54.37
-58.27
-62.47
-65.97
-68.07
-68.84
-69.03
-69.70
-71.61
-74.86
-78.92
-82.84
-85.63
-86.39
-84.42
-79.20
-70.51
-58.72
-44.75
-30.08
-16.24
-4.48
4.53
10.67
14.16
15.34
14.50
12.03
8.48
4.57
1.08
-1.37
-2.45
-2.13
-0.56
2.04
5.48
9.45
13.43
16.61
18.00
16.79
12.62
5.90
-2.31
-10.45
-16.94
-20.60
-20.97
-18.29
-13.33
-7.02
-0.13
6.88
13.77
20.33
26.23
31.08
34.49
36.33
36.70
35.90
34.29
32.15
29.63
26.86
23.99
21.26
18.95
17.30
16.45
16.39
16.99
18.05
19.32
20.51
21.27
21.21
19.95
17.09
12.43
6.07
-1.35
-8.61
-14.07
-16.09
-13.50
-6.05
5.48
19.53
34.16
47.60
58.65
66.73
71.89
74.55
75.32
74.77
73.33
71.25
68.61
65.41
61.65
57.36
52.60
47.41
41.81
35.78
29.38
22.81
16.36
10.23
4.49
-1.07
-6.83
-13.19
-20.44
-28.58
-37.31
-46.05
-54.12
-60.76
-65.28
-67.16
-66.12
-62.24
-55.96
-48.08
-39.55
-31.28
-23.92
-17.83
-13.04
-9.50
-7.08
-5.69
-5.20
-5.35
-5.77
-6.03
-5.82
-5.13
-4.26
-3.77
-4.17
-5.79
-8.54
-12.00
-15.55
-18.64
-21.05
-22.83
-24.34
-25.93
-27.85
-30.16
-32.66
-35.03
-36.86
-37.71
-37.16
-34.97
-31.12
-25.86
-19.62
-13.00
-6.47
-0.42
4.91
9.32
12.59
14.48
14.80
13.57
11.01
7.56
3.71
-0.17
-3.84
-7.31
-10.66
-14.03
-17.54
-21.18
-24.75
-27.78
-29.65
-29.78
-27.95
-24.59
-20.89
-18.51
-19.07
-23.50
-31.59
-41.87
-51.97
-59.15
-61.05
-56.16
-44.16
-25.91
-3.25
21.41
45.50
66.74
83.55
95.26
102.22
105.66
107.39
109.25
112.65
118.18
125.65
134.28
143.05
151.15
158.12
163.93
168.89
173.41
177.71
181.59
184.35
184.97
182.47
176.30
166.53
153.76
138.79
122.28
104.57
85.88
66.53
47.31
29.43
14.19
2.57
-5.16
-9.49
-11.49
-12.31
-12.72
-12.80
-11.97
-9.32
-4.12
3.61
12.84
21.74
28.17
30.40
27.72
20.60
10.43
-1.06
-12.45
-23.10
-33.30
-44.15
-57.12
-73.47
-93.62
-116.65
-140.14
-160.60
-174.35
-178.77
-173.30
-159.82
-142.12
-124.56
-110.76
-102.64
-100.24
-102.35
-107.26
-113.34
-119.23
-123.76
-125.79
-124.34
-118.91
-109.91
-98.57
-86.72
-76.13
-67.88
-62.10
-58.03
-54.48
-50.39
-45.26
-39.33
-33.39
-28.31
-24.63
-22.25
-20.51
-18.59
-15.99
-12.75
-9.49
-6.98
-5.82
-6.16
-7.76
-10.23
-13.22
-16.46
-19.60
-22.13
-23.48
-23.40
-22.26
-21.09
-21.17
-23.36
-27.48
-32.27
-35.92
-36.89
-34.65
-29.85
-23.98
-18.63
-14.91
-13.09
-12.72
-13.07
-13.39
-13.17
-12.10
-10.03
-6.99
-3.16
0.99
4.72
7.19
7.66
5.86
2.11
-2.70
-7.35
-10.67
-11.90
-10.85
-7.95
-4.07
-0.34
2.17
2.68
0.94
-2.68
-7.30
-11.74
-14.86
-15.87
-14.45
-10.82
-5.65
0.15
5.69
10.35
13.96
16.78
19.34
22.20
25.65
29.71
34.16
38.72
43.05
46.86
49.77
51.39
51.39
49.73
46.82
43.44
40.56
38.92
38.75
39.65
40.81
41.29
40.48
38.35
35.53
33.14
32.39
34.00
37.75
42.14
44.69
42.55
33.55
17.02
-5.69
-31.49
-56.51
-77.12
-90.91
-97.18
-97.03
-92.96
-87.95
-84.36
-82.85
-82.14
-79.56
-72.51
-59.94
-43.05
-24.79
-8.36
4.33
13.32
20.13
26.37
32.61
38.11
41.57
42.28
40.73
38.34
36.65
36.38
37.20
37.95
37.44
35.08
31.23
27.00
23.69
22.30
23.00
25.25
27.98
30.11
31.00
30.57
29.35
28.04
27.24
27.12
27.43
27.69
27.43
26.30
24.17
21.05
16.98
12.15
6.90
1.70
-2.93
-6.69
-9.65
-12.23
-14.97
-18.31
-22.52
-27.81
-34.51
-42.97
-53.23
-64.61
-75.70
-84.62
-89.81
-90.74
-88.08
-83.37
-78.29
-73.99
-70.88
-68.86
-67.77
-67.57
-68.32
-69.88
-71.84
-73.65
-74.96
-75.82
-76.63
-77.83
-79.63
-81.80
-83.75
-84.94
-85.06
-84.26
-83.02
-82.01
-81.90
-83.22
-86.24
-90.79
-96.12
-100.80
-102.99
-100.89
-93.34
-80.36
-63.15
-43.77
-24.44
-6.97
7.68
19.28
28.13
34.70
39.42
42.63
44.65
45.79
46.30
46.31
45.78
44.53
42.42
39.43
35.79
31.88
28.10
24.65
21.46
18.19
14.31
9.31
2.81
-5.15
-14.04
-22.78
-29.97
-34.24
-34.63
-30.95
-23.84
-14.59
-4.69
4.53
12.21
18.11
22.45
25.60
27.77
28.92
28.84
27.59
25.73
24.34
24.65
27.41
32.58
39.43
47.12
55.31
64.54
75.72
89.34
104.65
119.36
130.27
134.33
129.92
117.53
99.77
80.65
64.36
54.19
51.70
56.67
67.52
82.02
97.93
113.29
126.47
136.25
142.10
144.47
144.99
145.98
149.53
156.32
165.02
172.56
175.21
170.05
155.94
133.79
105.88
74.84
42.88
11.50
-18.31
-45.71
-69.88
-90.19
-106.44
-119.09
-129.09
-137.43
-144.58
-150.29
-153.68
-153.78
-150.12
-143.12
-133.98
-124.34
-115.63
-108.75
-103.90
-100.59
-97.93
-94.84
-90.38
-84.10
-76.43
-68.65
-62.60
-59.91
-60.97
-64.47
-67.56
-66.87
-60.09
-47.14
-30.50
-14.26
-2.45
2.59
1.01
-4.91
-12.00
-17.52
-20.05
-19.51
-16.66
-12.51
-8.03
-4.19
-2.10
-2.92
-7.37
-15.21
-24.89
-33.86
-39.32
-39.24
-33.12
-22.15
-8.62
4.88
16.47
25.36
31.82
36.69
40.80
44.65
48.25
51.43
54.01
55.96
57.42
58.58
59.55
60.37
61.02
61.41
61.50
61.27
60.71
59.87
58.85
57.70
56.44
54.96
53.11
50.65
47.36
43.13
37.93
31.90
25.36
18.91
13.29
9.38
7.88
9.10
12.77
18.11
24.02
29.43
33.62
36.33
37.73
38.15
37.92
37.22
36.13
34.67
32.94
31.13
29.42
27.93
26.65
25.38
23.93
22.13
19.98
17.57
15.09
12.70
10.52
8.53
6.65
4.74
2.65
0.26
-2.55
-5.86
-9.66
-13.79
-17.82
-21.12
-22.92
-22.60
-19.91
-15.15
-9.08
-2.71
3.03
7.60
10.85
12.95
14.16
14.67
14.52
13.72
12.32
10.50
8.63
7.08
6.11
5.75
5.77
5.77
5.45
4.69
3.63
2.51
1.54
0.75
-0.02
-0.99
-2.39
-4.30
-6.75
-9.71
-13.09
-16.64
-19.93
-22.35
-23.30
-22.39
-19.63
-15.41
-10.42
-5.37
-0.82
2.90
5.72
7.70
8.96
9.61
9.74
9.38
8.61
7.53
6.28
5.04
3.97
3.16
2.58
2.10
1.57
0.84
-0.14
-1.33
-2.64
-3.94
-5.15
-6.30
-7.53
-9.08
-11.23
-14.13
-17.76
-21.80
-25.64
-28.51
-29.73
-28.86
-25.95
-21.48
-16.22
-10.94
-6.26
-2.45
0.44
2.55
4.00
4.85
5.12
4.88
4.26
3.53
2.92
2.60
2.59
2.72
2.72
2.31
1.36
-0.08
-1.78
-3.45
-4.86
-5.96
-6.93
-8.07
-9.66
-11.94
-14.95
-18.59
-22.61
-26.61
-30.11
-32.51
-33.28
-32.06
-28.80
-23.82
-17.74
-11.28
-5.11
0.33
4.85
8.42
11.11
13.02
14.23
14.85
15.01
14.86
14.53
14.08
13.52
12.74
11.66
10.23
8.49
6.56
4.58
2.68
0.90
-0.81
-2.57
-4.50
-6.77
-9.55
-12.94
-16.96
-21.35
-25.55
-28.84
-30.46
-29.94
-27.23
-22.71
-17.02
-10.87
-4.78
0.94
6.10
10.56
14.15
16.70
18.12
18.49
17.96
16.75
15.12
13.33
11.61
10.16
9.09
8.41
7.95
7.44
6.55
5.06
2.91
0.25
-2.69
-5.67
-8.57
-11.45
-14.51
-18.05
-22.24
-27.04
-32.11
-36.75
-40.12
-41.39
-40.10
-36.17
-30.03
-22.44
-14.31
-6.51
0.35
5.95
10.25
13.41
15.64
17.09
17.81
17.87
17.35
16.46
15.45
14.53
13.81
13.20
12.55
11.68
10.52
9.11
7.54
5.87
4.04
1.93
-0.59
-3.60
-7.11
-11.11
-15.58
-20.52
-25.82
-31.12
-35.82
-39.08
-40.14
-38.47
-34.08
-27.50
-19.58
-11.29
-3.43
3.47
9.21
13.78
17.25
19.71
21.21
21.88
21.85
21.31
20.47
19.51
18.55
17.59
16.58
15.42
14.03
12.38
10.47
8.30
5.87
3.14
0.15
-3.03
-6.26
-9.46
-12.65
-15.99
-19.75
-24.19
-29.34
-34.95
-40.41
-44.81
-47.16
-46.64
-42.85
-36.01
-26.93
-16.84
-7.01
1.54
8.35
13.45
17.23
20.15
22.51
24.37
25.68
26.34
26.40
26.05
25.55
25.10
24.80
24.57
24.19
23.42
22.11
20.20
17.85
15.24
12.56
9.91
7.26
4.49
1.49
-1.88
-5.66
-9.92
-14.69
-19.87
-25.13
-29.91
-33.34
-34.57
-32.97
-28.47
-21.60
-13.39
-5.06
2.45
8.59
13.33
16.93
19.68
21.71
22.96
23.34
22.82
21.65
20.21
18.90
17.98
17.44
17.12
16.75
16.10
15.04
13.54
11.62
9.35
6.77
3.98
1.04
-2.03
-5.30
-8.88
-12.99
-17.73
-23.04
-28.58
-33.63
-37.28
-38.58
-36.86
-32.00
-24.55
-15.57
-6.34
2.01
8.79
13.84
17.43
19.94
21.74
23.00
23.72
23.88
23.49
22.68
21.70
20.81
20.18
19.86
19.74
19.64
19.33
18.65
17.47
15.73
13.41
10.52
7.15
3.43
-0.45
-4.40
-8.46
-12.83
-17.77
-23.42
-29.61
-35.70
-40.75
-43.64
-43.52
-40.02
-33.45
-24.67
-14.93
-5.45
2.79
9.29
14.10
17.56
20.15
22.26
24.05
25.42
26.18
26.21
25.56
24.47
23.25
22.08
20.99
19.79
18.27
16.33
14.04
11.57
9.07
6.55
3.92
1.00
-2.29
-5.96
-9.97
-14.35
-19.25
-24.84
-31.09
-37.57
-43.41
-47.41
-48.42
-45.74
-39.43
-30.36
-19.90
-9.50
-0.35
6.98
12.49
16.59
19.77
22.36
24.41
25.75
26.21
25.76
24.62
23.14
21.70
20.51
19.61
18.86
18.09
17.20
16.15
14.93
13.48
11.67
9.42
6.70
3.61
0.26
-3.31
-7.21
-11.64
-16.82
-22.68
-28.74
-34.11
-37.60
-38.16
-35.17
-28.82
-20.01
-10.18
-0.81
6.99
12.75
16.59
19.00
20.55
21.57
22.13
22.11
21.45
20.26
18.85
17.61
16.80
16.39
16.12
15.62
14.62
13.08
11.17
9.14
7.10
5.01
2.64
-0.26
-3.86
-8.15
-13.06
-18.48
-24.34
-30.44
-36.34
-41.28
-44.23
-44.18
-40.59
-33.62
-24.21
-13.83
-3.93
4.43
10.83
15.42
18.61
20.82
22.28
23.08
23.26
22.90
22.19
21.33
20.53
19.88
19.41
19.00
18.50
17.72
16.54
14.87
12.77
10.31
7.59
4.71
1.66
-1.60
-5.17
-9.24
-14.00
-19.63
-26.12
-33.14
-39.94
-45.42
-48.36
-47.82
-43.52
-35.95
-26.23
-15.81
-5.94
2.57
9.45
14.84
19.01
22.22
24.63
26.36
27.52
28.22
28.55
28.55
28.19
27.41
26.24
24.81
23.33
22.01
20.90
19.90
18.65
16.77
13.97
10.20
5.72
0.91
-3.86
-8.37
-12.64
-16.93
-21.57
-26.84
-32.83
-39.20
-45.21
-49.73
-51.58
-49.86
-44.32
-35.56
-24.81
-13.63
-3.34
5.26
12.02
17.19
21.17
24.29
26.74
28.56
29.81
30.55
30.85
30.71
30.13
29.08
27.63
25.93
24.21
22.64
21.27
19.98
18.56
16.73
14.27
11.09
7.24
2.95
-1.46
-5.68
-9.55
-13.17
-16.89
-21.19
-26.39
-32.47
-38.92
-44.75
-48.74
-49.79
-47.25
-41.18
-32.34
-22.02
-11.64
-2.41
5.02
10.55
14.51
17.42
19.73
21.68
23.34
24.63
25.43
25.62
25.13
24.02
22.42
20.62
18.89
17.51
16.54
15.87
15.19
14.10
12.28
9.60
6.13
2.09
-2.23
-6.60
-10.87
-15.05
-19.27
-23.75
-28.74
-34.42
-40.66
-46.94
-52.25
-55.33
-55.06
-50.87
-43.06
-32.74
-21.49
-10.87
-1.91
5.05
10.24
14.19
17.35
19.96
21.96
23.17
23.51
23.01
21.93
20.66
19.58
18.94
18.79
18.96
19.12
18.91
18.06
16.40
13.90
10.62
6.65
2.12
-2.82
-7.96
-13.11
-18.16
-23.20
-28.44
-34.04
-39.86
-45.28
-49.20
-50.40
-48.01
-41.85
-32.66
-21.76
-10.73
-0.82
7.23
13.36
17.88
21.26
23.89
25.99
27.64
28.84
29.55
29.79
29.59
29.03
28.23
27.33
26.47
25.76
25.18
24.63
23.86
22.61
20.64
17.87
14.38
10.34
5.99
1.50
-3.01
-7.57
-12.30
-17.44
-23.22
-29.71
-36.60
-43.04
-47.80
-49.58
-47.52
-41.52
-32.37
-21.49
-10.45
-0.50
7.69
14.02
18.78
22.30
24.87
26.66
27.79
28.45
28.84
29.16
29.53
29.91
30.17
30.13
29.75
29.04
28.14
27.11
25.91
24.33
22.11
19.08
15.23
10.76
6.01
1.34
-3.03
-7.04
-10.90
-14.92
-19.46
-24.69
-30.39
-35.83
-39.91
-41.43
-39.48
-33.84
-25.17
-14.78
-4.30
4.91
12.10
17.18
20.59
22.94
24.73
26.13
27.14
27.62
27.53
26.89
25.84
24.51
23.03
21.48
19.96
18.51
17.16
15.79
14.17
12.01
9.11
5.42
1.12
-3.47
-7.97
-12.15
-15.95
-19.52
-23.13
-27.07
-31.49
-36.32
-41.10
-45.02
-47.06
-46.27
-42.09
-34.63
-24.66
-13.48
-2.52
7.03
14.50
19.76
23.11
25.00
25.90
26.18
26.10
25.85
25.54
25.26
25.08
25.08
25.29
25.73
26.33
26.89
27.14
26.76
25.50
23.28
20.14
16.28
11.97
7.44
2.91
-1.53
-5.89
-10.33
-15.14
-20.54
-26.54
-32.72
-38.22
-41.90
-42.67
-39.92
-33.81
-25.25
-15.65
-6.52
1.03
6.48
9.95
11.94
13.00
13.58
13.87
13.94
13.82
13.63
13.55
13.76
14.33
15.15
16.02
16.66
16.85
16.44
15.42
13.89
12.01
9.93
7.78
5.59
3.30
0.82
-1.94
-5.05
-8.60
-12.61
-17.04
-21.65
-25.92
-29.01
-29.96
-27.99
-22.86
-15.04
-5.65
3.87
12.22
18.57
22.72
24.98
25.94
26.16
26.02
25.68
25.14
24.35
23.34
22.22
21.15
20.26
19.61
19.17
18.81
18.32
17.54
16.37
14.79
12.88
10.72
8.33
5.70
2.74
-0.55
-4.15
-7.92
-11.79
-15.73
-19.76
-23.83
-27.64
-30.63
-31.96
-30.95
-27.30
-21.40
-14.17
-6.77
-0.24
4.85
8.45
10.84
12.40
13.34
13.70
13.44
12.55
11.18
9.60
8.09
6.86
5.95
5.27
4.65
3.88
2.81
1.35
-0.46
-2.47
-4.48
-6.32
-7.99
-9.62
-11.49
-13.85
-16.83
-20.40
-24.33
-28.27
-31.73
-34.15
-34.91
-33.55
-29.94
-24.32
-17.38
-10.02
-3.11
2.71
7.18
10.30
12.23
13.13
13.12
12.30
10.83
9.00
7.17
5.71
4.84
4.55
4.56
4.46
3.92
2.80
1.24
-0.42
-1.93
-3.18
-4.33
-5.74
-7.82
-10.84
-14.91
-19.86
-25.27
-30.50
-34.73
-37.11
-37.00
-34.16
-28.89
-21.97
-14.41
-7.20
-1.01
3.89
7.55
10.18
11.99
13.08
13.41
12.99
11.86
10.24
8.45
6.83
5.55
4.63
3.86
2.95
1.66
-0.06
-2.08
-4.21
-6.29
-8.28
-10.30
-12.52
-15.12
-18.23
-21.92
-26.11
-30.53
-34.64
-37.63
-38.62
-36.94
-32.42
-25.53
-17.21
-8.64
-0.82
5.66
10.65
14.33
16.95
18.69
19.59
19.62
18.83
17.44
15.80
14.27
13.09
12.26
11.53
10.57
9.08
7.01
4.51
1.90
-0.55
-2.76
-4.86
-7.19
-10.08
-13.73
-18.11
-23.00
-28.05
-32.85
-36.94
-39.75
-40.74
-39.44
-35.66
-29.69
-22.28
-14.41
-7.00
-0.66
4.42
8.39
11.50
13.95
15.75
16.82
17.10
16.65
15.67
14.55
13.64
13.17
13.12
13.20
12.96
12.03
10.25
7.75
4.91
2.11
-0.43
-2.78
-5.22
-8.17
-11.99
-16.89
-22.80
-29.41
-36.08
-41.84
-45.61
-46.42
-43.70
-37.59
-28.98
-19.17
-9.58
-1.28
5.25
10.10
13.70
16.52
18.87
20.80
22.20
22.95
22.93
22.19
20.92
19.38
17.89
16.66
15.70
14.87
13.88
12.44
10.41
7.83
4.90
1.87
-1.11
-4.03
-7.05
-10.46
-14.55
-19.56
-25.50
-32.01
-38.30
-43.17
-45.39
-44.08
-39.12
-31.26
-21.84
-12.39
-4.02
2.75
8.07
12.33
15.88
18.78
20.86
21.91
21.89
21.08
19.93
18.86
18.12
17.73
17.53
17.31
16.91
16.24
15.27
13.96
12.32
10.31
7.93
5.16
1.95
-1.84
-6.44
-12.04
-18.68
-26.11
-33.65
-40.26
-44.74
-45.99
-43.43
-37.15
-27.97
-17.24
-6.43
3.23
11.00
16.73
20.72
23.43
25.29
26.43
26.80
26.28
24.91
22.97
20.94
19.29
18.23
17.66
17.23
16.53
15.36
13.71
11.76
9.63
7.32
4.71
1.69
-1.80
-5.77
-10.26
-15.39
-21.31
-27.96
-34.89
-41.12
-45.35
-46.41
-43.62
-37.15
-27.94
-17.43
-7.06
2.10
9.53
15.19
19.38
22.45
24.69
26.22
27.09
27.34
27.05
26.37
25.51
24.62
23.76
22.91
21.98
20.85
19.44
17.71
15.62
13.16
10.33
7.17
3.78
0.18
-3.60
-7.77
-12.58
-18.30
-24.91
-31.93
-38.35
-42.83
-44.15
-41.61
-35.31
-26.13
-15.51
-4.91
4.52
12.21
18.14
22.62
26.08
28.82
30.94
32.38
33.00
32.76
31.71
30.09
28.21
26.39
24.76
23.28
21.74
19.90
17.58
14.80
11.72
8.59
5.62
2.84
0.11
-2.86
-6.39
-10.73
-16.03
-22.31
-29.31
-36.41
-42.63
-46.68
-47.35
-43.96
-36.72
-26.69
-15.60
-5.10
3.64
10.28
15.13
18.81
21.84
24.42
26.49
27.89
28.53
28.48
27.90
27.00
25.92
24.75
23.51
22.17
20.64
18.81
16.59
13.89
10.72
7.24
3.63
0.11
-3.27
-6.59
-10.16
-14.36
-19.56
-25.82
-32.83
-39.74
-45.36
-48.45
-48.05
-43.85
-36.33
-26.65
-16.33
-6.78
1.09
7.03
11.37
14.75
17.71
20.51
23.03
24.94
25.96
26.04
25.43
24.55
23.77
23.24
22.81
22.16
20.97
19.10
16.71
14.10
11.58
9.31
7.14
4.74
1.73
-2.18
-7.08
-12.86
-19.24
-25.77
-31.82
-36.57
-39.08
-38.59
-34.81
-28.08
-19.37
-10.01
-1.27
6.03
11.67
15.90
19.21
21.95
24.18
25.68
26.19
25.59
24.11
22.23
20.52
19.35
18.72
18.37
17.83
16.71
14.87
12.39
9.46
6.25
2.90
-0.57
-4.13
-7.78
-11.56
-15.58
-20.05
-25.13
-30.73
-36.38
-41.17
-43.96
-43.66
-39.72
-32.32
-22.38
-11.34
-0.75
8.21
14.96
19.57
22.58
24.65
26.33
27.82
29.08
29.87
30.01
29.44
28.30
26.83
25.32
23.93
22.70
21.47
20.05
18.21
15.89
13.15
10.09
6.82
3.34
-0.43
-4.64
-9.37
-14.62
-20.29
-26.24
-32.21
-37.77
-42.25
-44.79
-44.53
-41.02
-34.41
-25.52
-15.65
-6.11
2.13
8.68
13.61
17.33
20.25
22.71
24.83
26.64
28.05
28.96
29.28
28.98
28.14
26.94
25.57
24.14
22.68
21.07
19.21
17.00
14.49
11.72
8.76
5.59
2.12
-1.67
-5.79
-10.16
-14.71
-19.46
-24.54
-30.03
-35.74
-41.02
-44.81
-45.98
-43.75
-38.05
-29.67
-19.93
-10.25
-1.71
5.21
10.56
14.70
17.96
20.56
22.56
23.96
24.79
25.17
25.20
24.98
24.56
23.93
23.12
22.16
21.14
20.16
19.21
18.22
16.98
15.24
12.81
9.62
5.76
1.50
-2.83
-6.91
-10.60
-13.97
-17.36
-21.22
-25.85
-31.20
-36.68
-41.25
-43.74
-43.28
-39.65
-33.35
-25.48
-17.28
-9.77
-3.50
1.47
5.43
8.73
11.66
14.33
16.72
18.71
20.23
21.20
21.63
21.56
21.12
20.42
19.61
18.78
17.98
17.15
16.18
14.92
13.22
11.04
8.39
5.38
2.12
-1.34
-5.04
-9.07
-13.59
-18.69
-24.27
-29.90
-34.81
-37.99
-38.49
-35.79
-30.01
-22.02
-13.08
-4.48
2.86
8.61
12.88
15.99
18.20
19.60
20.14
19.77
18.62
16.98
15.28
13.89
13.08
12.84
12.93
13.01
12.69
11.73
10.10
7.96
5.54
3.01
0.43
-2.26
-5.14
-8.27
-11.70
-15.48
-19.73
-24.54
-29.74
-34.78
-38.73
-40.50
-39.25
-34.79
-27.71
-19.16
-10.46
-2.65
3.77
8.74
12.53
15.39
17.48
18.77
19.27
19.00
18.15
16.99
15.82
14.85
14.16
13.69
13.31
12.87
12.26
11.36
10.08
8.31
6.02
3.18
-0.11
-3.68
-7.38
-11.15
-15.08
-19.37
-24.26
-29.81
-35.76
-41.41
-45.71
-47.57
-46.20
-41.43
-33.83
-24.50
-14.74
-5.70
1.93
7.90
12.35
15.66
18.20
20.32
22.15
23.69
24.79
25.28
25.10
24.36
23.33
22.31
21.54
21.05
20.70
20.26
19.48
18.20
16.30
13.74
10.53
6.75
2.53
-1.93
-6.45
-11.00
-15.72
-20.88
-26.64
-32.83
-38.81
-43.57
-46.04
-45.46
-41.69
-35.24
-27.13
-18.51
-10.38
-3.34
2.45
7.17
11.20
14.86
18.30
21.47
24.09
25.90
26.73
26.62
25.80
24.62
23.41
22.36
21.56
20.93
20.31
19.43
18.04
15.94
13.09
9.63
5.81
1.93
-1.79
-5.34
-8.83
-12.51
-16.65
-21.38
-26.63
-32.00
-36.74
-39.91
-40.60
-38.23
-32.84
-25.12
-16.21
-7.36
0.42
6.63
11.22
14.47
16.77
18.41
19.58
20.33
20.71
20.72
20.42
19.88
19.17
18.41
17.69
17.08
16.60
16.17
15.61
14.72
13.35
11.42
8.97
6.15
3.13
0.08
-2.89
-5.79
-8.76
-12.12
-16.21
-21.24
-27.03
-32.94
-37.89
-40.69
-40.45
-36.94
-30.63
-22.62
-14.18
-6.40
0.10
5.20
9.15
12.33
15.05
17.41
19.31
20.50
20.82
20.25
18.98
17.45
16.12
15.38
15.31
15.76
16.31
16.48
15.87
14.29
11.81
8.67
5.20
1.70
-1.65
-4.80
-7.85
-10.97
-14.44
-18.44
-22.97
-27.74
-32.09
-35.11
-35.91
-33.91
-29.11
-22.16
-14.13
-6.25
0.54
5.76
9.42
11.87
13.57
14.86
15.87
16.57
16.81
16.49
15.66
14.47
13.18
12.05
11.25
10.78
10.50
10.13
9.38
8.09
6.25
3.99
1.51
-1.08
-3.80
-6.78
-10.22
-14.23
-18.88
-24.08
-29.63
-35.10
-39.86
-43.11
-44.04
-42.11
-37.31
-30.17
-21.73
-13.23
-5.74
0.12
4.20
6.81
8.38
9.37
10.06
10.52
10.70
10.54
10.03
9.29
8.49
7.85
7.49
7.42
7.51
7.54
7.23
6.43
5.05
3.16
0.83
-1.90
-5.07
-8.83
-13.39
-18.80
-24.93
-31.23
-36.89
-40.91
-42.42
-40.97
-36.71
-30.31
-22.79
-15.13
-7.96
-1.52
4.33
9.75
14.81
19.33
22.96
25.37
26.43
26.26
25.20
23.66
21.97
20.23
18.36
16.19
13.66
10.87
8.07
5.53
3.37
1.45
-0.62
-3.35
-7.17
-12.35
-18.84
-26.25
-33.87
-40.64
-45.40
-47.10
-45.04
-39.23
-30.36
-19.69
-8.73
1.18
9.17
15.01
19.00
21.74
23.81
25.53
26.94
27.93
28.47
28.69
28.90
29.38
30.13
30.85
31.01
30.15
28.10
25.08
21.56
17.97
14.50
11.03
7.22
2.75
-2.55
-8.52
-14.71
-20.46
-24.96
-27.45
-27.35
-24.51
-19.29
-12.48
-5.07
2.09
8.50
13.97
18.54
22.23
24.92
26.41
26.65
25.80
24.34
22.85
21.76
21.17
20.81
20.20
18.94
16.83
14.06
11.06
8.27
5.96
4.09
2.36
0.34
-2.40
-6.16
-11.04
-16.80
-22.90
-28.47
-32.46
-33.93
-32.35
-27.81
-21.06
-13.24
-5.52
1.29
6.91
11.50
15.36
18.67
21.38
23.18
23.86
23.35
21.95
20.12
18.37
16.99
16.01
15.23
14.36
13.19
11.65
9.81
7.79
5.68
3.46
1.06
-1.58
-4.48
-7.57
-10.74
-13.94
-17.19
-20.56
-24.00
-27.22
-29.67
-30.66
-29.52
-25.94
-20.10
-12.71
-4.69
2.96
9.52
14.64
18.31
20.74
22.23
22.99
23.15
22.80
22.01
20.97
19.90
19.00
18.34
17.81
17.17
16.22
14.91
13.37
11.84
10.51
9.38
8.25
6.80
4.76
2.02
-1.36
-5.14
-9.05
-12.77
-15.95
-18.22
-19.23
-18.66
-16.39
-12.55
-7.55
-2.00
3.41
8.13
11.80
14.31
15.73
16.17
15.77
14.67
13.08
11.25
9.51
8.08
7.06
6.36
5.72
4.88
3.65
2.02
0.10
-1.89
-3.80
-5.56
-7.22
-8.97
-11.09
-13.84
-17.37
-21.59
-26.05
-29.98
-32.47
-32.70
-30.28
-25.37
-18.73
-11.40
-4.45
1.41
5.91
9.20
11.62
13.47
14.87
15.71
15.85
15.22
13.99
12.51
11.19
10.35
9.97
9.80
9.46
8.63
7.19
5.26
3.08
0.82
-1.45
-3.80
-6.34
-9.20
-12.50
-16.36
-20.82
-25.76
-30.72
-34.92
-37.45
-37.51
-34.81
-29.64
-22.76
-15.18
-7.77
-1.10
4.54
9.14
12.75
15.43
17.23
18.22
18.51
18.25
17.66
16.92
16.17
15.48
14.82
14.05
12.99
11.54
9.70
7.61
5.50
3.58
1.87
0.18
-1.81
-4.46
-7.99
-12.40
-17.47
-22.82
-28.00
-32.53
-35.82
-37.32
-36.54
-33.30
-27.85
-20.85
-13.29
-6.11
-0.01
4.73
8.19
10.64
12.38
13.64
14.51
15.05
15.28
15.24
15.00
14.60
14.12
13.65
13.21
12.82
12.40
11.79
10.88
9.56
7.84
5.80
3.54
1.14
-1.41
-4.18
-7.20
-10.46
-13.92
-17.54
-21.33
-25.28
-29.25
-32.84
-35.36
-36.05
-34.30
-30.00
-23.61
-16.09
-8.51
-1.73
3.81
8.06
11.27
13.77
15.81
17.52
18.90
19.88
20.37
20.34
19.83
18.97
17.98
17.02
16.21
15.56
15.03
14.50
13.88
13.02
11.76
9.90
7.33
4.05
0.32
-3.57
-7.27
-10.61
-13.67
-16.71
-20.12
-24.13
-28.68
-33.25
-36.98
-38.87
-38.17
-34.64
-28.67
-21.22
-13.44
-6.31
-0.40
4.21
7.74
10.54
12.83
14.64
15.93
16.67
16.93
16.91
16.84
16.90
17.09
17.24
17.14
16.61
15.63
14.37
13.13
12.17
11.52
10.99
10.15
8.58
6.00
2.49
-1.64
-5.88
-9.77
-13.08
-15.83
-18.30
-20.88
-23.94
-27.62
-31.79
-35.89
-39.11
-40.53
-39.49
-35.78
-29.80
-22.42
-14.70
-7.56
-1.58
3.09
6.58
9.21
11.23
12.81
14.04
14.92
15.45
15.67
15.70
15.71
15.88
16.30
16.92
17.62
18.20
18.44
18.21
17.45
16.13
14.27
11.86
8.95
5.62
2.05
-1.53
-4.82
-7.62
-9.89
-11.82
-13.86
-16.61
-20.52
-25.71
-31.82
-37.97
-42.97
-45.70
-45.39
-41.93
-35.84
-28.08
-19.77
-11.90
-5.05
0.53
4.88
8.19
10.64
12.42
13.68
14.59
15.34
16.05
16.78
17.51
18.17
18.72
19.10
19.31
19.32
19.07
18.47
17.38
15.70
13.42
10.62
7.45
4.13
0.84
-2.30
-5.29
-8.23
-11.32
-14.75
-18.63
-22.88
-27.11
-30.66
-32.73
-32.61
-29.93
-24.80
-17.85
-10.03
-2.34
4.43
9.86
13.82
16.41
17.73
17.84
16.79
14.74
11.99
8.97
6.19
4.05
2.74
2.18
2.08
2.07
1.86
1.31
0.47
-0.52
-1.48
-2.38
-3.36
-4.66
-6.58
-9.29
-12.88
-17.34
-22.52
-28.09
-33.44
-37.74
-40.07
-39.71
-36.44
-30.66
-23.26
-15.34
-7.79
-1.11
4.55
9.22
12.86
15.28
16.23
15.63
13.68
10.94
8.17
6.03
4.95
4.93
5.64
6.53
7.05
6.86
5.84
4.14
2.05
-0.20
-2.50
-4.97
-7.86
-11.49
-16.09
-21.69
-28.05
-34.59
-40.44
-44.54
-45.91
-43.96
-38.67
-30.73
-21.27
-11.59
-2.77
4.58
10.34
14.70
17.99
20.48
22.22
23.15
23.18
22.28
20.63
18.52
16.28
14.14
12.14
10.18
8.15
6.02
3.93
2.07
0.50
-0.93
-2.62
-5.07
-8.77
-13.99
-20.65
-28.33
-36.20
-43.11
-47.81
-49.25
-46.88
-40.92
-32.25
-22.20
-12.07
-2.84
4.98
11.30
16.24
19.94
22.47
23.92
24.39
24.07
23.18
21.97
20.70
19.53
18.56
17.70
16.79
15.57
13.91
11.86
9.63
7.48
5.51
3.53
1.11
-2.31
-7.15
-13.55
-21.25
-29.59
-37.61
-44.10
-47.86
-47.96
-44.06
-36.59
-26.65
-15.73
-5.18
4.13
11.92
18.33
23.63
27.97
31.35
33.69
34.98
35.33
34.99
34.23
33.29
32.33
31.40
30.42
29.25
27.65
25.47
22.63
19.26
15.60
11.87
8.11
4.20
-0.17
-5.34
-11.52
-18.62
-26.17
-33.26
-38.76
-41.49
-40.67
-36.13
-28.44
-18.70
-8.21
1.94
11.06
18.83
25.22
30.22
33.87
36.20
37.34
37.51
37.02
36.13
35.04
33.91
32.81
31.77
30.72
29.54
28.07
26.13
23.70
20.84
17.73
14.53
11.29
7.90
4.08
-0.51
-6.14
-12.92
-20.69
-28.92
-36.77
-43.12
-46.80
-46.87
-42.99
-35.55
-25.58
-14.50
-3.65
6.02
14.13
20.76
26.16
30.57
34.07
36.63
38.19
38.83
38.71
38.10
37.22
36.26
35.28
34.28
33.22
32.08
30.86
29.54
28.05
26.22
23.86
20.80
17.00
12.54
7.65
2.58
-2.55
-7.78
-13.32
-19.40
-26.00
-32.75
-38.82
-43.12
-44.57
-42.55
-37.07
-28.86
-19.16
-9.30
-0.37
7.07
12.99
17.68
21.51
24.71
27.35
29.39
30.82
31.70
32.20
32.44
32.43
32.08
31.27
29.95
28.23
26.33
24.50
22.81
21.14
19.16
16.51
12.97
8.58
3.64
-1.40
-6.19
-10.57
-14.69
-18.94
-23.76
-29.34
-35.44
-41.35
-45.93
-48.04
-46.84
-42.12
-34.40
-24.77
-14.55
-4.96
3.19
9.56
14.21
17.47
19.71
21.23
22.14
22.40
21.99
21.00
19.71
18.51
17.71
17.41
17.39
17.24
16.54
15.16
13.21
10.99
8.83
6.83
4.86
2.59
-0.29
-4.06
-8.82
-14.51
-20.90
-27.54
-33.69
-38.40
-40.70
-39.81
-35.53
-28.36
-19.40
-10.02
-1.39
5.79
11.44
15.85
19.39
22.24
24.29
25.31
25.10
23.81
21.81
19.68
17.92
16.77
16.12
15.60
14.80
13.42
11.44
9.04
6.49
4.00
1.54
-1.08
-4.18
-7.99
-12.69
-18.27
-24.53
-31.11
-37.40
-42.56
-45.62
-45.75
-42.54
-36.18
-27.51
-17.72
-8.09
0.39
7.21
12.35
16.09
18.86
20.94
22.44
23.31
23.46
22.93
21.93
20.86
20.07
19.70
19.62
19.46
18.84
17.57
15.70
13.49
11.16
8.83
6.39
3.71
0.60
-2.99
-7.06
-11.60
-16.60
-21.99
-27.48
-32.41
-35.86
-36.84
-34.70
-29.42
-21.74
-12.88
-4.19
3.31
9.21
13.63
17.00
19.75
22.04
23.81
24.86
25.08
24.49
23.32
21.81
20.19
18.60
17.11
15.76
14.60
13.62
12.76
11.87
10.71
9.06
6.77
3.83
0.33
-3.60
-7.85
-12.36
-17.19
-22.35
-27.77
-33.20
-38.14
-41.89
-43.65
-42.78
-38.99
-32.53
-24.15
-14.98
-6.19
1.30
7.08
11.23
14.24
16.66
18.90
21.04
22.89
24.14
24.53
24.06
22.95
21.55
20.21
19.12
18.29
17.54
16.65
15.40
13.64
11.32
8.44
5.05
1.24
-2.91
-7.26
-11.67
-16.02
-20.25
-24.44
-28.73
-33.18
-37.60
-41.47
-43.97
-44.23
-41.68
-36.24
-28.48
-19.45
-10.39
-2.34
4.08
8.78
12.10
14.50
16.42
18.09
19.51
20.60
21.20
21.26
20.83
20.08
19.21
18.37
17.72
17.27
16.95
16.52
15.68
14.15
11.75
8.52
4.69
0.61
-3.39
-7.06
-10.38
-13.51
-16.78
-20.63
-25.33
-30.82
-36.57
-41.53
-44.45
-44.26
-40.50
-33.55
-24.54
-14.88
-5.89
1.66
7.54
11.99
15.36
17.93
19.80
20.99
21.50
21.35
20.68
19.68
18.57
17.56
16.78
16.27
15.94
15.65
15.17
14.33
12.98
11.06
8.56
5.56
2.16
-1.49
-5.24
-8.99
-12.79
-16.79
-21.21
-26.15
-31.41
-36.43
-40.37
-42.22
-41.23
-37.13
-30.34
-21.79
-12.72
-4.30
2.66
7.86
11.39
13.65
15.07
15.98
16.61
16.99
17.08
16.77
16.04
14.98
13.85
12.96
12.53
12.59
12.90
13.07
12.66
11.40
9.25
6.35
2.93
-0.78
-4.60
-8.39
-12.15
-15.95
-20.03
-24.67
-29.97
-35.64
-40.88
-44.58
-45.66
-43.47
-38.07
-30.20
-20.97
-11.53
-2.79
4.71
10.78
15.46
18.94
21.49
23.35
24.72
25.64
26.09
26.02
25.46
24.52
23.39
22.27
21.27
20.43
19.73
19.03
18.20
16.99
15.18
12.62
9.30
5.42
1.23
-2.96
-7.03
-11.02
-15.16
-19.72
-24.87
-30.48
-36.07
-40.81
-43.69
-43.85
-40.83
-34.79
-26.47
-17.00
-7.61
0.74
7.48
12.45
15.81
17.90
19.13
19.90
20.53
21.22
22.00
22.77
23.39
23.72
23.71
23.42
22.92
22.27
21.50
20.55
19.31
17.62
15.32
12.27
8.45
3.96
-0.95
-5.93
-10.70
-15.16
-19.44
-23.85
-28.82
-34.63
-41.22
-48.07
-54.23
-58.48
-59.64
-56.98
-50.51
-41.02
-29.90
-18.80
-9.10
-1.63
3.50
6.74
8.85
10.59
12.45
14.60
16.93
19.17
21.07
22.46
23.35
23.79
23.91
23.72
23.17
22.15
20.59
18.53
16.08
13.35
10.39
7.10
3.38
-0.83
-5.49
-10.47
-15.72
-21.36
-27.51
-34.14
-40.77
-46.43
-49.89
-50.06
-46.46
-39.39
-29.90
-19.38
-9.17
-0.20
7.11
12.82
17.21
20.57
23.14
24.98
26.07
26.38
25.97
25.03
23.85
22.71
21.87
21.42
21.26
21.21
20.98
20.31
19.02
17.04
14.41
11.24
7.65
3.81
-0.26
-4.58
-9.34
-14.76
-20.98
-27.86
-34.79
-40.73
-44.48
-44.99
-41.82
-35.24
-26.19
-15.91
-5.60
3.87
12.05
18.76
23.98
27.68
29.89
30.76
30.54
29.61
28.32
26.97
25.70
24.56
23.54
22.62
21.80
21.06
20.36
19.62
18.70
17.40
15.50
12.83
9.34
5.13
0.43
-4.48
-9.35
-14.07
-18.69
-23.44
-28.59
-34.23
-40.08
-45.37
-48.89
-49.39
-46.00
-38.64
-28.19
-16.20
-4.41
5.78
13.66
19.23
22.92
25.30
26.83
27.79
28.33
28.54
28.50
28.23
27.75
27.01
26.05
24.95
23.87
22.95
22.23
21.60
20.79
19.47
17.40
14.50
10.85
6.66
2.16
-2.39
-6.86
-11.12
-15.25
-19.44
-24.06
-29.35
-35.25
-41.15
-45.90
-48.10
-46.60
-40.96
-31.69
-20.03
-7.65
3.95
13.72
21.23
26.48
29.76
31.42
31.77
31.10
29.69
27.84
25.98
24.50
23.75
23.82
24.54
25.50
26.17
26.17
25.29
23.56
21.17
18.27
14.97
11.32
7.40
3.32
-0.78
-4.85
-8.96
-13.41
-18.47
-24.18
-30.10
-35.33
-38.58
-38.68
-34.97
-27.59
-17.60
-6.57
3.86
12.45
18.67
22.60
24.72
25.54
25.41
24.49
22.89
20.85
18.79
17.18
16.40
16.50
17.18
17.93
18.26
17.88
16.82
15.33
13.70
12.07
10.42
8.55
6.30
3.55
0.34
-3.31
-7.40
-12.02
-17.24
-22.87
-28.30
-32.58
-34.53
-33.22
-28.32
-20.28
-10.25
0.30
9.98
17.86
23.61
27.41
29.61
30.57
30.53
29.59
27.91
25.75
23.42
21.30
19.61
18.38
17.46
16.59
15.55
14.18
12.43
10.30
7.91
5.38
2.86
0.46
-1.89
-4.40
-7.46
-11.43
-16.46
-22.32
-28.33
-33.53
-36.84
-37.42
-34.88
-29.37
-21.56
-12.47
-3.24
5.12
11.90
16.74
19.59
20.61
20.02
18.13
15.31
12.04
8.85
6.26
4.62
4.00
4.13
4.50
4.54
3.82
2.20
-0.12
-2.70
-5.15
-7.27
-9.19
-11.27
-14.04
-17.83
-22.70
-28.33
-34.01
-38.79
-41.64
-41.75
-38.72
-32.72
-24.48
-15.15
-5.92
2.19
8.60
13.14
15.93
17.16
17.07
15.87
13.82
11.27
8.69
6.47
4.86
3.92
3.45
3.14
2.71
2.03
1.15
0.22
-0.64
-1.47
-2.51
-4.14
-6.71
-10.43
-15.21
-20.68
-26.19
-30.93
-34.06
-34.82
-32.80
-28.02
-21.02
-12.76
-4.40
3.05
8.99
13.27
16.08
17.62
18.01
17.27
15.44
12.81
9.88
7.28
5.43
4.44
4.01
3.70
3.12
2.15
0.95
-0.30
-1.45
-2.58
-3.98
-5.99
-8.97
-13.11
-18.42
-24.54
-30.78
-36.12
-39.42
-39.73
-36.68
-30.65
-22.70
-14.23
-6.50
-0.25
4.35
7.63
10.02
11.78
12.92
13.32
12.91
11.83
10.45
9.20
8.41
8.16
8.24
8.32
8.04
7.22
5.87
4.11
2.12
0.01
-2.26
-4.78
-7.70
-11.18
-15.32
-20.11
-25.35
-30.53
-34.85
-37.39
-37.32
-34.23
-28.34
-20.51
-11.91
-3.71
3.24
8.68
12.76
15.88
18.32
20.21
21.45
21.91
21.56
20.59
19.32
18.10
17.10
16.27
15.36
14.10
12.38
10.27
8.01
5.84
3.87
2.05
0.12
-2.26
-5.43
-9.59
-14.76
-20.72
-27.03
-33.01
-37.79
-40.46
-40.30
-37.04
-30.97
-22.93
-14.03
-5.39
2.17
8.23
12.81
16.12
18.45
20.01
20.88
21.08
20.66
19.74
18.57
17.39
16.38
15.59
14.91
14.15
13.08
11.56
9.58
7.20
4.60
1.93
-0.73
-3.43
-6.35
-9.79
-14.09
-19.43
-25.73
-32.55
-39.10
-44.33
-47.16
-46.77
-42.82
-35.61
-26.03
-15.44
-5.18
3.64
10.48
15.31
18.55
20.72
22.24
23.33
24.00
24.15
23.69
22.64
21.12
19.39
17.72
16.31
15.21
14.25
13.15
11.58
9.31
6.32
2.74
-1.16
-5.14
-9.07
-12.92
-16.80
-20.89
-25.39
-30.54
-36.39
-42.69
-48.78
-53.54
-55.75
-54.37
-49.06
-40.26
-29.23
-17.55
-6.72
2.25
9.05
13.92
17.46
20.27
22.80
25.23
27.56
29.68
31.46
32.85
33.87
34.58
35.01
35.17
35.04
34.60
33.84
32.75
31.24
29.17
26.33
22.58
17.95
12.68
7.23
2.10
-2.36
-6.05
-9.18
-12.23
-15.75
-20.18
-25.68
-31.96
-38.30
-43.60
-46.65
-46.48
-42.69
-35.63
-26.31
-16.14
-6.48
1.72
8.07
12.75
16.26
19.11
21.63
23.91
25.79
27.16
27.95
28.26
28.27
28.16
28.01
27.84
27.59
27.22
26.71
26.01
25.01
23.46
21.10
17.74
13.39
8.35
3.01
-2.19
-6.97
-11.35
-15.59
-20.09
-25.26
-31.26
-37.93
-44.66
-50.45
-54.14
-54.72
-51.67
-45.21
-36.25
-26.09
-16.02
-6.97
0.68
6.94
12.01
16.02
18.98
20.84
21.67
21.73
21.38
21.01
20.88
21.00
21.26
21.51
21.66
21.70
21.71
21.73
21.73
21.52
20.85
19.41
17.00
13.58
9.28
4.41
-0.63
-5.49
-9.94
-13.96
-17.69
-21.50
-25.81
-31.01
-37.20
-44.01
-50.43
-55.07
-56.48
-53.69
-46.67
-36.32
-24.22
-12.05
-1.15
7.82
14.79
19.98
23.71
26.24
27.78
28.57
28.90
29.03
29.15
29.25
29.20
28.81
27.99
26.81
25.48
24.31
23.52
23.11
22.85
22.26
20.80
18.11
14.18
9.40
4.36
-0.30
-4.24
-7.48
-10.39
-13.49
-17.30
-22.08
-27.81
-34.04
-39.91
-44.28
-45.98
-44.15
-38.57
-29.81
-19.10
-7.98
2.16
10.41
16.51
20.64
23.23
24.74
25.48
25.70
25.58
25.33
25.12
25.05
25.04
24.92
24.47
23.55
22.25
20.81
19.47
18.37
17.34
15.98
13.75
10.30
5.59
-0.03
-6.01
-11.78
-17.04
-21.80
-26.37
-31.26
-36.94
-43.74
-51.68
-60.37
-69.05
-76.64
-81.99
-84.24
-83.14
-79.22
-73.64
-67.85
-63.13
-60.29
-59.53
-60.58
-62.90
-65.93
-69.09
-71.75
-73.13
-72.32
-68.40
-60.66
-48.85
-33.16
-14.27
6.89
29.23
51.61
72.84
91.77
107.29
118.55
125.12
127.09
125.03
119.86
112.63
104.31
95.55
86.72
77.83
68.65
58.98
48.84
38.65
29.19
21.54
16.66
15.15
16.90
21.14
26.68
32.25
36.84
39.87
41.29
41.31
40.28
38.53
36.31
33.76
31.04
28.27
25.60
23.18
21.09
19.40
18.13
17.23
16.53
15.78
14.66
12.91
10.44
7.39
4.05
0.76
-2.23
-4.89
-7.40
-10.05
-13.12
-16.80
-21.12
-25.88
-30.59
-34.58
-36.99
-37.09
-34.43
-29.02
-21.45
-12.70
-3.95
3.76
9.70
13.61
15.65
16.26
15.93
15.01
13.70
12.08
10.23
8.35
6.77
5.79
5.51
5.78
6.25
6.49
6.21
5.33
3.94
2.24
0.36
-1.65
-3.86
-6.44
-9.57
-13.38
-17.87
-22.83
-27.74
-31.87
-34.38
-34.58
-32.10
-27.05
-20.01
-11.88
-3.67
3.73
9.67
13.85
16.27
17.08
16.57
15.04
12.89
10.48
8.23
6.46
5.32
4.76
4.50
4.20
3.55
2.39
0.76
-1.16
-3.14
-5.06
-6.96
-9.07
-11.71
-15.25
-19.89
-25.59
-31.93
-38.09
-42.96
-45.44
-44.74
-40.65
-33.65
-24.79
-15.36
-6.56
0.79
6.32
10.05
12.23
13.14
13.05
12.17
10.72
8.98
7.26
5.81
4.78
4.09
3.51
2.73
1.49
-0.29
-2.51
-4.91
-7.25
-9.42
-11.51
-13.83
-16.83
-20.91
-26.20
-32.47
-38.98
-44.61
-48.16
-48.68
-45.75
-39.72
-31.47
-22.18
-12.93
-4.50
2.71
8.60
13.17
16.44
18.45
19.31
19.21
18.45
17.37
16.23
15.22
14.33
13.47
12.45
11.07
9.27
7.08
4.70
2.35
0.19
-1.82
-3.92
-6.53
-10.05
-14.80
-20.87
-27.96
-35.38
-42.09
-46.83
-48.48
-46.40
-40.69
-32.19
-22.28
-12.35
-3.48
3.88
9.75
14.43
18.22
21.25
23.50
24.87
25.36
25.10
24.30
23.24
22.13
21.07
20.03
18.87
17.39
15.51
13.23
10.72
8.19
5.74
3.36
0.83
-2.09
-5.71
-10.23
-15.75
-22.19
-29.16
-35.87
-41.21
-43.94
-43.14
-38.55
-30.72
-20.88
-10.50
-0.82
7.38
13.96
19.11
23.21
26.57
29.33
31.46
32.88
33.45
33.12
31.95
30.17
28.16
26.29
24.86
23.92
23.28
22.63
21.59
19.90
17.47
14.37
10.78
6.88
2.82
-1.38
-5.78
-10.56
-15.89
-21.79
-27.93
-33.60
-37.77
-39.31
-37.46
-32.05
-23.69
-13.55
-3.06
6.52
14.36
20.17
24.12
26.60
28.07
28.88
29.24
29.22
28.77
27.87
26.59
25.12
23.70
22.50
21.56
20.70
19.65
18.20
16.32
14.12
11.76
9.28
6.57
3.39
-0.42
-4.85
-9.72
-14.82
-20.05
-25.48
-31.16
-36.91
-42.09
-45.67
-46.49
-43.78
-37.44
-28.28
-17.67
-7.21
1.86
8.91
13.93
17.37
19.77
21.51
22.74
23.42
23.46
22.91
21.99
21.02
20.31
20.02
20.07
20.18
20.00
19.21
17.67
15.42
12.65
9.60
6.44
3.23
-0.07
-3.56
-7.31
-11.33
-15.61
-20.14
-24.97
-30.11
-35.39
-40.23
-43.75
-44.87
-42.78
-37.26
-28.91
-18.89
-8.65
0.66
8.37
14.30
18.59
21.42
22.99
23.45
23.06
22.15
21.06
20.04
19.22
18.57
18.03
17.60
17.36
17.34
17.48
17.57
17.29
16.31
14.43
11.60
7.97
3.80
-0.61
-5.04
-9.37
-13.67
-18.14
-23.08
-28.66
-34.73
-40.72
-45.63
-48.29
-47.72
-43.43
-35.74
-25.63
-14.48
-3.66
5.80
13.38
18.98
22.79
25.05
25.97
25.73
24.61
22.93
21.13
19.59
18.53
17.99
17.78
17.63
17.30
16.66
15.69
14.47
13.00
11.20
8.91
5.96
2.32
-1.85
-6.29
-10.67
-14.78
-18.64
-22.46
-26.61
-31.39
-36.86
-42.70
-48.16
-52.19
-53.67
-51.76
-46.22
-37.56
-26.93
-15.76
-5.39
3.35
10.21
15.36
19.15
21.82
23.50
24.19
24.04
23.37
22.57
22.06
22.04
22.50
23.24
24.04
24.70
25.11
25.18
24.85
24.01
22.58
20.47
17.63
14.11
10.06
5.75
1.60
-2.04
-4.96
-7.29
-9.50
-12.29
-16.30
-21.84
-28.69
-36.05
-42.69
-47.24
-48.60
-46.24
-40.35
-31.80
-21.86
-11.83
-2.74
4.88
10.90
15.48
18.81
21.10
22.50
23.25
23.64
23.96
24.37
24.81
25.06
24.88
24.20
23.13
21.99
21.09
20.54
20.24
19.86
18.98
17.29
14.65
11.12
6.96
2.50
-1.90
-5.99
-9.69
-13.15
-16.73
-20.84
-25.73
-31.23
-36.70
-41.13
-43.32
-42.38
-37.96
-30.43
-20.74
-10.20
-0.08
8.67
15.57
20.64
24.18
26.64
28.41
29.71
30.57
30.98
30.94
30.57
30.08
29.63
29.32
29.13
29.00
28.89
28.85
28.91
28.96
28.71
27.74
25.75
22.69
18.92
15.01
11.56
8.87
6.80
4.91
2.52
-0.98
-5.95
-12.33
-19.53
-26.45
-31.71
-33.96
-32.34
-26.85
-18.36
-8.40
1.39
9.70
15.86
19.83
22.00
22.88
22.88
22.27
21.19
19.75
18.08
16.34
14.72
13.35
12.32
11.63
11.25
11.10
11.05
10.92
10.49
9.55
7.98
5.79
3.09
0.04
-3.26
-6.77
-10.50
-14.54
-19.05
-24.20
-30.08
-36.55
-43.09
-48.69
-52.06
-52.03
-48.06
-40.43
-30.34
-19.42
-9.28
-1.01
5.01
8.97
11.30
12.46
12.75
12.27
11.08
9.34
7.35
5.48
4.13
3.51
3.57
4.05
4.58
4.80
4.47
3.56
2.14
0.33
-1.78
-4.14
-6.72
-9.53
-12.62
-16.07
-20.05
-24.69
-29.99
-35.61
-40.77
-44.33
-45.12
-42.32
-35.88
-26.60
-15.92
-5.44
3.55
10.41
15.11
18.01
19.48
19.77
19.02
17.37
15.16
12.81
10.81
9.44
8.70
8.31
7.84
6.92
5.35
3.19
0.63
-2.04
-4.70
-7.38
-10.24
-13.51
-17.39
-21.98
-27.27
-33.16
-39.38
-45.37
-50.28
-53.06
-52.79
-49.02
-41.99
-32.68
-22.45
-12.60
-4.06
2.78
7.99
11.76
14.34
15.83
16.31
15.88
14.77
13.30
11.79
10.56
9.81
9.58
9.72
9.96
9.91
9.30
8.02
6.15
3.91
1.48
-1.06
-3.82
-7.06
-11.10
-16.15
-22.15
-28.62
-34.58
-38.75
-39.92
-37.37
-31.20
-22.30
-12.15
-2.26
6.24
12.84
17.55
20.69
22.61
23.56
23.70
23.19
22.27
21.19
20.19
19.40
18.81
18.36
17.93
17.39
16.65
15.60
14.18
12.39
10.28
7.97
5.56
3.04
0.22
-3.25
-7.71
-13.35
-20.01
-27.06
-33.45
-37.89
-39.23
-36.77
-30.57
-21.45
-10.78
-0.10
9.36
16.95
22.66
26.93
30.32
33.20
35.71
37.76
39.23
40.09
40.41
40.38
40.12
39.73
39.20
38.52
37.66
36.55
35.12
33.17
30.56
27.16
22.99
18.20
13.00
7.64
2.31
-2.92
-8.16
-13.56
-19.26
-25.12
-30.58
-34.68
-36.23
-34.34
-28.75
-20.10
-9.75
0.65
9.66
16.51
21.06
23.67
24.84
24.93
24.11
22.46
20.15
17.50
14.97
12.98
11.77
11.31
11.36
11.59
11.75
11.75
11.63
11.44
11.23
10.94
10.50
9.87
9.05
8.05
6.86
5.42
3.54
1.07
-2.07
-5.79
-9.69
-13.18
-15.51
-15.97
-14.12
-9.94
-3.93
3.04
9.91
15.79
20.22
23.21
25.14
26.48
27.52
28.25
28.44
27.84
26.37
24.15
21.49
18.71
16.02
13.53
11.27
9.17
7.16
5.12
3.00
0.77
-1.43
-3.42
-5.04
-6.20
-7.05
-7.80
-8.76
-10.18
-12.21
-14.74
-17.42
-19.67
-20.75
-20.06
-17.36
-12.94
-7.55
-2.14
2.45
5.75
7.73
8.70
9.08
9.18
9.14
8.98
8.67
8.26
7.90
7.82
8.27
9.43
11.37
14.03
17.19
20.54
23.63
26.04
27.42
27.68
26.99
25.70
24.16
22.55
20.76
18.45
15.23
10.81
5.22
-1.22
-7.88
-13.96
-18.59
-21.09
-21.11
-18.83
-14.94
-10.44
-6.32
-3.26
-1.44
-0.69
-0.58
-0.81
-1.24
-1.93
-2.95
-4.33
-5.99
-7.85
-9.90
-12.21
-14.90
-18.00
-21.34
-24.61
-27.37
-29.26
-30.11
-30.02
-29.32
-28.47
-27.95
-28.13
-29.30
-31.54
-34.73
-38.43
-41.92
-44.27
-44.55
-42.21
-37.27
-30.45
-22.87
-15.74
-9.92
-5.71
-2.97
-1.29
-0.30
0.18
0.16
-0.46
-1.62
-3.20
-4.87
-6.33
-7.33
-7.83
-8.00
-8.10
-8.48
-9.33
-10.66
-12.28
-13.90
-15.30
-16.46
-17.55
-18.85
-20.70
-23.36
-26.93
-31.32
-36.23
-41.02
-44.79
-46.54
-45.35
-40.79
-33.10
-23.30
-12.82
-3.22
4.34
9.40
12.18
13.32
13.59
13.56
13.44
13.20
12.69
11.87
10.84
9.84
9.07
8.57
8.18
7.55
6.34
4.35
1.62
-1.61
-4.99
-8.26
-11.29
-14.11
-16.79
-19.44
-22.13
-24.88
-27.73
-30.57
-33.08
-34.66
-34.56
-32.03
-26.74
-18.99
-9.67
-0.07
8.55
15.37
20.07
22.86
24.23
24.74
24.81
24.68
24.40
23.92
23.11
21.85
20.12
18.01
15.74
13.56
11.65
10.06
8.65
7.19
5.44
3.21
0.47
-2.69
-6.09
-9.50
-12.74
-15.71
-18.47
-21.29
-24.59
-28.75
-33.95
-39.82
-45.38
-49.18
-49.75
-46.21
-38.60
-28.01
-16.17
-4.87
4.55
11.45
15.92
18.44
19.59
19.94
19.84
19.55
19.19
18.81
18.33
17.65
16.75
15.71
14.70
13.87
13.28
12.72
11.94
10.61
8.60
5.92
2.77
-0.62
-4.10
-7.56
-11.03
-14.60
-18.42
-22.66
-27.51
-32.97
-38.65
-43.73
-46.96
-47.06
-43.17
-35.27
-24.29
-11.88
0.06
10.02
17.18
21.51
23.57
24.14
23.95
23.51
23.10
22.78
22.54
22.19
21.59
20.59
19.13
17.35
15.46
13.73
12.35
11.30
10.37
9.18
7.41
4.82
1.40
-2.66
-6.99
-11.21
-15.00
-18.23
-21.06
-23.93
-27.44
-32.06
-37.78
-43.87
-48.88
-51.05
-48.97
-42.16
-31.35
-18.32
-5.26
5.90
14.09
19.17
21.77
22.83
23.16
23.27
23.28
23.11
22.62
21.73
20.48
19.04
17.60
16.31
15.22
14.28
13.34
12.23
10.76
8.83
6.34
3.32
-0.16
-3.92
-7.80
-11.63
-15.28
-18.80
-22.40
-26.43
-31.21
-36.80
-42.68
-47.78
-50.55
-49.57
-44.03
-34.21
-21.47
-7.81
4.80
15.03
22.44
27.32
30.31
31.96
32.62
32.44
31.55
30.18
28.65
27.28
26.21
25.44
24.81
24.09
23.15
21.99
20.67
19.25
17.70
15.84
13.46
10.36
6.52
2.12
-2.52
-7.08
-11.42
-15.67
-20.24
-25.60
-31.99
-39.06
-45.76
-50.49
-51.58
-47.93
-39.49
-27.35
-13.42
0.21
11.85
20.61
26.37
29.56
30.84
30.83
30.03
28.88
27.64
26.48
25.46
24.56
23.75
23.04
22.40
21.78
21.06
20.06
18.66
16.83
14.60
12.01
9.05
5.64
1.72
-2.66
-7.36
-12.20
-17.11
-22.20
-27.68
-33.55
-39.35
-44.09
-46.42
-45.11
-39.52
-29.94
-17.57
-4.21
8.33
18.65
26.08
30.67
32.95
33.61
33.24
32.24
30.80
29.06
27.13
25.25
23.68
22.64
22.18
22.13
22.09
21.62
20.38
18.27
15.42
12.18
8.91
5.82
2.95
0.17
-2.73
-5.93
-9.60
-13.88
-18.95
-24.80
-31.11
-37.04
-41.30
-42.45
-39.42
-32.04
-21.22
-8.70
3.45
13.57
20.79
25.13
27.21
27.79
27.47
26.59
25.26
23.57
21.72
19.99
18.58
17.58
16.92
16.43
15.98
15.46
14.85
14.04
12.86
11.07
8.49
5.12
1.21
-2.87
-6.75
-10.24
-13.44
-16.68
-20.42
-25.08
-30.80
-37.30
-43.77
-48.93
-51.32
-49.82
-44.02
-34.55
-22.88
-10.90
-0.31
7.84
13.32
16.53
18.09
18.52
18.06
16.78
14.71
12.03
9.11
6.49
4.66
3.93
4.22
5.14
6.12
6.58
6.21
4.97
3.10
0.94
-1.27
-3.44
-5.67
-8.10
-10.88
-14.11
-17.86
-22.06
-26.51
-30.71
-33.83
-34.85
-32.94
-27.74
-19.68
-9.92
0.00
8.66
15.17
19.35
21.52
22.24
21.93
20.82
19.01
16.62
13.97
11.51
9.68
8.72
8.52
8.67
8.63
7.99
6.58
4.50
2.08
-0.40
-2.76
-5.04
-7.44
-10.24
-13.72
-18.14
-23.56
-29.73
-35.94
-40.99
-43.51
-42.36
-37.09
-28.23
-17.20
-5.78
4.41
12.44
18.17
21.94
24.25
25.30
25.02
23.25
20.12
16.21
12.41
9.59
8.16
7.90
8.04
7.70
6.33
3.91
0.95
-1.93
-4.28
-6.17
-8.07
-10.69
-14.69
-20.43
-27.81
-36.20
-44.48
-51.15
-54.66
-53.81
-48.18
-38.33
-25.72
-12.36
-0.09
9.85
17.03
21.73
24.53
25.94
26.21
25.43
23.68
21.27
18.75
16.65
15.35
14.80
14.53
13.90
12.43
9.97
6.83
3.61
0.87
-1.21
-2.88
-4.80
-7.79
-12.47
-19.13
-27.58
-37.10
-46.45
-53.98
-58.06
-57.38
-51.54
-41.22
-28.09
-14.30
-1.73
8.46
16.08
21.61
25.77
29.05
31.57
33.11
33.42
32.45
30.45
27.97
25.61
23.82
22.69
21.95
21.11
19.66
17.39
14.38
10.94
7.41
4.00
0.63
-2.95
-7.04
-11.93
-17.82
-24.83
-32.91
-41.69
-50.31
-57.47
-61.56
-61.21
-55.71
-45.44
-31.84
-16.94
-2.83
8.97
17.80
23.84
27.81
30.55
32.70
34.57
36.14
37.25
37.73
37.50
36.61
35.25
33.63
31.99
30.48
29.17
28.01
26.81
25.26
22.97
19.62
15.09
9.57
3.50
-2.55
-8.16
-13.21
-17.98
-23.04
-29.08
-36.54
-45.34
-54.63
-62.83
-67.95
-68.22
-62.71
-51.81
-37.19
-21.28
-6.48
5.64
14.58
20.84
25.31
28.81
31.76
34.17
35.94
37.06
37.67
37.96
38.09
38.02
37.62
36.79
35.57
34.20
32.96
31.99
31.16
30.09
28.22
25.16
20.78
15.36
9.46
3.72
-1.36
-5.66
-9.45
-13.33
-18.06
-24.25
-32.09
-41.07
-49.97
-56.99
-60.26
-58.38
-51.00
-39.00
-24.25
-9.05
4.54
15.30
22.96
28.03
31.43
34.01
36.30
38.46
40.37
41.85
42.73
42.98
42.65
41.80
40.53
38.94
37.25
35.71
34.57
33.89
33.43
32.69
31.00
27.90
23.27
17.48
11.17
5.06
-0.35
-4.94
-8.96
-12.97
-17.65
-23.55
-30.77
-38.69
-45.96
-50.76
-51.37
-46.83
-37.37
-24.39
-10.06
3.48
14.73
23.11
28.92
32.86
35.63
37.67
39.10
39.89
40.06
39.76
39.27
38.82
38.48
38.06
37.28
35.92
34.02
31.86
29.87
28.26
26.94
25.42
23.07
19.45
14.55
8.79
2.94
-2.30
-6.55
-9.91
-12.85
-16.10
-20.34
-25.98
-32.94
-40.55
-47.49
-52.15
-52.98
-49.06
-40.48
-28.29
-14.33
-0.56
11.44
20.83
27.48
31.80
34.38
35.76
36.38
36.53
36.39
36.12
35.81
35.53
35.29
35.00
34.52
33.72
32.55
31.11
29.61
28.24
27.07
25.91
24.36
21.90
18.22
13.25
7.34
1.10
-4.80
-9.83
-13.87
-17.19
-20.48
-24.55
-30.05
-37.05
-44.85
-51.98
-56.59
-57.10
-52.73
-43.94
-32.31
-19.96
-8.94
-0.57
4.80
7.60
8.75
9.13
9.32
9.56
9.83
10.00
9.96
9.64
9.10
8.40
7.65
6.96
6.42
6.06
5.87
5.70
5.28
4.25
2.28
-0.75
-4.73
-9.26
-13.80
-17.86
-21.20
-23.97
-26.63
-29.89
-34.32
-40.04
-46.51
-52.48
-56.29
-56.37
-51.84
-42.92
-30.93
-17.86
-5.72
4.03
10.86
15.04
17.33
18.53
19.17
19.49
19.52
19.28
18.86
18.39
17.98
17.64
17.25
16.71
15.96
15.07
14.17
13.31
12.38
11.06
8.95
5.75
1.47
-3.52
-8.60
-13.21
-17.03
-20.18
-23.11
-26.45
-30.76
-36.34
-43.03
-50.15
-56.46
-60.42
-60.54
-55.93
-46.72
-34.19
-20.41
-7.59
2.66
9.76
14.11
16.67
18.37
19.77
20.95
21.69
21.83
21.37
20.48
19.45
18.47
17.58
16.72
15.87
15.04
14.36
13.89
13.48
12.79
11.34
8.83
5.20
0.80
-3.82
-8.12
-11.78
-14.87
-17.77
-21.11
-25.46
-31.21
-38.27
-45.87
-52.59
-56.59
-56.22
-50.55
-39.88
-25.75
-10.46
3.68
14.98
22.83
27.55
30.04
31.31
32.10
32.80
33.45
33.96
34.21
34.11
33.67
32.94
31.99
30.87
29.67
28.49
27.37
26.30
25.10
23.47
21.07
17.64
13.15
7.84
2.13
-3.50
-8.73
-13.47
-17.86
-22.22
-27.02
-32.67
-39.42
-47.06
-54.75
-61.06
-64.26
-62.85
-56.21
-44.94
-30.77
-16.07
-3.10
6.68
12.89
16.12
17.42
17.83
17.99
18.08
17.94
17.37
16.28
14.80
13.15
11.52
10.01
8.63
7.37
6.20
5.08
3.92
2.52
0.66
-1.87
-5.08
-8.83
-12.80
-16.74
-20.55
-24.30
-28.32
-33.02
-38.78
-45.66
-53.20
-60.25
-65.15
-66.14
-61.96
-52.48
-38.84
-23.18
-7.96
4.77
13.98
19.65
22.59
23.93
24.58
25.09
25.55
25.77
25.50
24.63
23.25
21.66
20.20
19.13
18.53
18.28
18.05
17.48
16.22
14.08
11.04
7.27
3.03
-1.41
-5.85
-10.26
-14.78
-19.70
-25.38
-32.16
-40.05
-48.55
-56.46
-62.11
-63.70
-60.05
-51.07
-37.92
-22.72
-7.83
4.87
14.48
21.05
25.33
28.22
30.44
32.32
33.84
34.81
35.05
34.55
33.49
32.21
31.07
30.31
29.92
29.64
29.04
27.72
25.44
22.18
18.07
13.33
8.17
2.72
-2.94
-8.74
-14.69
-20.94
-27.78
-35.53
-44.28
-53.55
-62.14
-68.26
-70.05
-66.23
-56.70
-42.66
-26.31
-10.10
4.00
14.98
22.83
28.25
32.17
35.30
38.02
40.32
42.05
43.06
43.32
42.91
41.99
40.71
39.23
37.71
36.27
34.97
33.73
32.32
30.36
27.44
23.30
17.98
11.83
5.43
-0.67
-6.18
-11.21
-16.24
-22.00
-29.17
-38.01
-48.05
-57.98
-65.80
-69.37
-67.07
-58.51
-44.69
-27.87
-10.72
4.45
16.36
24.87
30.68
34.71
37.66
39.83
41.20
41.80
41.77
41.44
41.13
40.99
40.92
40.68
40.11
39.16
37.98
36.78
35.59
34.23
32.24
29.09
24.44
18.32
11.20
3.92
-2.71
-8.14
-12.37
-16.01
-20.02
-25.41
-32.80
-42.04
-52.08
-61.10
-66.96
-67.79
-62.64
-51.83
-36.91
-20.20
-4.08
9.65
20.14
27.46
32.26
35.30
37.20
38.30
38.78
38.77
38.47
38.09
37.82
37.71
37.63
37.39
36.81
35.85
34.61
33.24
31.76
30.02
27.63
24.14
19.30
13.22
6.38
-0.47
-6.63
-11.73
-15.84
-19.51
-23.56
-28.82
-35.77
-44.19
-53.02
-60.44
-64.34
-63.00
-55.71
-43.24
-27.54
-11.18
3.52
15.14
23.37
28.74
32.08
34.04
34.95
34.91
34.05
32.68
31.28
30.29
29.87
29.87
29.92
29.66
28.91
27.78
26.43
25.03
23.45
21.41
18.56
14.68
9.82
4.30
-1.41
-6.87
-11.72
-15.93
-19.71
-23.59
-28.26
-34.33
-41.91
-50.39
-58.24
-63.42
-64.00
-58.85
-48.24
-33.75
-17.80
-2.83
9.44
18.30
23.96
27.18
28.76
29.35
29.35
29.04
28.62
28.24
27.97
27.75
27.47
26.99
26.28
25.40
24.42
23.44
22.41
21.11
19.23
16.45
12.59
7.72
2.18
-3.49
-8.74
-13.23
-16.94
-20.22
-23.72
-28.21
-34.28
-41.97
-50.57
-58.50
-63.69
-64.17
-58.79
-47.74
-32.63
-15.91
-0.14
12.83
22.21
28.23
31.67
33.43
34.20
34.36
34.07
33.41
32.44
31.29
30.08
28.95
27.94
27.07
26.25
25.35
24.25
22.80
20.82
18.13
14.56
10.07
4.82
-0.81
-6.31
-11.26
-15.55
-19.42
-23.52
-28.60
-35.20
-43.18
-51.53
-58.40
-61.60
-59.39
-51.17
-37.91
-21.84
-5.77
7.90
17.86
24.08
27.40
28.97
29.63
29.73
29.23
27.98
26.00
23.55
21.09
19.06
17.76
17.26
17.35
17.63
17.62
16.85
15.03
12.03
7.91
2.91
-2.67
-8.48
-14.24
-19.75
-24.97
-30.08
-35.53
-41.79
-49.09
-57.01
-64.30
-69.03
-69.21
-63.53
-52.10
-36.45
-19.19
-3.04
9.97
19.00
24.35
27.00
28.08
28.42
28.45
28.29
27.93
27.31
26.47
25.48
24.50
23.66
23.08
22.72
22.41
21.87
20.76
18.81
15.91
12.10
7.55
2.52
-2.78
-8.17
-13.63
-19.26
-25.32
-32.20
-40.13
-48.96
-57.80
-65.09
-68.90
-67.58
-60.42
-48.05
-32.29
-15.61
-0.33
12.02
20.93
26.74
30.31
32.48
33.88
34.87
35.58
36.01
36.10
35.77
34.97
33.79
32.35
30.86
29.47
28.20
26.95
25.48
23.52
20.81
17.16
12.51
6.92
0.64
-5.99
-12.54
-18.75
-24.63
-30.59
-37.28
-45.27
-54.55
-64.16
-72.32
-76.79
-75.66
-68.19
-55.10
-38.42
-20.81
-4.69
8.43
18.16
25.03
29.93
33.69
36.77
39.29
41.16
42.30
42.73
42.50
41.68
40.33
38.47
36.27
33.97
31.89
30.24
28.95
27.66
25.79
22.79
18.39
12.72
6.24
-0.44
-6.80
-12.67
-18.23
-24.06
-30.88
-39.26
-49.25
-60.02
-69.83
-76.37
-77.48
-71.92
-60.01
-43.56
-25.37
-8.28
5.67
15.71
22.21
26.16
28.62
30.24
31.25
31.57
31.17
30.23
29.12
28.30
28.03
28.19
28.33
27.86
26.31
23.57
19.91
15.78
11.58
7.39
3.04
-1.81
-7.43
-13.88
-21.14
-29.13
-37.83
-47.09
-56.40
-64.62
-70.11
-71.13
-66.51
-56.20
-41.48
-24.58
-7.98
6.35
17.46
25.37
30.80
34.58
37.32
39.23
40.25
40.29
39.42
37.95
36.35
35.01
34.14
33.66
33.25
32.51
31.09
28.81
25.69
21.88
17.56
12.85
7.78
2.32
-3.56
-9.90
-16.74
-24.22
-32.56
-41.92
-51.96
-61.65
-69.15
-72.35
-69.53
-60.23
-45.53
-27.84
-10.05
5.41
17.21
25.29
30.50
33.96
36.62
38.91
40.86
42.23
42.78
42.46
41.42
39.99
38.49
37.17
36.03
34.93
33.62
31.86
29.49
26.41
22.57
17.95
12.64
6.81
0.75
-5.32
-11.31
-17.39
-24.02
-31.74
-40.84
-50.97
-60.92
-68.81
-72.48
-70.30
-61.75
-47.83
-30.72
-13.13
2.54
14.83
23.44
28.96
32.40
34.71
36.51
38.04
39.25
39.96
40.01
39.33
37.99
36.22
34.35
32.73
31.56
30.83
30.21
29.21
27.29
24.08
19.52
13.90
7.73
1.56
-4.21
-9.51
-14.48
-19.56
-25.27
-32.15
-40.45
-49.87
-59.29
-66.81
-70.24
-67.82
-59.00
-44.79
-27.54
-10.15
4.90
16.25
23.82
28.44
31.29
33.23
34.70
35.74
36.22
36.09
35.47
34.58
33.63
32.70
31.74
30.64
29.35
27.90
26.36
24.71
22.80
20.28
16.80
12.17
6.52
0.26
-6.06
-11.99
-17.34
-22.32
-27.49
-33.53
-40.97
-49.85
-59.32
-67.64
-72.53
-71.96
-64.94
-52.07
-35.44
-17.91
-2.14
10.21
18.81
24.29
27.68
29.84
31.23
31.91
31.89
31.22
30.16
28.99
27.93
27.11
26.51
26.08
25.72
25.33
24.67
23.44
21.29
17.97
13.46
8.08
2.33
-3.30
-8.52
-13.36
-18.15
-23.39
-29.53
-36.82
-45.07
-53.47
-60.57
-64.53
-63.65
-57.01
-44.97
-29.30
-12.63
2.36
13.80
21.16
25.08
26.83
27.59
27.96
27.99
27.40
26.01
24.00
21.88
20.29
19.64
19.96
20.86
21.66
21.71
20.55
18.06
14.41
10.00
5.17
0.20
-4.75
-9.71
-14.75
-20.06
-25.95
-32.78
-40.72
-49.47
-57.97
-64.48
-66.98
-63.89
-54.77
-40.66
-23.81
-6.98
7.49
18.31
25.40
29.52
31.78
33.06
33.79
34.00
33.53
32.30
30.39
28.08
25.79
23.90
22.59
21.75
21.02
19.86
17.81
14.63
10.41
5.43
0.04
-5.47
-11.00
-16.58
-22.34
-28.44
-35.19
-42.91
-51.76
-61.44
-70.81
-77.99
-80.82
-77.66
-68.09
-53.29
-35.70
-18.13
-2.98
8.51
16.27
21.09
24.08
26.17
27.94
29.51
30.77
31.47
31.37
30.36
28.52
26.09
23.41
20.81
18.54
16.71
15.25
13.92
12.33
10.07
6.76
2.25
-3.33
-9.64
-16.23
-22.82
-29.40
-36.35
-44.21
-53.36
-63.58
-73.73
-81.82
-85.49
-82.87
-73.32
-57.79
-38.66
-18.86
-1.05
13.22
23.64
30.92
36.18
40.38
44.11
47.46
50.28
52.30
53.30
53.19
52.07
50.17
47.86
45.54
43.54
42.02
40.84
39.66
37.94
35.23
31.22
25.89
19.51
12.51
5.35
-1.66
-8.51
-15.52
-23.31
-32.49
-43.24
-54.93
-65.95
-73.99
-76.70
-72.61
-61.75
-45.74
-27.32
-9.42
5.73
17.11
24.92
30.14
33.89
37.06
40.00
42.64
44.62
45.64
45.53
44.40
42.55
40.37
38.24
36.36
34.79
33.41
31.96
30.13
27.62
24.19
19.74
14.36
8.31
1.92
-4.50
-10.90
-17.47
-24.72
-33.15
-42.96
-53.56
-63.54
-70.81
-73.26
-69.52
-59.59
-44.92
-28.03
-11.62
2.21
12.50
19.37
23.66
26.31
28.00
28.96
29.19
28.63
27.36
25.59
23.58
21.51
19.43
17.31
15.09
12.74
10.28
7.75
5.14
2.47
-0.20
-2.73
-4.92
-6.64
-7.86
-8.79
-9.84
-11.63
-14.87
-20.26
-28.26
-38.68
-50.47
-61.65
-69.65
-72.13
-67.71
-56.64
-40.70
-22.62
-5.19
9.57
20.79
28.72
34.16
38.05
41.04
43.46
45.33
46.66
47.41
47.59
47.26
46.44
45.19
43.60
41.85
40.17
38.79
37.78
36.86
35.50
32.98
28.71
22.54
14.88
6.62
-1.16
-7.71
-12.88
-17.22
-21.75
-27.61
-35.57
-45.63
-56.90
-67.62
-75.50
-78.32
-74.64
-64.36
-48.88
-30.68
-12.60
3.07
15.19
23.84
29.88
34.35
37.97
40.94
43.19
44.59
45.17
45.11
44.65
43.92
42.90
41.55
39.90
38.15
36.63
35.59
35.02
34.57
33.55
31.26
27.17
21.24
13.95
6.16
-1.16
-7.36
-12.32
-16.54
-20.92
-26.50
-33.99
-43.47
-54.14
-64.36
-72.03
-75.07
-72.08
-62.85
-48.51
-31.22
-13.57
2.21
14.78
23.81
29.80
33.61
36.01
37.57
38.54
39.11
39.42
39.64
39.90
40.17
40.26
39.88
38.85
37.16
35.02
32.78
30.71
28.82
26.81
24.17
20.35
15.09
8.59
1.41
-5.69
-12.07
-17.50
-22.20
-26.78
-32.00
-38.50
-46.51
-55.66
-64.85
-72.38
-76.26
-74.83
-67.35
-54.34
-37.60
-19.59
-2.79
11.06
21.21
27.87
31.77
33.75
34.47
34.38
33.80
33.04
32.39
32.07
32.06
32.15
31.99
31.27
29.94
28.22
26.54
25.28
24.45
23.69
22.32
19.61
15.17
9.08
1.92
-5.46
-12.28
-18.08
-22.90
-27.22
-31.82
-37.48
-44.71
-53.44
-62.80
-71.16
-76.43
-76.65
-70.76
-59.02
-43.05
-25.40
-8.69
5.14
15.22
21.75
25.54
27.59
28.61
29.04
29.01
28.57
27.78
26.76
25.72
24.87
24.33
24.13
24.17
24.27
24.25
23.93
23.08
21.45
18.76
14.80
9.63
3.56
-2.76
-8.66
-13.69
-17.87
-21.73
-26.16
-32.01
-39.62
-48.49
-57.18
-63.64
-65.71
-62.03
-52.47
-38.35
-22.04
-6.21
7.03
16.55
22.39
25.31
26.27
26.07
25.10
23.50
21.40
19.01
16.70
14.89
13.90
13.81
14.45
15.47
16.38
16.71
16.06
14.23
11.25
7.34
2.85
-1.90
-6.74
-11.67
-16.81
-22.37
-28.56
-35.60
-43.55
-52.17
-60.65
-67.51
-70.86
-69.02
-61.18
-47.97
-31.36
-14.09
1.24
12.98
20.75
25.20
27.49
28.65
29.30
29.58
29.36
28.49
26.97
25.01
22.96
21.25
20.17
19.86
20.17
20.71
20.95
20.33
18.44
15.10
10.42
4.69
-1.65
-8.18
-14.54
-20.57
-26.35
-32.26
-38.90
-46.77
-55.89
-65.42
-73.66
-78.38
-77.59
-70.30
-57.06
-39.79
-21.30
-4.33
9.24
18.70
24.45
27.59
29.33
30.58
31.80
32.98
33.87
34.16
33.72
32.61
31.12
29.59
28.31
27.37
26.65
25.86
24.63
22.63
19.68
15.73
10.93
5.48
-0.34
-6.35
-12.47
-18.79
-25.64
-33.42
-42.46
-52.61
-62.95
-71.80
-77.05
-76.84
-70.34
-58.17
-42.28
-25.30
-9.69
2.99
12.29
18.69
23.07
26.23
28.61
30.25
31.03
30.88
29.89
28.39
26.81
25.49
24.55
23.82
22.92
21.38
18.93
15.56
11.58
7.44
3.50
-0.10
-3.55
-7.36
-12.10
-18.30
-26.26
-35.80
-46.21
-56.17
-63.92
-67.66
-66.04
-58.72
-46.53
-31.34
-15.46
-0.89
11.11
20.28
27.02
31.92
35.33
37.34
37.89
37.09
35.31
33.15
31.15
29.60
28.40
27.19
25.59
23.34
20.47
17.22
13.87
10.65
7.50
4.16
0.13
-5.10
-11.96
-20.61
-30.81
-41.89
-52.69
-61.68
-67.21
-67.91
-63.11
-53.16
-39.38
-23.72
-8.19
5.66
17.03
25.74
31.98
35.95
37.77
37.48
35.40
32.12
28.50
25.45
23.53
22.76
22.62
22.30
21.09
18.75
15.59
12.26
9.41
7.22
5.29
2.67
-1.72
-8.74
-18.58
-30.54
-43.07
-54.01
-61.04
-62.36
-57.23
-46.27
-31.37
-15.03
0.35
13.16
22.84
29.71
34.46
37.69
39.66
40.29
39.50
37.47
34.70
31.93
29.87
28.83
28.64
28.71
28.27
26.72
23.88
20.02
15.63
11.23
6.99
2.75
-1.94
-7.64
-14.87
-23.87
-34.48
-46.00
-56.99
-65.52
-69.58
-67.68
-59.52
-46.17
-29.81
-12.97
2.17
14.46
23.77
30.62
35.76
39.68
42.60
44.48
45.29
45.06
44.03
42.53
40.88
39.33
37.97
36.74
35.46
33.94
31.94
29.33
25.99
21.84
16.88
11.21
5.00
-1.50
-8.11
-14.81
-21.89
-29.84
-39.17
-49.98
-61.55
-72.26
-79.81
-81.95
-77.31
-66.04
-49.83
-31.35
-13.35
2.19
14.47
23.67
30.53
35.71
39.66
42.53
44.46
45.64
46.35
46.82
47.08
46.93
46.12
44.48
42.13
39.44
36.97
35.15
34.07
33.32
32.12
29.52
24.87
18.07
9.70
0.78
-7.59
-14.69
-20.45
-25.49
-30.82
-37.49
-46.18
-56.86
-68.60
-79.65
-87.74
-90.72
-87.21
-77.15
-61.94
-43.97
-25.92
-9.91
2.94
12.63
19.83
25.35
29.82
33.48
36.37
38.53
40.07
41.23
42.18
42.95
43.34
43.13
42.11
40.37
38.23
36.19
34.63
33.53
32.45
30.58
27.15
21.74
14.56
6.41
-1.69
-8.80
-14.52
-19.04
-23.10
-27.64
-33.55
-41.32
-50.83
-61.24
-71.00
-78.08
-80.52
-76.98
-67.34
-52.82
-35.64
-18.29
-2.82
9.66
19.08
26.01
31.14
35.01
37.87
39.79
40.95
41.62
42.10
42.65
43.29
43.85
44.13
43.98
43.45
42.71
41.95
41.19
40.20
38.52
35.68
31.41
25.76
19.17
12.31
5.81
0.04
-4.99
-9.66
-14.64
-20.64
-28.21
-37.34
-47.28
-56.45
-62.76
-64.19
-59.49
-48.74
-33.41
-15.93
1.03
15.40
26.07
33.00
36.84
38.55
38.98
38.71
38.07
37.18
36.14
35.01
33.98
33.17
32.61
32.24
31.89
31.42
30.74
29.79
28.46
26.47
23.45
19.05
13.19
6.17
-1.39
-8.76
-15.45
-21.40
-26.99
-32.94
-40.00
-48.59
-58.44
-68.47
-76.81
-81.29
-80.16
-72.70
-59.69
-43.18
-25.82
-10.10
2.44
11.36
17.12
20.59
22.55
23.55
23.88
23.71
23.24
22.64
22.08
21.55
20.95
20.09
18.92
17.50
16.09
14.86
13.83
12.72
11.02
8.23
4.06
-1.37
-7.61
-14.03
-20.08
-25.52
-30.46
-35.37
-40.92
-47.69
-55.91
-65.08
-73.88
-80.33
-82.39
-78.59
-68.74
-54.05
-36.77
-19.47
-4.20
7.92
16.79
22.93
27.05
29.72
31.31
32.06
32.19
32.00
31.77
31.68
31.76
31.84
31.75
31.38
30.77
30.08
29.43
28.76
27.78
26.03
23.02
18.53
12.69
5.98
-0.91
-7.38
-13.13
-18.28
-23.34
-29.03
-35.96
-44.35
-53.69
-62.66
-69.35
-71.75
-68.43
-59.09
-44.83
-27.75
-10.41
5.05
17.35
26.22
32.13
35.89
38.20
39.50
40.02
39.91
39.34
38.56
37.82
37.22
36.70
36.04
34.96
33.38
31.38
29.25
27.24
25.39
23.42
20.83
17.14
12.10
5.93
-0.82
-7.44
-13.41
-18.55
-23.13
-27.76
-33.23
-40.24
-48.98
-58.94
-68.75
-76.34
-79.51
-76.64
-67.36
-52.76
-35.09
-16.99
-0.75
12.30
21.91
28.51
32.89
35.70
37.35
38.07
38.03
37.52
36.85
36.38
36.28
36.53
36.86
36.94
36.49
35.42
33.90
32.21
30.59
28.98
27.01
24.12
19.80
13.91
6.84
-0.63
-7.60
-13.44
-18.04
-21.89
-25.84
-30.86
-37.63
-46.29
-56.30
-66.35
-74.56
-78.91
-77.83
-70.71
-58.22
-42.17
-24.96
-8.84
4.57
14.64
21.46
25.61
27.74
28.46
28.22
27.43
26.39
25.33
24.40
23.66
23.11
22.72
22.45
22.27
22.14
21.94
21.50
20.57
18.89
16.26
12.62
8.11
3.05
-2.20
-7.33
-12.26
-17.17
-22.45
-28.59
-35.91
-44.34
-53.15
-60.92
-65.77
-65.88
-60.14
-48.63
-32.81
-15.10
1.83
15.82
25.78
31.76
34.59
35.36
34.91
33.69
31.85
29.51
26.92
24.50
22.74
21.97
22.21
23.19
24.46
25.49
25.81
25.07
23.09
19.84
15.48
10.33
4.80
-0.79
-6.27
-11.66
-17.19
-23.20
-30.09
-38.10
-47.15
-56.50
-64.68
-69.68
-69.52
-63.01
-50.36
-33.29
-14.59
2.80
16.70
26.23
31.71
34.22
34.92
34.59
33.55
31.78
29.25
26.17
23.01
20.37
18.76
18.38
18.99
20.03
20.80
20.72
19.42
16.86
13.17
8.57
3.25
-2.57
-8.71
-14.99
-21.32
-27.79
-34.71
-42.54
-51.60
-61.66
-71.67
-79.71
-83.51
-81.15
-71.96
-56.87
-38.23
-19.00
-1.85
11.68
21.29
27.65
31.78
34.53
36.36
37.44
37.87
37.83
37.58
37.35
37.18
37.00
36.62
35.95
35.01
33.88
32.59
31.02
28.92
25.92
21.75
16.36
10.01
3.13
-3.81
-10.48
-16.84
-23.18
-30.11
-38.30
-48.12
-59.21
-70.29
-79.28
-83.85
-82.23
-73.90
-59.88
-42.43
-24.30
-7.89
5.36
15.11
21.87
26.48
29.79
32.41
34.71
36.80
38.67
40.17
41.11
41.32
40.78
39.66
38.24
36.85
35.67
34.63
33.44
31.60
28.69
24.43
18.84
12.22
5.05
-2.20
-9.21
-15.86
-22.37
-29.19
-36.89
-45.87
-56.01
-66.41
-75.33
-80.55
-80.11
-73.05
-59.88
-42.56
-23.83
-6.25
8.44
19.67
27.78
33.56
37.73
40.79
42.99
44.54
45.64
46.51
47.31
48.07
48.66
48.84
48.40
47.26
45.57
43.71
42.06
40.87
39.98
38.77
36.38
32.05
25.50
17.14
7.96
-0.86
-8.37
-14.26
-18.94
-23.36
-28.72
-36.01
-45.65
-57.18
-69.13
-79.25
-85.05
-84.55
-77.03
-63.33
-45.66
-26.85
-9.49
4.83
15.72
23.69
29.65
34.31
38.03
40.83
42.68
43.67
44.07
44.22
44.35
44.48
44.38
43.77
42.46
40.52
38.24
36.00
34.01
32.18
30.13
27.25
23.06
17.39
10.50
3.08
-4.10
-10.45
-15.78
-20.35
-24.81
-29.86
-36.14
-43.95
-53.17
-63.08
-72.38
-79.30
-82.02
-79.19
-70.43
-56.63
-39.73
-22.20
-6.23
6.76
16.42
23.13
27.62
30.57
32.40
33.30
33.51
33.29
32.98
32.88
33.10
33.56
34.03
34.26
34.15
33.74
33.13
32.33
31.22
29.49
26.77
22.78
17.51
11.21
4.43
-2.19
-8.20
-13.45
-18.24
-23.27
-29.34
-37.01
-46.21
-56.05
-64.77
-70.25
-70.61
-64.89
-53.46
-37.94
-20.79
-4.49
9.07
19.04
25.53
29.29
31.28
32.24
32.62
32.52
31.99
31.07
29.95
28.87
28.06
27.61
27.44
27.35
27.12
26.53
25.42
23.61
20.91
17.15
12.29
6.51
0.20
-6.15
-12.11
-17.58
-22.81
-28.42
-35.12
-43.32
-52.70
-62.01
-69.17
-71.92
-68.60
-58.90
-44.05
-26.50
-9.07
5.98
17.45
25.27
30.06
32.68
33.84
34.06
33.70
33.07
32.45
31.95
31.53
30.98
30.12
28.89
27.41
25.91
24.55
23.30
21.80
19.51
15.95
10.84
4.28
-3.27
-11.16
-18.85
-26.03
-32.76
-39.45
-46.67
-54.90
-64.20
-73.92
-82.62
-88.34
-89.12
-83.65
-71.86
-55.03
-35.51
-15.99
1.22
14.81
24.55
31.10
35.49
38.70
41.37
43.71
45.70
47.15
47.97
48.13
47.64
46.58
45.05
43.28
41.52
40.02
38.81
37.67
36.08
33.38
29.04
22.89
15.25
6.85
-1.41
-8.81
-15.05
-20.38
-25.55
-31.54
-39.18
-48.72
-59.46
-69.73
-77.25
-79.76
-75.86
-65.51
-50.16
-32.27
-14.56
0.82
12.79
21.36
27.32
31.67
35.21
38.36
41.15
43.46
45.23
46.49
47.37
47.90
47.97
47.38
45.99
43.94
41.63
39.56
38.00
36.76
35.17
32.40
27.78
21.20
13.16
4.58
-3.48
-10.31
-15.74
-20.20
-24.57
-29.96
-37.25
-46.75
-57.86
-68.96
-77.76
-81.89
-79.73
-70.93
-56.73
-39.45
-21.80
-5.98
6.79
16.38
23.37
28.50
32.35
35.17
37.01
37.94
38.19
38.11
37.98
37.95
37.92
37.63
36.86
35.57
33.93
32.28
30.88
29.76
28.58
26.75
23.67
18.96
12.73
5.50
-1.99
-9.06
-15.34
-20.98
-26.54
-32.74
-40.21
-49.06
-58.73
-67.93
-74.87
-77.71
-75.12
-66.74
-53.52
-37.40
-20.81
-5.93
5.95
14.53
20.39
24.46
27.54
30.08
32.12
33.56
34.29
34.39
34.10
33.63
33.13
32.62
32.07
31.48
30.91
30.40
29.91
29.13
27.62
24.84
20.51
14.68
7.80
0.58
-6.31
-12.48
-17.93
-23.04
-28.48
-34.94
-42.84
-51.96
-61.20
-68.69
-72.13
-69.63
-60.47
-45.54
-27.17
-8.40
8.01
20.36
28.30
32.56
34.35
34.80
34.58
33.95
32.91
31.40
29.51
27.49
25.70
24.42
23.75
23.53
23.43
23.00
21.90
19.92
17.01
13.29
8.89
3.98
-1.26
-6.70
-12.20
-17.73
-23.42
-29.62
-36.74
-45.03
-54.21
-63.21
-70.26
-73.29
-70.68
-61.92
-47.94
-30.95
-13.67
1.56
13.37
21.58
26.83
30.05
31.97
32.93
33.00
32.21
30.64
28.56
26.29
24.14
22.31
20.95
20.08
19.59
19.19
18.46
16.95
14.29
10.35
5.28
-0.64
-7.06
-13.71
-20.43
-27.20
-34.14
-41.55
-49.80
-59.04
-68.90
-78.19
-85.01
-87.23
-83.25
-72.74
-56.89
-38.18
-19.48
-3.20
9.35
18.09
23.85
27.75
30.76
33.45
35.95
38.13
39.73
40.58
40.61
39.91
38.67
37.13
35.55
34.09
32.76
31.40
29.70
27.27
23.80
19.13
13.41
6.95
0.16
-6.58
-13.15
-19.67
-26.57
-34.42
-43.60
-54.01
-64.72
-74.00
-79.62
-79.62
-73.03
-60.39
-43.61
-25.36
-8.18
6.24
17.33
25.46
31.45
36.04
39.65
42.47
44.55
45.99
46.93
47.53
47.78
47.53
46.58
44.82
42.39
39.68
37.20
35.32
34.06
32.97
31.24
28.03
22.81
15.61
7.04
-1.89
-10.16
-17.10
-22.59
-27.10
-31.58
-37.11
-44.62
-54.39
-65.77
-77.00
-85.62
-89.06
-85.59
-75.00
-58.77
-39.62
-20.57
-3.98
9.03
18.55
25.45
30.69
34.92
38.34
40.89
42.56
43.52
44.12
44.70
45.43
46.22
46.73
46.61
45.71
44.17
42.38
40.78
39.60
38.68
37.48
35.27
31.48
25.88
18.77
10.80
2.79
-4.62
-11.17
-16.98
-22.53
-28.46
-35.47
-44.06
-54.34
-65.73
-76.83
-85.57
-89.68
-87.48
-78.50
-63.82
-45.74
-27.00
-9.96
4.11
14.95
23.08
29.22
33.88
37.26
39.45
40.62
41.12
41.37
41.70
42.21
42.70
42.85
42.35
41.16
39.51
37.85
36.59
35.87
35.38
34.41
32.14
27.95
21.79
14.21
6.18
-1.28
-7.48
-12.34
-16.32
-20.30
-25.26
-31.94
-40.67
-50.99
-61.66
-70.72
-75.94
-75.48
-68.55
-55.80
-39.14
-21.14
-4.18
10.19
21.46
29.95
36.24
40.83
43.96
45.67
46.10
45.53
44.41
43.19
42.12
41.25
40.43
39.47
38.24
36.71
34.95
33.00
30.85
28.37
25.32
21.37
16.24
9.86
2.45
-5.44
-13.14
-20.01
-25.82
-30.76
-35.44
-40.68
-47.20
-55.26
-64.42
-73.42
-80.42
-83.44
-80.97
-72.59
-59.18
-42.71
-25.64
-10.17
2.35
11.51
17.74
21.79
24.33
25.87
26.67
26.92
26.88
26.77
26.80
27.01
27.32
27.59
27.65
27.43
26.88
25.97
24.57
22.47
19.48
15.46
10.44
4.63
-1.62
-7.93
-13.94
-19.54
-24.81
-30.19
-36.25
-43.48
-51.82
-60.45
-67.66
-71.32
-69.56
-61.54
-47.87
-30.56
-12.36
4.12
17.11
26.08
31.47
34.22
35.24
35.12
34.12
32.38
30.09
27.57
25.26
23.54
22.59
22.31
22.39
22.41
21.92
20.65
18.41
15.22
11.18
6.48
1.30
-4.25
-10.09
-16.27
-22.91
-30.27
-38.60
-48.00
-58.10
-67.90
-75.71
-79.52
-77.64
-69.37
-55.41
-37.78
-19.22
-2.32
11.18
20.74
26.82
30.39
32.43
33.59
34.12
34.06
33.44
32.39
31.12
29.92
28.94
28.25
27.81
27.49
27.10
26.38
25.02
22.74
19.32
14.71
9.04
2.62
-4.23
-11.20
-18.20
-25.35
-32.99
-41.58
-51.36
-62.05
-72.57
-81.07
-85.39
-83.68
-75.22
-60.75
-42.38
-22.92
-4.99
9.61
20.28
27.42
31.97
34.95
37.14
38.92
40.40
41.48
42.02
41.94
41.26
40.13
38.72
37.20
35.61
33.81
31.58
28.70
25.04
20.66
15.69
10.29
4.53
-1.56
-8.01
-14.84
-22.07
-29.83
-38.36
-47.82
-58.02
-68.04
-76.20
-80.27
-78.33
-69.47
-54.38
-35.25
-15.07
3.29
17.96
28.40
35.17
39.41
42.21
44.24
45.75
46.68
46.90
46.31
44.96
43.02
40.76
38.53
36.59
35.06
33.77
32.30
30.12
26.75
21.99
16.01
9.22
2.09
-5.05
-12.10
-19.18
-26.53
-34.49
-43.40
-53.43
-64.36
-75.29
-84.59
-90.20
-90.24
-83.77
-71.30
-54.74
-36.87
-20.41
-7.20
2.07
7.81
10.92
12.33
12.65
12.17
11.01
9.30
7.31
5.33
3.68
2.65
2.49
3.44
5.62
9.06
13.60
18.92
24.49
29.74
34.07
36.93
38.02
37.26
34.82
31.07
26.32
20.65
13.79
5.32
-5.07
-17.03
-29.27
-39.65
-45.71
-45.47
-38.26
-25.05
-8.13
9.50
25.23
37.40
45.53
50.11
52.11
52.48
51.94
50.88
49.51
47.98
46.39
44.86
43.44
42.13
40.86
39.54
38.06
36.37
34.41
32.06
29.12
25.37
20.59
14.72
7.92
0.55
-6.92
-14.01
-20.49
-26.51
-32.57
-39.48
-47.82
-57.59
-67.75
-76.28
-80.64
-78.72
-69.70
-54.51
-35.64
-16.26
0.86
14.05
23.09
28.72
32.09
34.16
35.41
35.98
35.86
35.13
34.00
32.80
31.83
31.28
31.23
31.56
32.01
32.22
31.78
30.28
27.51
23.45
18.28
12.31
5.86
-0.74
-7.30
-13.74
-20.20
-27.01
-34.66
-43.53
-53.50
-63.65
-72.15
-76.69
-75.22
-66.81
-52.15
-33.46
-13.80
4.03
18.15
28.05
34.22
37.67
39.33
39.83
39.47
38.47
37.10
35.67
34.52
33.84
33.65
33.83
34.22
34.61
34.80
34.57
33.62
31.64
28.38
23.71
17.78
10.91
3.58
-3.74
-10.79
-17.64
-24.74
-32.73
-42.12
-52.83
-63.93
-73.56
-79.43
-79.53
-72.86
-59.90
-42.57
-23.60
-5.68
9.21
20.25
27.65
32.27
35.10
36.92
38.12
38.82
39.09
38.95
38.58
38.06
37.44
36.66
35.63
34.35
32.95
31.64
30.51
29.41
27.86
25.26
21.07
15.10
7.61
-0.72
-9.02
-16.54
-22.86
-28.10
-32.86
-38.15
-44.97
-53.95
-64.90
-76.55
-86.70
-92.71
-92.43
