1680854181.00
64.000000
-0.00
-0.00
-0.00
-0.00
-0.00
-0.00
-0.00
-0.00
-0.00
-0.00
0.00
0.01
0.01
-0.00
-0.03
-0.05
-0.05
0.00
0.13
0.36
0.66
1.01
1.37
1.72
2.06
2.40
2.79
3.24
3.80
4.42
5.06
5.66
6.20
6.68
7.15
7.68
8.31
9.14
10.09
11.04
11.88
12.56
13.14
13.76
14.65
15.96
17.91
20.32
22.90
25.38
27.58
29.57
31.68
34.32
37.81
42.54
48.15
54.10
59.83
64.97
69.58
74.14
79.34
85.71
93.76
103.00
112.62
121.73
129.77
136.75
143.30
150.75
157.77
166.64
177.95
191.79
206.97
220.57
228.25
225.36
208.53
176.87
132.76
80.05
23.07
-34.94
-92.44
-149.16
-205.23
-260.37
-313.74
-363.87
-409.83
-450.89
-486.48
-515.69
-537.16
-549.13
-549.83
-538.20
-513.99
-478.41
-433.56
-382.07
-326.58
-269.33
-212.06
-156.01
-102.23
-51.58
-5.04
36.53
72.46
102.48
126.74
145.73
160.16
170.76
178.13
182.68
184.69
184.40
182.07
178.06
172.78
166.62
159.95
153.01
145.94
138.81
131.67
124.55
117.53
110.68
104.05
97.72
91.70
86.02
80.70
75.72
71.12
66.89
63.04
59.57
56.49
53.80
51.49
49.57
48.01
46.81
45.92
45.27
44.77
44.30
43.68
42.76
41.35
39.29
36.48
32.85
28.42
23.22
17.41
11.19
4.80
-1.49
-7.42
-12.75
-17.28
-20.90
-23.53
-25.16
-25.86
-25.74
-24.90
-23.51
-21.71
-19.62
-17.34
-14.95
-12.50
-10.03
-7.60
-5.19
-2.82
-0.46
1.92
4.33
6.85
9.50
12.29
15.19
18.23
21.38
24.67
28.09
31.64
35.36
39.28
43.32
47.41
51.55
55.76
60.06
64.50
69.15
74.10
79.46
85.09
90.90
96.82
102.81
108.82
114.83
120.82
126.80
132.81
138.56
143.83
148.42
152.12
154.64
155.63
154.60
150.85
145.71
139.65
132.97
125.90
118.57
111.14
103.70
96.40
89.38
82.81
76.57
70.61
64.90
59.45
54.27
49.37
44.81
40.61
36.85
33.39
30.12
27.00
24.02
21.18
18.49
15.99
13.73
11.77
10.01
8.38
6.87
5.41
3.99
2.58
1.16
-0.25
-1.62
-2.92
-4.11
-5.15
-5.98
-6.61
-7.07
-7.40
-7.66
-7.88
-8.08
-8.26
-8.41
-8.52
-8.66
-8.89
-9.32
-10.02
-11.00
-12.20
-13.49
-14.74
-15.90
-17.00
-18.22
-19.79
-21.90
-24.58
-27.70
-31.03
-34.27
-37.31
-40.29
-43.58
-47.65
-52.85
-59.23
-66.47
-73.96
-81.10
-87.56
-93.48
-99.47
-106.33
-114.70
-124.78
-136.19
-148.23
-160.14
-171.51
-182.50
-193.68
-205.93
-220.21
-237.43
-258.22
-282.53
-309.03
-334.93
-356.28
-369.05
-370.60
-360.73
-341.73
-317.46
-291.64
-266.63
-242.99
-220.02
-196.96
-173.69
-150.99
-129.90
-111.13
-94.62
-79.65
-65.47
-51.71
-38.55
-26.66
-16.70
-8.96
-3.14
1.46
5.72
10.23
15.11
20.01
24.31
27.52
29.48
30.44
30.86
31.23
31.78
32.45
32.90
32.80
31.94
30.39
28.46
26.51
24.84
23.49
22.37
21.18
19.64
17.53
14.82
11.70
8.62
6.16
4.93
5.38
7.69
11.62
16.62
21.96
26.96
31.18
34.41
36.67
38.10
38.88
39.18
39.21
39.14
39.09
38.98
38.66
37.86
36.34
34.10
31.34
28.45
25.91
24.08
23.13
22.94
23.13
23.21
22.66
21.18
18.75
15.64
12.31
9.20
6.55
4.38
2.49
0.57
-1.66
-4.31
-7.41
-10.77
-14.08
-16.82
-18.35
-18.02
-15.46
-10.81
-4.80
1.50
7.02
11.10
13.77
15.54
17.05
18.71
20.46
21.91
22.57
22.20
20.84
18.82
16.48
14.07
11.66
9.28
6.93
4.57
2.18
-0.41
-3.32
-6.67
-10.43
-14.40
-18.29
-21.92
-25.39
-29.09
-33.59
-39.29
-46.25
-54.02
-61.85
-69.10
-75.56
-81.63
-88.16
-96.00
-105.49
-115.95
-125.60
-131.83
-131.91
-123.87
-107.27
-83.63
-56.16
-29.07
-6.46
8.83
16.02
16.62
14.19
13.34
18.53
32.61
55.85
85.67
117.16
144.43
162.00
166.04
154.98
129.54
92.38
47.51
-0.39
-46.67
-87.38
-119.88
-143.04
-157.22
-163.76
-164.25
-160.08
-152.17
-141.20
-127.84
-113.04
-98.10
-84.42
-73.22
-65.22
-60.57
-59.06
-60.38
-64.32
-70.67
-78.97
-88.25
-97.01
-103.48
-106.00
-103.57
-96.02
-83.98
-68.63
-51.26
-33.04
-14.83
2.74
19.27
34.44
48.01
59.67
69.15
76.43
81.85
86.10
89.97
94.07
98.39
102.43
105.40
106.67
106.25
104.74
103.00
101.55
100.25
98.28
94.58
88.45
79.85
69.48
58.37
47.55
37.60
28.57
20.17
11.98
3.66
-5.06
-14.42
-24.68
-35.90
-47.69
-58.99
-68.18
-73.51
-73.75
-68.54
-58.48
-44.84
-29.05
-12.31
4.58
21.10
36.85
51.38
64.22
74.96
83.25
89.01
92.38
93.86
94.23
94.36
94.94
96.12
97.44
98.05
97.15
94.43
90.23
85.29
80.23
75.16
69.55
62.66
54.06
44.09
33.74
24.21
16.22
9.72
4.00
-1.77
-8.10
-14.91
-21.89
-28.95
-36.44
-44.90
-54.51
-64.58
-73.39
-78.82
-79.03
-73.24
-61.91
-46.54
-29.04
-11.18
5.79
21.27
35.04
47.17
57.79
67.01
74.95
81.69
87.42
92.32
96.69
100.74
104.58
108.11
111.08
113.29
114.65
115.23
115.09
114.15
112.01
108.08
101.90
93.38
82.98
71.59
60.11
49.14
38.74
28.59
18.26
7.63
-3.06
-13.19
-22.09
-29.24
-34.45
-37.89
-39.98
-41.17
-41.63
-41.10
-38.94
-34.44
-27.25
-17.67
-6.62
4.71
15.29
24.65
32.85
40.24
47.20
53.83
59.92
65.06
68.74
70.49
70.08
67.61
63.54
58.55
53.32
48.16
43.04
37.73
32.11
26.40
21.10
16.69
13.33
10.73
8.33
5.66
2.54
-0.99
-4.78
-8.87
-13.37
-18.33
-23.54
-28.52
-32.74
-35.95
-38.39
-40.71
-43.67
-47.77
-52.85
-57.93
-61.34
-61.26
-56.20
-45.71
-30.61
-12.73
5.67
22.67
37.28
49.49
59.84
68.86
76.71
83.14
87.74
90.23
90.57
88.83
85.17
79.68
72.60
64.26
55.19
45.95
37.01
28.74
21.38
15.13
10.06
6.04
2.66
-0.69
-4.67
-9.65
-15.65
-22.33
-29.18
-35.79
-41.94
-47.65
-53.06
-58.40
-63.95
-69.99
-76.78
-84.29
-92.03
-98.90
-103.31
-103.53
-98.30
-87.39
-71.74
-53.22
-34.11
-16.28
-0.85
11.99
22.55
31.34
38.71
44.93
50.23
54.93
59.37
63.79
68.12
71.89
74.41
74.99
73.19
68.97
62.69
55.05
46.86
38.84
31.39
24.37
17.34
9.71
1.11
-8.46
-18.68
-29.14
-39.65
-50.34
-61.64
-73.95
-87.50
-102.26
-118.03
-134.60
-151.66
-168.62
-184.39
-197.48
-206.30
-209.83
-207.96
-201.61
-192.40
-182.00
-171.46
-161.05
-150.26
-138.31
-124.73
-109.68
-94.01
-78.97
-65.58
-54.23
-44.44
-35.16
-25.21
-13.60
0.36
17.16
37.06
59.84
84.52
109.25
131.92
150.85
165.50
176.53
185.15
192.29
197.93
201.05
200.21
194.33
183.38
168.66
152.45
137.21
124.49
114.09
103.99
91.31
73.95
52.08
28.50
7.48
-7.31
-14.55
-15.77
-14.24
-13.14
-14.00
-16.33
-18.25
-17.50
-12.27
-1.43
15.19
36.39
59.34
79.83
93.55
97.85
93.14
82.94
72.35
65.57
63.96
65.71
67.24
65.51
59.78
51.74
44.22
39.28
37.00
35.68
33.11
28.02
20.81
13.14
6.87
2.89
0.59
-1.80
-6.09
-13.20
-22.60
-32.61
-41.31
-47.55
-51.55
-54.76
-59.05
-65.64
-74.30
-83.33
-90.10
-92.14
-88.10
-78.23
-64.14
-48.17
-32.43
-18.34
-6.37
3.73
12.50
20.40
27.62
34.08
39.53
43.74
46.53
47.78
47.56
46.06
43.69
41.03
38.67
36.98
35.99
35.34
34.48
32.94
30.55
27.48
24.06
20.56
16.95
12.93
8.18
2.61
-3.50
-9.59
-15.16
-20.03
-24.47
-29.04
-34.38
-40.92
-48.79
-57.74
-67.11
-75.79
-82.29
-85.06
-82.93
-75.60
-63.80
-49.12
-33.42
-18.36
-4.92
6.60
16.27
24.35
31.01
36.40
40.58
43.66
45.72
46.85
47.15
46.65
45.42
43.51
41.11
38.48
36.04
34.10
32.81
32.00
31.28
30.13
28.15
25.14
21.11
16.21
10.72
4.97
-0.73
-6.19
-11.35
-16.36
-21.49
-27.02
-33.15
-40.00
-47.52
-55.38
-62.80
-68.56
-71.13
-69.24
-62.37
-51.07
-36.80
-21.37
-6.39
7.23
19.17
29.52
38.34
45.60
51.14
54.94
57.14
58.07
58.24
58.10
57.93
57.76
57.34
56.31
54.36
51.46
47.92
44.25
40.94
38.15
35.64
32.94
29.62
25.52
20.80
15.77
10.66
5.54
0.28
-5.25
-11.12
-17.28
-23.64
-30.16
-36.92
-44.12
-52.02
-60.87
-70.72
-81.30
-91.89
-101.30
-108.05
-110.80
-108.80
-102.15
-91.86
-79.52
-66.78
-54.94
-44.64
-35.89
-28.25
-21.17
-14.27
-7.41
-0.80
5.26
10.44
14.59
17.72
19.99
21.55
22.48
22.85
22.69
22.16
21.45
20.77
20.19
19.63
18.86
17.68
15.94
13.68
11.02
8.02
4.69
0.82
-3.71
-8.90
-14.48
-19.92
-24.68
-28.44
-31.37
-34.11
-37.55
-42.48
-49.33
-57.88
-67.27
-76.15
-82.82
-85.73
-83.79
-76.67
-64.99
-50.17
-33.98
-18.10
-3.72
8.58
18.78
27.17
34.13
40.03
45.12
49.55
53.34
56.35
58.36
59.19
58.78
57.27
55.00
52.40
49.89
47.79
46.24
45.21
44.44
43.48
41.89
39.37
35.95
31.96
27.92
24.18
20.83
17.56
13.84
9.22
3.49
-3.21
-10.50
-17.91
-25.04
-31.59
-37.44
-42.71
-47.77
-53.16
-59.37
-66.49
-73.92
-80.33
-84.04
-83.51
-77.99
-67.79
-54.17
-38.91
-23.73
-9.89
2.03
11.89
19.90
26.40
31.70
36.04
39.56
42.31
44.29
45.42
45.63
44.96
43.54
41.61
39.48
37.44
35.67
34.18
32.77
31.10
28.87
25.94
22.39
18.53
14.61
10.81
6.98
2.84
-1.87
-7.17
-12.85
-18.47
-23.67
-28.28
-32.47
-36.58
-41.06
-46.21
-52.17
-58.82
-65.75
-72.25
-77.33
-79.86
-78.83
-73.66
-64.42
-51.92
-37.56
-22.89
-9.28
2.41
11.95
19.65
26.04
31.58
36.40
40.33
43.03
44.22
43.98
42.75
41.07
39.40
37.97
36.68
35.34
33.83
32.15
30.42
28.67
26.85
24.72
22.04
18.59
14.36
9.47
4.11
-1.50
-7.14
-12.63
-17.85
-22.78
-27.53
-32.36
-37.58
-43.49
-50.24
-57.64
-65.01
-71.27
-75.07
-75.16
-70.76
-61.92
-49.55
-35.15
-20.42
-6.81
4.81
14.17
21.51
27.31
32.10
36.32
40.10
43.38
45.86
47.21
47.31
46.25
44.41
42.23
40.13
38.30
36.70
35.18
33.55
31.70
29.65
27.48
25.25
22.94
20.37
17.26
13.34
8.41
2.48
-4.15
-11.00
-17.53
-23.33
-28.27
-32.57
-36.76
-41.56
-47.57
-55.07
-63.72
-72.50
-79.84
-84.01
-83.68
-78.30
-68.34
-55.12
-40.35
-25.70
-12.33
-0.80
8.87
16.95
23.76
29.55
34.53
38.86
42.66
45.95
48.54
50.12
50.35
49.14
46.77
43.87
41.11
38.93
37.35
36.01
34.47
32.39
29.78
26.83
23.75
20.60
17.24
13.44
9.07
4.16
-1.06
-6.30
-11.29
-15.84
-19.91
-23.55
-26.92
-30.32
-34.18
-39.01
-45.19
-52.78
-61.31
-69.63
-76.22
-79.46
-78.17
-71.92
-61.29
-47.65
-32.79
-18.49
-5.93
4.40
12.74
19.68
25.90
31.78
37.32
42.32
46.38
49.25
50.81
51.12
50.37
48.82
46.81
44.70
42.78
41.25
40.14
39.29
38.42
37.22
35.44
33.00
30.01
26.69
23.25
19.71
15.85
11.37
6.04
-0.05
-6.47
-12.64
-18.02
-22.47
-26.28
-30.07
-34.57
-40.29
-47.35
-55.26
-62.96
-68.99
-71.83
-70.27
-63.90
-53.27
-39.78
-25.28
-11.49
0.46
10.22
18.08
24.61
30.29
35.33
39.60
42.81
44.75
45.38
44.87
43.53
41.71
39.72
37.77
35.99
34.40
33.00
31.80
30.86
30.24
29.89
29.61
28.97
27.50
24.79
20.72
15.55
9.83
4.12
-1.15
-5.83
-10.05
-14.01
-17.99
-22.23
-26.97
-32.44
-38.70
-45.47
-52.02
-57.16
-59.58
-58.22
-52.73
-43.55
-31.81
-18.95
-6.36
4.96
14.45
21.96
27.64
31.83
34.94
37.29
39.02
40.06
40.19
39.37
37.74
35.69
33.61
31.72
29.97
28.21
26.36
24.54
23.05
22.04
21.38
20.62
19.10
16.36
12.29
7.25
1.83
-3.34
-7.95
-11.98
-15.70
-19.44
-23.42
-27.73
-32.36
-37.35
-42.87
-49.13
-56.09
-63.25
-69.52
-73.44
-73.69
-69.54
-61.15
-49.53
-36.14
-22.53
-9.88
1.11
10.29
17.79
23.91
28.93
33.04
36.25
38.55
39.90
40.33
39.96
38.98
37.59
35.96
34.24
32.59
31.12
29.96
29.07
28.22
27.10
25.40
22.93
19.78
16.18
12.41
8.75
5.26
1.89
-1.46
-4.91
-8.56
-12.36
-16.27
-20.25
-24.25
-28.31
-32.52
-37.07
-42.29
-48.42
-55.44
-62.76
-69.28
-73.42
-73.79
-69.58
-60.98
-49.12
-35.66
-22.25
-10.06
0.39
9.09
16.28
22.31
27.42
31.78
35.58
38.86
41.60
43.66
44.92
45.28
44.80
43.66
42.09
40.31
38.50
36.86
35.49
34.41
33.42
32.12
30.07
26.99
22.98
18.48
14.15
10.45
7.49
4.90
2.09
-1.45
-5.82
-10.75
-15.73
-20.25
-24.11
-27.43
-30.62
-34.20
-38.68
-44.33
-51.14
-58.66
-65.97
-71.77
-74.63
-73.45
-67.77
-58.07
-45.64
-32.20
-19.36
-8.19
0.90
8.10
13.83
18.58
22.71
26.47
29.99
33.24
36.12
38.35
39.73
40.17
39.86
39.15
38.46
38.04
37.92
37.95
37.89
37.54
36.76
35.40
33.33
30.49
27.00
23.20
19.58
16.54
14.22
12.37
10.46
7.93
4.37
-0.22
-5.49
-10.90
-15.97
-20.40
-24.26
-27.93
-31.98
-36.91
-42.84
-49.28
-55.11
-58.92
-59.41
-55.87
-48.47
-38.16
-26.41
-14.75
-4.44
3.85
9.96
14.19
17.11
19.29
21.19
23.02
24.75
26.20
27.22
27.68
27.59
27.03
26.15
25.10
24.04
23.12
22.43
21.96
21.59
21.09
20.24
18.91
17.12
14.98
12.58
9.94
6.97
3.54
-0.31
-4.42
-8.46
-12.14
-15.36
-18.30
-21.38
-25.12
-29.92
-35.89
-42.78
-49.88
-56.11
-60.23
-61.09
-58.05
-51.21
-41.38
-29.93
-18.35
-7.87
0.79
7.41
12.21
15.63
18.21
20.42
22.54
24.60
26.39
27.60
27.96
27.45
26.30
24.91
23.65
22.72
22.12
21.70
21.20
20.47
19.43
18.11
16.58
14.85
12.83
10.43
7.51
4.03
0.11
-4.02
-8.15
-12.06
-15.66
-19.01
-22.27
-25.66
-29.46
-33.92
-39.20
-45.22
-51.54
-57.28
-61.27
-62.27
-59.40
-52.46
-42.01
-29.34
-16.08
-3.76
6.60
14.61
20.53
24.91
28.38
31.40
34.23
36.92
39.43
41.69
43.71
45.47
46.92
47.98
48.57
48.66
48.38
48.02
47.95
48.46
49.68
51.53
53.75
56.06
58.15
59.76
60.60
60.35
58.78
55.96
52.36
48.86
46.36
45.38
45.64
46.09
45.29
42.03
36.07
28.37
20.82
15.54
13.97
16.37
21.81
28.51
34.63
38.76
40.12
38.63
34.66
28.89
22.41
16.55
12.49
10.64
10.21
9.55
7.24
3.44
0.43
1.93
11.34
29.87
55.70
84.47
111.14
131.73
144.43
149.41
147.95
141.58
131.63
119.34
106.00
92.89
80.97
70.63
61.66
53.48
45.32
36.48
26.49
15.24
2.98
-9.74
-22.42
-34.91
-47.61
-61.40
-77.09
-94.76
-113.45
-131.19
-145.73
-155.50
-160.20
-161.01
-160.05
-159.52
-160.91
-164.59
-169.95
-175.63
-180.09
-181.96
-180.43
-175.38
-167.56
-158.31
-149.17
-141.18
-134.56
-128.66
-122.46
-115.18
-106.67
-97.21
-87.21
-76.87
-66.23
-55.57
-45.55
-37.11
-31.02
-27.40
-25.66
-24.90
-24.37
-23.70
-22.80
-21.53
-19.66
-17.08
-14.31
-12.50
-13.05
-16.80
-23.37
-31.22
-38.27
-42.81
-44.08
-42.28
-38.06
-31.96
-24.13
-14.49
-3.03
9.86
23.42
36.61
48.38
57.83
64.39
67.87
68.59
67.32
65.10
62.96
61.59
61.09
61.04
60.64
59.07
55.83
50.89
44.68
37.92
31.33
25.34
19.90
14.56
8.69
1.86
-5.87
-13.95
-21.56
-28.11
-33.43
-37.85
-41.94
-46.39
-51.81
-58.65
-67.06
-76.80
-86.98
-96.17
-102.67
-105.11
-103.01
-96.95
-88.36
-78.96
-70.09
-62.32
-55.43
-48.70
-41.24
-32.38
-21.84
-9.85
2.91
15.45
26.81
36.39
44.13
50.48
56.28
62.30
69.04
76.52
84.33
91.73
97.88
102.04
103.79
103.14
100.41
96.11
90.77
84.66
77.77
69.91
60.87
50.59
39.03
26.17
11.96
-3.46
-19.45
-34.71
-47.37
-55.56
-58.26
-55.70
-49.41
-41.46
-33.59
-26.57
-20.18
-13.68
-6.54
1.21
8.97
16.10
22.15
27.07
30.92
33.67
35.03
34.66
32.41
28.58
23.84
18.97
14.56
10.84
7.69
4.75
1.71
-1.70
-5.58
-9.89
-14.53
-19.27
-23.82
-27.96
-31.58
-34.79
-37.88
-41.19
-45.05
-49.55
-54.41
-58.97
-62.32
-63.45
-61.53
-56.18
-47.70
-36.93
-25.10
-13.43
-2.83
6.19
13.58
19.50
24.22
27.91
30.78
32.93
34.53
35.79
36.88
37.82
38.49
38.71
38.25
37.10
35.48
33.83
32.61
32.12
32.24
32.42
31.92
30.04
26.53
21.60
15.92
10.28
5.35
1.44
-1.61
-4.27
-7.14
-10.77
-15.53
-21.39
-27.94
-34.31
-39.29
-41.67
-40.52
-35.53
-27.16
-16.53
-5.10
5.80
15.24
22.88
28.76
33.21
36.49
38.79
40.21
40.85
40.88
40.53
40.07
39.67
39.43
39.33
39.29
39.26
39.22
39.18
39.16
39.14
38.89
38.15
36.66
34.32
31.28
27.73
23.65
18.58
11.79
2.60
-9.14
-22.77
-36.94
-49.99
-60.56
-67.81
-71.44
-71.51
-68.29
-62.17
-53.79
-44.05
-33.96
-24.32
-15.41
-6.90
1.77
10.98
20.35
28.65
34.13
35.23
31.38
23.39
13.28
3.47
-4.11
-8.74
-10.83
-11.30
-10.88
-9.68
-7.30
-3.43
1.57
6.63
10.38
11.82
10.87
8.32
5.33
2.82
1.07
-0.33
-2.01
-4.55
-8.07
-12.37
-17.04
-21.63
-25.67
-28.66
-30.04
-29.22
-25.80
-19.77
-11.57
-2.07
7.72
16.95
25.05
31.91
37.62
42.32
46.03
48.54
49.56
48.84
46.42
42.69
38.33
34.06
30.33
27.29
24.78
22.64
20.93
19.99
20.23
21.77
24.27
26.74
28.02
27.10
23.67
18.16
11.49
4.51
-2.38
-9.49
-17.54
-27.23
-38.90
-52.39
-67.19
-82.65
-98.07
-112.67
-125.39
-134.93
-140.06
-140.04
-135.04
-126.17
-115.03
-103.25
-92.00
-81.84
-72.92
-65.19
-58.55
-52.82
-47.71
-42.78
-37.70
-32.27
-26.65
-21.15
-16.00
-11.25
-6.74
-2.19
2.75
8.44
15.20
23.08
31.70
40.15
47.25
52.05
54.46
55.35
56.12
57.88
60.79
63.83
65.46
64.46
60.46
53.98
45.97
37.39
29.24
22.82
19.62
20.95
27.02
36.67
47.92
59.00
69.38
79.77
91.20
103.87
116.77
128.28
137.33
144.19
150.19
156.67
163.98
171.17
176.56
178.71
176.94
171.18
161.65
148.68
132.89
115.57
98.58
83.75
72.17
63.78
57.53
52.22
46.92
41.33
35.50
29.43
22.87
15.40
6.48
-4.23
-16.84
-31.22
-46.96
-63.38
-79.52
-94.32
-106.61
-115.51
-120.47
-121.42
-118.77
-113.21
-105.58
-96.59
-86.86
-76.94
-67.45
-59.03
-52.22
-47.06
-42.93
-38.67
-33.10
-25.71
-17.07
-8.63
-2.05
1.60
2.35
1.10
-1.01
-3.26
-5.62
-8.68
-12.96
-18.61
-25.17
-31.72
-37.25
-40.97
-42.49
-41.83
-39.33
-35.64
-31.51
-27.69
-24.72
-22.75
-21.46
-20.20
-18.29
-15.35
-11.47
-7.13
-2.88
0.95
4.45
8.08
12.32
17.29
22.63
27.61
31.57
34.36
36.42
38.50
41.19
44.31
46.80
47.01
43.26
34.46
20.50
2.30
-18.33
-39.20
-58.22
-73.92
-85.76
-94.23
-100.76
-107.29
-115.70
-127.00
-140.72
-154.77
-166.22
-172.60
-173.19
-169.65
-165.39
-164.07
-167.74
-175.91
-185.83
-193.91
-197.40
-195.34
-188.47
-178.31
-166.23
-153.04
-139.15
-124.87
-110.69
-97.13
-84.52
-72.96
-62.42
-53.06
-45.33
-39.94
-37.46
-38.16
-41.79
-47.62
-54.60
-61.47
-66.92
-69.90
-69.90
-67.16
-62.68
-57.93
-54.27
-52.40
-52.19
-52.79
-53.40
-53.90
-55.27
-59.43
-68.51
-83.83
-105.18
-130.63
-157.01
-180.81
-199.05
-209.67
-211.34
-203.40
-185.88
-159.90
-127.88
-93.34
-59.89
-29.98
-4.02
19.60
43.41
69.49
98.35
128.70
158.05
183.77
204.01
218.13
226.63
230.74
231.91
231.33
229.75
227.33
223.92
219.33
213.51
206.54
198.71
190.43
182.25
174.80
168.74
164.49
161.96
160.36
158.43
154.97
149.36
141.85
133.42
125.18
117.76
110.98
103.98
95.85
86.22
75.60
65.30
56.96
51.92
50.94
54.03
60.68
70.08
81.19
92.68
102.90
109.99
112.24
108.59
99.15
85.24
68.92
52.20
36.26
21.22
6.50
-8.39
-23.27
-37.17
-48.92
-57.75
-63.70
-67.50
-69.99
-71.57
-72.11
-71.24
-68.80
-65.24
-61.39
-58.16
-56.03
-54.93
-54.50
-54.42
-54.68
-55.57
-57.38
-60.21
-63.82
-67.75
-71.52
-74.68
-76.76
-76.92
-73.81
-65.59
-50.46
-27.49
2.69
37.75
74.14
108.21
137.33
160.52
178.42
192.69
204.96
216.13
226.03
233.84
238.57
239.51
236.41
229.07
216.83
198.41
172.40
138.52
98.63
56.81
18.20
-12.95
-34.90
-48.70
-57.25
-63.44
-69.00
-74.27
-78.92
-82.68
-85.56
-87.24
-86.48
-81.26
-69.79
-51.78
-29.21
-5.70
14.92
30.25
39.92
45.52
49.60
54.47
61.60
71.21
82.50
94.03
104.16
111.44
114.91
114.26
109.79
102.09
91.77
79.21
64.51
47.70
28.96
8.72
-12.38
-33.73
-54.87
-75.53
-95.45
-114.18
-131.07
-145.42
-156.76
-165.18
-171.33
-176.17
-180.52
-184.59
-187.93
-189.62
-188.74
-184.91
-178.46
-170.37
-161.76
-153.41
-145.48
-137.56
-128.97
-119.09
-107.54
-94.01
-78.16
-59.59
-38.03
-13.50
13.79
43.81
77.23
115.28
159.09
208.51
261.15
312.35
356.37
387.98
403.97
403.71
388.67
361.65
325.80
284.34
240.30
196.50
155.28
118.13
85.63
57.61
33.57
13.13
-3.88
-17.47
-27.61
-34.35
-37.91
-38.60
-37.01
-34.08
-31.00
-29.03
-29.07
-31.48
-36.02
-42.08
-48.95
-56.15
-63.48
-70.90
-78.26
-85.16
-90.89
-94.68
-95.90
-94.28
-90.10
-84.11
-77.39
-71.11
-66.30
-63.64
-63.42
-65.72
-70.38
-77.05
-85.14
-93.70
-101.53
-107.49
-110.90
-111.77
-110.52
-107.56
-102.71
-95.25
-84.36
-70.05
-53.62
-37.59
-24.79
-17.19
-15.22
-17.79
-22.99
-29.16
-35.45
-41.90
-49.01
-57.16
-66.23
-75.66
-84.68
-92.54
-98.62
-102.39
-103.38
-101.09
-95.26
-86.15
-74.66
-62.23
-50.44
-40.57
-33.22
-28.26
-25.09
-22.95
-21.22
-19.60
-17.95
-16.27
-14.70
-13.43
-12.69
-12.71
-13.53
-14.97
-16.60
-17.91
-18.46
-18.06
-16.86
-15.31
-14.08
-13.85
-15.10
-17.87
-21.71
-25.83
-29.42
-32.02
-33.80
-35.47
-37.96
-42.01
-47.78
-54.67
-61.45
-66.57
-68.56
-66.44
-59.97
-49.65
-36.62
-22.35
-8.31
4.35
15.02
23.66
30.62
36.41
41.49
46.04
49.99
53.09
55.05
55.74
55.28
53.90
51.90
49.53
46.95
44.27
41.59
39.06
36.74
34.61
32.48
30.06
26.98
22.98
18.07
12.52
6.80
1.39
-3.45
-7.79
-12.07
-16.96
-23.05
-30.56
-39.07
-47.54
-54.49
-58.44
-58.34
-53.88
-45.57
-34.55
-22.16
-9.58
2.38
13.27
22.89
31.10
37.83
43.10
47.09
50.06
52.29
53.94
55.08
55.71
55.75
55.18
54.05
52.44
50.55
48.67
47.04
45.76
44.68
43.36
41.28
38.02
33.50
28.04
22.15
16.36
11.05
6.31
2.03
-2.09
-6.55
-11.91
-18.53
-26.37
-34.76
-42.41
-47.75
-49.39
-46.63
-39.63
-29.39
-17.35
-5.01
6.44
16.33
24.42
30.76
35.54
38.95
41.13
42.27
42.59
42.27
41.50
40.31
38.71
36.65
34.22
31.60
29.13
27.07
25.48
24.23
22.97
21.34
19.01
15.77
11.58
6.61
1.16
-4.36
-9.57
-14.28
-18.62
-23.05
-28.18
-34.43
-41.74
-49.40
-56.16
-60.43
-60.87
-56.70
-48.00
-35.71
-21.42
-6.89
6.40
17.54
26.33
33.03
38.11
41.94
44.64
46.21
46.65
46.10
44.83
43.11
41.14
39.01
36.77
34.52
32.42
30.62
29.19
28.02
26.79
25.08
22.53
18.95
14.41
9.22
3.80
-1.42
-6.22
-10.53
-14.60
-18.86
-23.81
-29.86
-37.07
-45.08
-53.02
-59.69
-63.78
-64.31
-60.84
-53.64
-43.58
-31.91
-19.90
-8.56
1.48
10.04
17.23
23.31
28.54
33.11
37.08
40.39
42.90
44.45
44.95
44.45
43.18
41.47
39.69
38.12
36.85
35.85
35.01
34.14
33.06
31.56
29.38
26.31
22.28
17.39
11.99
6.43
1.02
-4.08
-8.94
-13.80
-18.94
-24.63
-30.99
-37.90
-44.89
-51.11
-55.50
-57.00
-54.88
-49.04
-40.00
-28.80
-16.67
-4.77
6.13
15.62
23.67
30.43
36.10
40.86
44.77
47.85
50.11
51.69
52.82
53.72
54.50
55.09
55.32
55.01
54.18
52.99
51.69
50.43
49.18
47.71
45.72
43.01
39.56
35.54
31.21
26.85
22.69
18.86
15.42
12.36
9.53
6.67
3.44
-0.49
-5.33
-11.01
-17.20
-23.16
-27.93
-30.49
-30.01
-26.10
-18.99
-9.47
1.29
12.03
21.69
29.61
35.56
39.66
42.19
43.50
43.92
43.83
43.51
43.16
42.80
42.23
41.11
39.09
36.00
31.95
27.39
22.90
19.01
15.95
13.52
11.24
8.55
5.03
0.54
-4.83
-10.83
-17.29
-24.14
-31.42
-39.16
-47.33
-55.70
-63.94
-71.70
-78.76
-85.15
-91.19
-97.18
-103.19
-108.82
-113.13
-114.98
-113.43
-108.19
-99.82
-89.58
-78.92
-68.97
-60.20
-52.39
-44.94
-37.36
-29.56
-21.94
-15.12
-9.59
-5.33
-1.88
1.42
4.93
8.53
11.65
13.72
14.56
14.51
14.22
14.33
15.05
16.06
16.75
16.55
15.18
12.68
9.35
5.50
1.41
-2.67
-6.53
-10.02
-13.13
-16.02
-19.01
-22.47
-26.70
-31.68
-37.10
-42.33
-46.50
-48.74
-48.34
-44.96
-38.72
-30.18
-20.30
-10.13
-0.61
7.64
14.41
19.81
24.09
27.44
29.94
31.50
32.12
31.93
31.24
30.38
29.54
28.70
27.66
26.27
24.60
22.98
21.79
21.21
21.08
20.90
20.10
18.26
15.32
11.57
7.45
3.44
-0.10
-3.03
-5.42
-7.55
-9.87
-12.97
-17.31
-23.05
-29.77
-36.48
-41.84
-44.56
-43.76
-39.38
-32.07
-23.07
-13.67
-4.91
2.72
9.20
14.79
19.83
24.51
28.86
32.81
36.21
38.93
40.87
41.91
41.94
40.95
39.04
36.48
33.70
31.06
28.81
27.00
25.52
24.20
22.81
21.15
19.02
16.26
12.83
8.86
4.67
0.67
-2.80
-5.59
-7.87
-9.98
-12.37
-15.42
-19.43
-24.50
-30.55
-37.07
-43.21
-47.79
-49.57
-47.78
-42.32
-33.95
-23.95
-13.70
-4.28
3.73
10.25
15.48
19.73
23.29
26.32
28.96
31.24
33.10
34.48
35.27
35.44
34.99
33.98
32.51
30.73
28.81
26.96
25.33
23.99
22.92
21.93
20.77
19.20
17.04
14.31
11.14
7.76
4.39
1.19
-1.82
-4.69
-7.53
-10.39
-13.24
-16.13
-19.15
-22.54
-26.57
-31.26
-36.28
-40.83
-43.89
-44.47
-42.06
-36.74
-29.18
-20.41
-11.45
-3.08
4.28
10.57
15.89
20.42
24.26
27.43
29.85
31.51
32.42
32.68
32.46
31.94
31.30
30.58
29.77
28.70
27.27
25.41
23.16
20.68
18.18
15.77
13.49
11.20
8.70
5.87
2.70
-0.70
-4.11
-7.35
-10.35
-13.13
-15.81
-18.53
-21.45
-24.69
-28.34
-32.42
-36.79
-41.11
-44.75
-46.89
-46.73
-43.80
-38.13
-30.38
-21.58
-12.88
-5.11
1.36
6.68
11.20
15.28
19.07
22.47
25.30
27.41
28.83
29.69
30.12
30.12
29.61
28.54
26.96
25.15
23.48
22.25
21.55
21.23
20.91
20.25
18.98
17.07
14.64
11.83
8.70
5.24
1.44
-2.61
-6.67
-10.39
-13.55
-16.09
-18.24
-20.46
-23.27
-27.04
-31.86
-37.32
-42.66
-46.88
-49.00
-48.32
-44.65
-38.28
-29.91
-20.42
-10.69
-1.44
6.77
13.59
18.85
22.59
25.12
26.84
28.18
29.42
30.56
31.46
31.89
31.71
30.93
29.67
28.10
26.37
24.58
22.80
21.08
19.54
18.23
17.15
16.26
15.39
14.36
12.99
11.21
9.04
6.58
3.94
1.26
-1.36
-3.81
-6.02
-7.99
-9.80
-11.63
-13.79
-16.48
-19.82
-23.59
-27.33
-30.31
-31.73
-30.90
-27.36
-21.09
-12.47
-2.31
8.36
18.57
27.61
35.24
41.50
46.59
50.65
53.66
55.58
56.47
56.58
56.37
56.23
56.37
56.64
56.66
56.05
54.58
52.38
49.85
47.36
45.09
42.88
40.24
36.50
31.13
23.88
14.95
4.97
-5.21
-14.74
-23.02
-29.87
-35.51
-40.41
-45.01
-49.61
-54.20
-58.59
-62.46
-65.46
-67.22
-67.34
-65.48
-61.42
-55.27
-47.33
-38.10
-28.01
-17.45
-6.80
3.51
12.85
20.53
25.99
29.06
29.97
29.20
27.16
24.01
19.67
14.06
7.34
0.18
-6.44
-11.42
-13.89
-13.46
-10.30
-4.93
2.02
9.89
18.03
25.67
31.84
35.52
35.99
33.23
28.05
21.93
16.34
12.26
9.78
8.23
6.65
4.35
1.06
-3.08
-7.86
-13.18
-19.14
-25.89
-33.46
-41.71
-50.33
-58.86
-66.70
-73.18
-77.70
-79.74
-79.19
-76.35
-71.87
-66.59
-61.24
-56.27
-51.72
-47.32
-42.73
-37.79
-32.61
-27.68
-23.65
-21.06
-20.18
-20.83
-22.51
-24.47
-25.96
-26.30
-25.02
-21.93
-17.20
-11.36
-5.16
0.52
4.98
7.72
8.54
7.53
4.92
1.19
-3.12
-7.44
-11.32
-14.54
-17.11
-19.20
-21.09
-22.99
-25.08
-27.44
-30.07
-32.70
-34.78
-35.46
-33.90
-29.58
-22.63
-13.80
-4.14
5.34
14.15
22.28
30.05
37.83
45.74
53.70
61.43
68.60
74.81
79.65
82.59
83.18
81.19
76.85
70.74
63.66
56.28
48.94
41.66
34.31
26.83
19.41
12.34
5.90
0.04
-5.53
-11.31
-17.80
-25.27
-33.70
-42.71
-51.69
-59.96
-66.91
-72.25
-75.98
-78.47
-80.28
-82.00
-84.07
-86.62
-89.44
-92.08
-93.89
-94.11
-92.04
-87.17
-79.40
-69.09
-57.09
-44.50
-32.37
-21.41
-11.84
-3.47
4.20
11.58
18.94
26.23
33.26
39.97
46.63
53.90
62.57
73.13
85.36
98.11
109.61
118.14
122.63
123.13
120.60
116.48
111.93
107.47
102.91
97.78
91.75
84.76
77.06
68.88
60.26
51.06
41.13
30.55
19.74
9.29
-0.31
-8.86
-16.49
-23.52
-30.16
-36.35
-41.75
-45.77
-47.84
-47.58
-44.96
-40.32
-34.38
-27.99
-21.96
-16.87
-12.96
-10.08
-7.92
-6.05
-4.21
-2.35
-0.54
1.08
2.33
3.15
3.47
3.28
2.67
1.74
0.67
-0.32
-1.08
-1.61
-2.06
-2.76
-4.06
-6.19
-9.14
-12.65
-16.35
-19.87
-23.03
-25.83
-28.40
-30.87
-33.32
-35.85
-38.67
-41.99
-45.99
-50.50
-54.94
-58.41
-59.92
-58.88
-55.30
-49.73
-43.01
-35.81
-28.48
-21.02
-13.30
-5.26
2.95
11.04
18.69
25.62
31.71
36.91
41.28
44.82
47.52
49.32
50.17
50.14
49.45
48.43
47.50
46.89
46.59
46.34
45.74
44.51
42.58
39.97
36.82
33.18
29.02
24.32
19.15
13.66
8.02
2.33
-3.45
-9.45
-15.69
-21.98
-27.89
-32.79
-36.14
-37.60
-37.14
-35.00
-31.53
-27.10
-22.06
-16.70
-11.31
-6.17
-1.55
2.41
5.73
8.51
10.86
12.82
14.24
14.92
14.73
13.83
12.64
11.73
11.48
11.94
12.85
13.77
14.36
14.54
14.43
14.20
13.91
13.50
12.81
11.82
10.67
9.58
8.71
8.08
7.52
6.76
5.69
4.29
2.74
1.16
-0.32
-1.76
-3.31
-5.19
-7.54
-10.34
-13.43
-16.53
-19.40
-21.97
-24.37
-26.82
-29.52
-32.52
-35.65
-38.61
-41.08
-42.94
-44.33
-45.64
-47.36
-49.78
-52.78
-55.68
-57.49
-57.17
-54.07
-48.18
-40.14
-30.93
-21.60
-12.94
-5.40
0.89
5.92
9.75
12.50
14.38
15.70
16.82
18.00
19.36
20.86
22.36
23.69
24.75
25.53
26.09
26.58
27.15
27.89
28.76
29.54
29.92
29.49
27.99
25.37
21.84
17.81
13.72
9.91
6.48
3.41
0.55
-2.27
-5.18
-8.19
-11.25
-14.19
-16.86
-19.14
-21.03
-22.67
-24.26
-26.03
-28.13
-30.55
-33.20
-35.92
-38.54
-41.00
-43.24
-45.20
-46.72
-47.59
-47.47
-45.96
-42.72
-37.47
-30.18
-21.14
-11.06
-1.03
7.59
13.52
15.91
14.59
10.21
3.98
-2.72
-8.77
-13.72
-17.81
-21.80
-26.54
-32.64
-40.25
-49.07
-58.60
-68.31
-77.79
-86.67
-94.54
-100.77
-104.51
-104.91
-101.45
-94.13
-83.40
-69.88
-54.06
-36.19
-16.48
4.58
25.91
45.94
62.86
75.23
82.46
85.00
84.06
81.10
77.30
73.21
68.73
63.42
56.84
48.98
40.27
31.48
23.57
17.29
13.18
11.55
12.42
15.41
19.67
23.92
26.77
27.16
24.94
20.86
16.28
12.46
10.04
8.85
8.25
7.70
7.22
7.33
8.74
11.83
16.52
22.39
29.22
37.16
46.76
58.60
72.95
89.60
108.06
127.78
148.19
168.50
187.41
203.13
213.76
218.05
216.03
209.03
199.02
187.47
174.56
159.01
138.88
112.75
80.78
44.91
8.37
-25.31
-53.25
-73.64
-85.86
-90.19
-87.69
-80.02
-69.39
-58.17
-48.34
-41.04
-36.20
-32.85
-29.81
-26.30
-22.39
-18.97
-17.21
-18.01
-21.58
-27.40
-34.36
-41.21
-46.88
-50.72
-52.59
-52.81
-52.01
-51.02
-50.51
-50.82
-51.87
-53.29
-54.59
-55.43
-55.73
-55.55
-54.99
-54.04
-52.60
-50.59
-47.99
-44.93
-41.63
-38.32
-35.19
-32.36
-29.82
-27.51
-25.31
-23.10
-20.81
-18.42
-16.03
-13.77
-11.74
-9.91
-8.15
-6.30
-4.37
-2.55
-1.18
-0.59
-0.88
-1.96
-3.48
-5.07
-6.45
-7.52
-8.31
-8.88
-9.21
-9.24
-8.92
-8.25
-7.39
-6.50
-5.68
-4.88
-3.88
-2.41
-0.24
2.77
6.63
11.24
16.42
21.85
27.08
31.46
34.26
34.84
32.86
28.44
22.17
15.03
8.22
2.95
0.30
0.93
5.03
12.01
20.61
29.05
35.55
38.72
37.97
33.56
26.43
17.89
9.24
1.58
-4.36
-8.28
-10.32
-11.04
-11.12
-11.15
-11.34
-11.56
-11.57
-11.38
-11.49
-12.75
-15.95
-21.36
-28.46
-36.12
-43.05
-48.31
-51.57
-53.01
-53.02
-51.96
-50.17
-48.19
-46.93
-47.47
-50.55
-56.06
-62.76
-68.59
-71.41
-69.85
-63.81
-54.28
-42.77
-30.58
-18.45
-6.68
4.40
14.17
21.80
26.64
28.64
28.44
27.03
25.20
23.34
21.30
18.90
16.21
13.64
11.72
10.72
10.56
10.92
11.53
12.35
13.47
14.90
16.41
17.56
17.98
17.56
16.52
15.21
13.88
12.47
10.74
8.48
5.83
3.40
2.03
2.49
5.06
9.43
14.79
20.20
24.85
28.28
30.18
30.36
28.62
24.84
19.25
12.49
5.58
-0.50
-5.19
-8.62
-11.52
-14.72
-18.66
-23.05
-27.04
-29.68
-30.49
-29.78
-28.55
-27.94
-28.67
-30.69
-33.27
-35.37
-36.20
-35.48
-33.54
-31.05
-28.72
-26.99
-25.86
-24.88
-23.21
-19.88
-14.18
-6.02
3.77
13.54
21.15
24.67
23.06
16.61
7.00
-3.05
-10.63
-13.56
-11.16
-4.60
3.54
10.06
12.38
9.45
2.10
-7.46
-16.57
-23.35
-27.23
-28.86
-29.45
-29.81
-30.00
-29.33
-27.09
-23.18
-18.44
-14.33
-12.18
-12.58
-15.04
-18.35
-21.28
-23.30
-24.73
-26.53
-29.68
-34.61
-40.98
-47.84
-54.08
-58.76
-61.39
-61.95
-60.67
-57.90
-53.96
-49.08
-43.39
-36.91
-29.62
-21.40
-12.10
-1.61
9.96
22.16
34.10
44.66
52.73
57.65
59.46
58.88
56.93
54.51
52.05
49.45
46.34
42.46
37.86
32.91
28.06
23.60
19.56
15.75
11.93
7.96
3.84
-0.35
-4.47
-8.45
-12.24
-15.86
-19.36
-22.77
-26.14
-29.53
-33.04
-36.75
-40.72
-44.92
-49.11
-52.86
-55.57
-56.62
-55.56
-52.23
-46.80
-39.78
-31.87
-23.82
-16.32
-9.87
-4.69
-0.70
2.45
5.19
7.92
10.80
13.78
16.63
19.04
20.77
21.66
21.83
21.49
20.98
20.62
20.62
21.02
21.77
22.76
23.84
24.80
25.32
25.05
23.68
21.06
17.41
13.17
8.85
4.89
1.46
-1.48
-4.11
-6.64
-9.21
-11.88
-14.61
-17.37
-20.18
-23.19
-26.64
-30.79
-35.66
-40.90
-45.74
-49.19
-50.42
-48.99
-45.05
-39.17
-32.13
-24.54
-16.89
-9.45
-2.46
3.90
9.47
14.11
17.75
20.43
22.30
23.62
24.70
25.84
27.19
28.79
30.49
32.12
33.45
34.40
34.98
35.36
35.67
36.01
36.36
36.53
36.29
35.43
33.90
31.82
29.47
27.11
24.82
22.53
20.06
17.26
14.11
10.68
7.05
3.31
-0.44
-4.09
-7.43
-10.37
-12.99
-15.62
-18.74
-22.71
-27.48
-32.54
-37.03
-40.03
-40.86
-39.24
-35.35
-29.64
-22.74
-15.23
-7.73
-0.78
5.14
9.66
12.57
13.96
14.15
13.74
13.43
13.81
15.21
17.57
20.45
23.32
25.70
27.43
28.67
29.74
30.92
32.27
33.57
34.48
34.70
34.13
32.85
31.05
28.90
26.51
23.99
21.48
19.21
17.33
15.77
14.17
12.01
8.88
4.74
0.06
-4.43
-8.07
-10.63
-12.48
-14.38
-17.20
-21.44
-26.97
-33.07
-38.63
-42.58
-44.21
-43.24
-39.85
-34.48
-27.64
-19.90
-11.90
-4.36
2.04
6.79
9.86
11.69
13.02
14.60
16.81
19.50
22.18
24.26
25.42
25.74
25.66
25.62
25.96
26.69
27.59
28.43
29.01
29.29
29.26
28.87
28.05
26.75
25.01
22.90
20.55
18.05
15.41
12.63
9.74
6.89
4.23
1.85
-0.27
-2.21
-4.11
-6.03
-8.02
-10.16
-12.62
-15.50
-18.71
-21.81
-24.00
-24.36
-22.19
-17.33
-10.34
-2.38
5.17
11.12
14.96
16.90
17.73
18.48
19.95
22.36
25.39
28.41
30.71
31.85
31.78
30.99
30.61
32.21
37.47
47.44
61.92
79.12
96.05
109.46
116.91
117.68
112.74
104.16
94.16
84.29
75.14
66.59
58.21
49.67
40.88
32.02
23.50
15.75
9.19
4.17
0.90
-0.50
-0.03
2.21
5.92
10.52
15.21
19.28
22.36
24.78
27.34
31.11
36.84
44.50
53.23
61.64
68.38
72.62
74.21
73.37
70.49
65.89
59.98
53.43
47.18
42.27
39.34
38.40
38.82
39.64
40.12
40.03
39.60
39.30
39.42
39.89
40.31
40.25
39.33
37.32
34.22
30.18
25.49
20.41
15.06
9.33
2.82
-4.92
-14.14
-24.64
-35.68
-46.16
-54.87
-60.81
-63.39
-62.50
-58.48
-51.99
-43.91
-35.20
-26.86
-19.76
-14.48
-11.17
-9.52
-8.94
-8.80
-8.79
-8.99
-9.79
-11.62
-14.54
-18.27
-22.15
-25.52
-28.06
-29.77
-30.98
-32.09
-33.35
-34.86
-36.63
-38.70
-41.16
-44.03
-47.18
-50.32
-53.05
-55.12
-56.52
-57.64
-59.07
-61.40
-64.83
-69.01
-73.07
-75.89
-76.54
-74.60
-70.34
-64.48
-57.89
-51.19
-44.56
-37.91
-31.18
-24.59
-18.73
-14.31
-11.75
-10.99
-11.47
-12.45
-13.31
-13.83
-14.04
-14.12
-14.14
-14.02
-13.64
-13.04
-12.51
-12.53
-13.54
-15.78
-19.10
-23.06
-26.98
-30.21
-32.35
-33.47
-34.15
-35.35
-38.00
-42.69
-49.30
-57.07
-64.92
-71.69
-76.54
-78.86
-78.26
-74.47
-67.38
-57.28
-44.98
-31.74
-18.95
-7.71
1.49
8.78
14.72
19.88
24.64
29.10
33.14
36.58
39.26
41.05
41.91
41.86
41.02
39.69
38.16
36.71
35.48
34.37
33.05
31.18
28.47
24.80
20.19
14.76
8.62
1.88
-5.28
-12.60
-19.77
-26.52
-32.59
-37.72
-41.43
-43.06
-41.82
-37.13
-28.95
-18.01
-5.61
6.79
17.96
27.35
34.86
40.64
44.69
46.79
46.66
44.35
40.46
36.09
32.51
30.57
30.40
31.29
32.04
31.62
29.51
26.00
21.94
18.32
15.85
14.73
14.68
15.11
15.40
15.06
13.81
11.54
8.33
4.33
-0.19
-4.92
-9.60
-14.14
-18.71
-23.70
-29.51
-36.26
-43.56
-50.46
-55.73
-58.33
-57.83
-54.54
-49.25
-42.95
-36.39
-30.02
-24.04
-18.52
-13.54
-9.09
-5.07
-1.30
2.37
5.92
9.10
11.53
12.82
12.77
11.48
9.28
6.69
4.27
2.52
1.75
1.97
2.83
3.78
4.22
3.79
2.54
0.88
-0.62
-1.57
-1.88
-1.71
-1.37
-1.05
-0.83
-0.75
-0.90
-1.47
-2.66
-4.51
-6.90
-9.57
-12.34
-15.24
-18.42
-21.96
-25.64
-28.88
-30.82
-30.64
-27.79
-22.24
-14.51
-5.52
3.56
11.63
17.85
21.84
23.76
24.26
24.15
24.18
24.77
25.97
27.55
29.18
30.65
31.80
32.60
33.08
33.37
33.84
35.00
37.33
40.88
45.06
48.68
50.30
48.89
44.20
36.83
27.88
18.45
9.26
0.76
-6.78
-13.02
-17.60
-20.28
-21.22
-20.87
-19.76
-18.14
-15.81
-12.20
-6.78
0.51
8.93
17.01
22.90
25.09
22.93
16.99
8.89
0.64
-5.93
-9.69
-10.36
-8.28
-4.05
1.68
8.20
14.74
20.45
24.73
27.52
29.51
31.90
35.73
41.24
47.57
52.84
54.88
52.15
44.30
32.40
18.40
4.48
-7.88
-18.19
-26.92
-34.93
-42.87
-50.80
-58.22
-64.45
-69.10
-72.33
-74.79
-77.33
-80.49
-84.23
-87.98
-90.87
-92.12
-91.35
-88.53
-83.86
-77.58
-69.74
-60.22
-48.89
-35.74
-21.16
-6.05
8.04
19.16
25.41
25.35
18.68
6.39
-9.23
-24.89
-36.83
-41.47
-36.09
-19.65
6.70
39.56
74.09
105.41
130.15
147.41
158.73
167.01
175.02
184.25
194.42
203.73
209.46
208.54
198.18
176.76
144.62
104.60
61.79
22.35
-8.36
-27.17
-33.82
-30.54
-20.97
-8.91
2.42
10.80
15.02
14.99
11.72
7.06
3.04
1.00
0.95
1.54
0.65
-3.79
-13.10
-27.34
-45.39
-65.13
-83.87
-99.04
-108.88
-113.09
-113.02
-111.10
-109.65
-109.73
-110.57
-110.12
-106.23
-98.05
-86.59
-74.18
-63.29
-55.34
-50.19
-46.64
-43.27
-39.31
-34.87
-30.51
-26.73
-23.51
-20.43
-16.98
-13.06
-9.05
-5.65
-3.47
-2.75
-3.15
-4.02
-4.58
-4.24
-2.76
-0.30
2.63
5.32
7.09
7.52
6.55
4.47
1.88
-0.61
-2.59
-4.04
-5.25
-6.71
-8.82
-11.67
-15.03
-18.52
-21.73
-24.52
-26.87
-28.98
-31.00
-33.04
-35.14
-37.34
-39.72
-42.38
-45.25
-48.01
-49.99
-50.39
-48.55
-44.25
-37.79
-29.88
-21.40
-13.08
-5.40
1.40
7.19
11.84
15.24
17.38
18.51
19.11
19.72
20.66
21.93
23.17
23.94
23.98
23.41
22.65
22.21
22.40
23.10
23.86
24.11
23.50
22.03
20.03
17.90
15.87
13.99
12.14
10.28
8.51
7.02
5.84
4.78
3.45
1.44
-1.35
-4.67
-7.98
-10.72
-12.63
-13.86
-14.90
-16.29
-18.43
-21.36
-24.73
-27.98
-30.43
-31.50
-30.83
-28.32
-24.18
-18.85
-12.96
-7.08
-1.72
2.87
6.61
9.61
12.03
13.98
15.49
16.52
16.98
16.87
16.26
15.28
14.10
12.88
11.72
10.69
9.88
9.42
9.44
10.05
11.16
12.46
13.46
13.63
12.68
10.76
8.36
6.10
4.41
3.35
2.58
1.57
-0.01
-2.14
-4.42
-6.22
-6.95
-6.18
-3.82
-0.18
4.07
7.98
10.61
11.42
10.65
9.39
9.29
12.16
19.43
31.70
48.66
68.97
90.46
110.42
126.15
135.67
138.34
135.09
127.99
119.39
110.84
102.61
93.91
83.77
71.85
58.83
46.03
34.60
24.79
15.94
7.04
-2.56
-12.70
-22.61
-31.50
-39.16
-46.06
-52.98
-60.32
-67.76
-74.41
-79.36
-82.28
-83.69
-84.55
-85.67
-87.23
-88.61
-88.87
-87.37
-84.16
-80.06
-76.27
-73.89
-73.54
-75.30
-78.80
-83.63
-89.37
-95.72
-102.37
-108.82
-114.30
-117.93
-118.84
-116.42
-110.66
-102.16
-92.11
-81.84
-72.50
-64.75
-58.82
-54.66
-52.02
-50.51
-49.27
-46.87
-41.63
-32.38
-19.29
-4.20
9.90
20.07
24.79
24.73
22.43
21.11
23.30
30.02
40.71
53.90
68.02
81.86
94.72
105.99
114.94
120.73
122.75
121.08
116.69
111.27
106.70
104.28
104.15
105.18
105.44
102.94
96.48
86.17
73.50
60.72
50.12
43.24
40.38
40.66
42.50
44.20
44.63
43.43
40.92
37.74
34.51
31.69
29.46
27.88
26.82
26.03
25.21
24.05
22.39
20.25
17.71
14.86
11.70
8.24
4.55
0.96
-2.17
-4.52
-6.05
-7.08
-8.18
-9.91
-12.68
-16.60
-21.38
-26.58
-31.59
-35.92
-39.28
-41.74
-43.75
-46.01
-49.18
-53.60
-59.02
-64.60
-69.08
-71.26
-70.36
-66.34
-59.88
-52.17
-44.35
-37.15
-30.69
-24.52
-18.01
-10.55
-1.91
7.73
17.81
27.59
36.25
43.25
48.23
51.11
51.99
51.07
48.59
44.80
40.01
34.46
28.44
22.28
16.51
11.87
9.25
9.35
12.32
17.40
23.01
27.25
28.58
26.38
21.17
14.13
6.48
-1.04
-8.34
-15.72
-23.45
-31.47
-39.35
-46.48
-52.45
-57.12
-60.55
-62.67
-63.24
-61.80
-57.98
-51.77
-43.63
-34.28
-24.47
-14.68
-5.05
4.54
14.29
24.26
34.30
44.00
52.80
60.19
65.83
69.69
72.12
73.65
74.72
75.38
75.22
73.50
69.66
63.74
56.45
49.05
42.72
38.17
35.30
33.40
31.55
29.02
25.54
21.21
16.26
10.89
5.22
-0.58
-6.19
-11.21
-15.39
-18.84
-22.10
-25.86
-30.63
-36.44
-42.74
-48.61
-53.00
-55.02
-54.08
-49.97
-42.94
-33.77
-23.81
-14.54
-7.28
-2.63
-0.32
0.57
1.16
2.15
3.58
5.04
5.95
6.01
5.31
4.21
3.09
2.12
1.30
0.45
-0.56
-1.75
-3.01
-4.15
-4.98
-5.47
-5.70
-5.83
-6.04
-6.40
-6.86
-7.28
-7.61
-7.94
-8.54
-9.76
-11.80
-14.56
-17.65
-20.53
-22.76
-24.16
-24.91
-25.49
-26.54
-28.60
-31.92
-36.33
-41.13
-45.21
-47.27
-46.23
-41.66
-33.96
-24.37
-14.49
-5.73
1.09
5.91
9.18
11.51
13.40
15.07
16.53
17.65
18.30
18.42
18.02
17.25
16.40
15.82
15.80
16.43
17.54
18.89
20.31
21.79
23.40
25.20
26.93
28.06
28.11
26.84
24.68
22.57
21.65
22.71
25.81
30.13
34.25
36.70
36.57
33.94
29.91
26.21
24.58
26.04
30.45
36.51
42.17
45.35
44.87
40.98
35.65
32.10
33.98
44.08
63.09
88.81
116.04
137.79
147.21
139.95
116.14
80.69
42.05
9.45
-10.10
-13.99
-4.46
12.54
29.75
41.03
43.21
36.64
24.51
11.24
0.75
-4.88
-5.72
-3.22
0.81
5.17
9.42
13.46
16.88
18.66
17.66
13.37
6.46
-1.31
-8.04
-12.66
-15.44
-17.82
-21.55
-27.76
-36.40
-46.36
-56.11
-64.35
-70.51
-74.74
-77.75
-80.41
-83.35
-86.94
-91.12
-95.56
-99.69
-102.78
-104.14
-103.25
-100.01
-94.79
-88.40
-81.75
-75.63
-70.49
-66.41
-63.20
-60.48
-57.72
-54.34
-49.73
-43.49
-35.51
-26.17
-16.26
-6.79
1.39
7.79
12.47
15.83
18.32
20.14
21.08
20.68
18.48
14.40
8.77
2.32
-4.20
-10.21
-15.48
-20.04
-23.90
-26.94
-28.93
-29.68
-29.21
-27.92
-26.37
-25.12
-24.47
-24.37
-24.51
-24.46
-23.89
-22.74
-21.25
-19.82
-18.80
-18.21
-17.59
-16.17
-13.18
-8.38
-2.17
4.51
10.67
15.68
19.51
22.56
25.21
27.65
29.86
31.88
34.14
37.32
41.99
48.21
55.31
62.20
67.84
71.65
73.68
74.32
73.93
72.70
70.69
68.13
65.53
63.52
62.42
61.75
60.14
55.64
46.50
31.81
11.83
-12.30
-39.14
-67.49
-96.73
-126.55
-156.66
-186.26
-213.92
-237.53
-254.42
-262.00
-258.49
-243.90
-220.66
-193.44
-167.97
-149.20
-139.58
-138.34
-142.08
-146.43
-147.84
-144.54
-136.56
-124.75
-109.99
-92.79
-73.48
-52.74
-31.82
-12.26
4.61
18.14
28.46
36.23
42.22
46.97
50.67
53.36
54.97
55.52
55.09
53.81
51.93
49.87
48.19
47.55
48.44
50.95
54.72
59.06
63.23
66.66
68.99
69.92
68.98
65.66
59.57
50.85
40.33
29.36
19.25
10.66
3.21
-4.30
-13.25
-24.51
-37.91
-52.19
-65.43
-75.59
-81.04
-80.88
-75.08
-64.41
-50.24
-34.22
-17.93
-2.55
11.22
23.17
33.29
41.56
47.83
51.89
53.74
53.75
52.68
51.39
50.56
50.48
51.04
52.02
53.22
54.69
56.43
58.28
59.75
60.09
58.63
55.02
49.50
42.66
35.33
28.19
21.65
15.67
9.83
3.44
-4.23
-13.76
-25.28
-38.36
-51.91
-64.38
-73.99
-79.19
-78.96
-73.14
-62.38
-48.02
-31.78
-15.28
0.17
13.90
25.77
36.03
44.99
52.83
59.49
64.68
68.05
69.32
68.43
65.45
60.60
54.11
46.30
37.59
28.59
20.01
12.51
6.53
2.01
-1.54
-4.98
-9.18
-14.78
-21.93
-30.30
-39.14
-47.58
-54.94
-60.98
-65.96
-70.63
-75.89
-82.43
-90.32
-98.86
-106.52
-111.34
-111.43
-105.63
-93.97
-77.81
-59.40
-41.17
-24.90
-11.30
-0.13
9.39
17.92
25.77
32.90
39.21
44.70
49.51
53.72
57.19
59.72
61.10
61.41
60.95
60.14
59.21
58.10
56.50
54.06
50.61
46.31
41.64
37.13
33.27
30.23
27.93
26.11
24.55
23.29
22.64
22.87
23.95
25.30
25.81
24.35
20.30
14.03
7.03
1.42
-0.70
1.98
9.57
21.06
34.71
48.73
61.63
72.45
80.74
86.35
89.43
90.38
89.88
88.81
88.03
88.04
88.82
89.91
90.59
90.25
88.54
85.52
81.44
76.68
71.57
66.42
61.44
56.79
52.49
48.47
44.64
40.87
37.08
33.29
29.58
26.08
22.80
19.62
16.18
11.99
6.60
-0.18
-8.10
-16.59
-24.92
-32.53
-39.28
-45.48
-51.75
-58.79
-67.05
-76.43
-86.19
-94.92
-100.86
-102.38
-98.51
-89.31
-75.95
-60.31
-44.38
-29.74
-17.24
-7.01
1.21
7.92
13.61
18.85
24.06
29.58
35.46
41.37
46.67
50.70
52.98
53.49
52.73
51.46
50.46
50.21
50.80
51.96
53.36
54.70
55.81
56.65
57.15
57.19
56.62
55.33
53.33
50.72
47.68
44.42
41.21
38.39
36.31
35.16
34.88
35.06
35.09
34.38
32.51
29.26
24.57
18.49
11.14
2.84
-6.05
-15.12
-24.09
-32.79
-40.94
-48.00
-53.10
-55.32
-54.14
-49.74
-43.01
-35.24
-27.58
-20.71
-14.79
-9.65
-5.07
-0.94
2.74
5.99
8.79
11.20
13.21
14.76
15.71
15.96
15.45
14.21
12.44
10.41
8.48
7.04
6.38
6.56
7.44
8.65
9.72
10.18
9.70
8.20
5.81
2.88
-0.13
-2.73
-4.65
-5.84
-6.63
-7.58
-9.26
-11.99
-15.62
-19.54
-22.94
-25.16
-26.04
-25.86
-25.28
-24.97
-25.44
-26.95
-29.55
-33.16
-37.58
-42.45
-47.06
-50.51
-51.79
-50.15
-45.36
-37.86
-28.66
-18.95
-9.82
-1.89
4.72
10.29
15.24
19.91
24.37
28.48
31.89
34.26
35.36
35.18
33.84
31.60
28.71
25.31
21.52
17.51
13.57
10.11
7.61
6.39
6.40
7.15
7.89
7.91
6.80
4.67
2.06
-0.31
-1.95
-2.75
-3.06
-3.49
-4.68
-7.03
-10.53
-14.82
-19.34
-23.56
-27.19
-30.26
-33.06
-35.96
-39.29
-43.26
-47.86
-52.88
-57.90
-62.17
-64.69
-64.40
-60.56
-53.09
-42.78
-31.07
-19.52
-9.27
-0.74
6.27
12.24
17.53
22.25
26.29
29.52
31.94
33.66
34.81
35.40
35.39
34.80
33.74
32.56
31.50
30.72
30.16
29.62
28.83
27.59
25.69
23.04
19.57
15.42
10.92
6.51
2.59
-0.67
-3.48
-6.36
-9.89
-14.33
-19.53
-24.93
-29.85
-33.85
-36.89
-39.38
-41.94
-45.17
-49.37
-54.54
-60.37
-66.33
-71.75
-75.86
-77.88
-77.18
-73.33
-66.30
-56.46
-44.58
-31.68
-18.84
-7.02
3.09
11.19
17.46
22.40
26.70
30.96
35.58
40.83
47.01
54.47
63.54
74.08
85.26
95.64
103.53
107.89
108.86
107.91
107.32
109.24
115.06
125.02
138.56
154.87
173.26
193.25
214.17
234.92
253.84
269.02
278.81
282.25
279.26
270.57
257.34
240.83
222.06
201.77
180.45
158.34
135.61
112.27
88.24
63.19
36.66
8.34
-21.67
-52.53
-82.68
-110.19
-133.36
-151.33
-164.27
-173.17
-179.36
-183.94
-187.55
-190.29
-191.94
-192.16
-190.57
-186.91
-181.08
-173.33
-164.34
-155.15
-146.85
-140.20
-135.45
-132.23
-129.91
-127.82
-125.54
-122.91
-119.87
-116.36
-112.26
-107.44
-101.89
-95.83
-89.62
-83.71
-78.38
-73.70
-69.59
-65.83
-62.19
-58.42
-54.20
-49.16
-42.77
-34.56
-24.23
-11.83
2.12
16.83
31.57
45.93
60.02
74.33
89.46
105.79
122.97
139.88
154.70
165.29
169.73
166.73
155.84
137.34
112.17
81.74
47.94
12.91
-21.00
-51.71
-77.82
-98.78
-114.95
-127.22
-136.50
-143.36
-148.05
-150.70
-151.53
-150.96
-149.52
-147.59
-145.27
-142.45
-139.04
-135.17
-131.22
-127.62
-124.61
-122.01
-119.23
-115.60
-110.50
-103.60
-94.79
-84.11
-71.73
-58.11
-44.05
-30.69
-19.19
-10.32
-4.07
0.22
3.54
6.69
9.97
13.15
15.84
17.70
18.69
19.07
19.17
19.32
19.71
20.38
21.31
22.44
23.64
24.79
25.76
26.50
27.05
27.48
27.80
27.97
27.92
27.49
26.67
25.50
24.03
22.41
20.76
19.14
17.69
16.45
15.35
14.19
12.61
10.26
7.06
3.23
-0.68
-3.99
-6.06
-6.45
-4.89
-1.35
3.95
10.52
17.68
24.71
31.17
36.94
42.15
46.91
51.00
53.81
54.70
53.31
49.85
45.05
39.87
35.06
30.99
27.64
24.74
22.04
19.42
16.91
14.67
12.82
11.43
10.37
9.33
8.00
6.29
4.44
3.01
2.53
3.21
4.61
5.77
5.52
2.97
-2.07
-8.94
-16.36
-22.77
-26.88
-27.98
-26.08
-21.82
-16.17
-10.09
-4.32
0.72
4.97
8.59
11.76
14.64
17.27
19.49
21.08
21.80
21.53
20.29
18.21
15.48
12.25
8.67
4.89
1.12
-2.30
-5.11
-7.16
-8.55
-9.61
-10.77
-12.40
-14.69
-17.64
-21.09
-24.78
-28.49
-31.97
-35.06
-37.71
-40.02
-42.23
-44.68
-47.69
-51.40
-55.63
-59.76
-62.90
-64.00
-62.22
-57.14
-48.95
-38.43
-26.65
-14.67
-3.23
7.28
16.79
25.37
33.03
39.79
45.63
50.64
54.94
58.65
61.72
64.00
65.29
65.48
64.68
63.25
61.56
59.92
58.41
56.92
55.21
53.05
50.26
46.75
42.58
37.89
32.86
27.64
22.32
16.92
11.42
5.82
0.22
-5.19
-10.21
-14.77
-19.04
-23.43
-28.47
-34.58
-41.80
-49.70
-57.34
-63.46
-66.82
-66.59
-62.62
-55.54
-46.60
-37.20
-28.51
-21.19
-15.32
-10.72
-7.15
-4.62
-3.32
-3.50
-5.24
-8.39
-12.57
-17.39
-22.53
-27.80
-33.09
-38.24
-42.94
-46.77
-49.31
-50.29
-49.70
-47.86
-45.22
-42.27
-39.25
-36.14
-32.70
-28.70
-24.05
-18.93
-13.72
-8.73
-4.13
0.17
4.39
8.69
13.02
17.07
20.33
22.25
22.48
21.00
18.33
15.49
13.82
14.65
18.91
26.77
37.53
49.87
62.19
73.13
81.85
88.16
92.42
95.32
97.46
99.27
100.80
101.82
102.02
101.10
98.96
95.71
91.62
87.03
82.20
77.38
72.77
68.56
64.96
62.07
59.77
57.65
55.16
51.78
47.27
41.75
35.63
29.40
23.41
17.68
11.94
5.80
-1.03
-8.58
-16.61
-24.75
-32.59
-39.93
-46.72
-53.18
-59.56
-66.15
-73.14
-80.58
-88.31
-95.87
-102.48
-107.07
-108.48
-105.84
-98.93
-88.43
-75.78
-62.83
-51.17
-41.65
-34.24
-28.27
-22.88
-17.50
-11.99
-6.62
-1.85
1.92
4.46
5.75
5.98
5.48
4.71
4.08
3.90
4.32
5.31
6.66
8.12
9.43
10.33
10.64
10.24
9.16
7.51
5.53
3.44
1.38
-0.59
-2.55
-4.70
-7.27
-10.47
-14.36
-18.79
-23.34
-27.46
-30.75
-33.18
-35.15
-37.36
-40.47
-44.77
-50.00
-55.33
-59.67
-61.89
-61.21
-57.22
-50.02
-40.14
-28.38
-15.74
-3.33
7.88
17.21
24.41
29.69
33.61
36.81
39.71
42.42
44.71
46.28
46.94
46.71
45.86
44.69
43.39
42.02
40.58
39.11
37.79
36.83
36.33
36.19
36.06
35.47
34.10
31.85
28.97
25.97
23.36
21.59
20.72
20.51
20.50
20.19
19.29
17.76
15.89
14.13
12.84
12.16
11.86
11.41
10.20
7.75
3.89
-1.12
-6.70
-12.02
-16.13
-18.20
-17.60
-14.09
-7.92
0.25
9.46
18.62
26.83
33.49
38.40
41.68
43.60
44.49
44.62
44.22
43.43
42.36
41.01
39.32
37.17
34.47
31.22
27.55
23.70
19.91
16.33
12.93
9.62
6.30
2.96
-0.32
-3.38
-6.07
-8.30
-10.08
-11.53
-12.85
-14.28
-16.04
-18.26
-20.93
-23.94
-27.10
-30.22
-33.15
-35.80
-38.16
-40.33
-42.56
-45.22
-48.66
-53.02
-57.96
-62.61
-65.74
-66.19
-63.24
-56.94
-48.08
-37.91
-27.64
-18.15
-9.90
-3.00
2.51
6.61
9.32
10.81
11.39
11.48
11.38
11.16
10.73
9.94
8.84
7.70
6.87
6.57
6.73
6.98
6.92
6.33
5.27
4.00
2.80
1.73
0.66
-0.69
-2.67
-5.44
-9.01
-13.20
-17.74
-22.36
-26.93
-31.39
-35.82
-40.31
-44.99
-49.97
-55.44
-61.66
-68.69
-76.28
-83.59
-89.29
-91.86
-90.21
-84.13
-74.51
-62.98
-51.33
-40.93
-32.34
-25.40
-19.61
-14.45
-9.70
-5.37
-1.57
1.60
4.14
6.16
7.74
8.88
9.57
9.86
9.99
10.33
11.33
13.28
16.16
19.58
22.95
25.77
27.84
29.39
30.86
32.69
35.01
37.64
40.21
42.34
43.86
44.79
45.22
45.18
44.63
43.46
41.57
38.98
35.74
31.80
27.00
21.09
14.00
6.14
-1.47
-7.34
-9.88
-7.96
-1.40
9.00
21.64
34.64
46.39
55.90
62.83
67.51
70.56
72.75
74.77
77.12
79.97
83.15
86.18
88.41
89.22
88.11
84.97
80.14
74.28
68.37
63.34
59.79
57.73
56.65
55.72
54.23
51.87
48.92
45.91
43.25
40.86
38.09
34.09
28.15
20.14
10.54
0.20
-10.00
-19.35
-27.51
-34.40
-40.10
-44.92
-49.30
-53.78
-58.77
-64.28
-69.75
-74.05
-75.78
-73.79
-67.52
-57.21
-43.79
-28.47
-12.55
2.92
17.14
29.52
39.69
47.43
52.78
56.00
57.43
57.41
56.24
54.09
51.18
47.73
44.06
40.40
36.79
33.09
28.98
24.18
18.53
11.94
4.40
-4.05
-13.31
-23.13
-33.01
-42.34
-50.54
-57.37
-63.08
-68.29
-73.79
-80.10
-87.24
-94.73
-101.87
-108.03
-113.01
-117.04
-120.76
-124.92
-130.23
-137.18
-145.85
-155.90
-166.30
-175.41
-181.19
-181.57
-175.12
-161.47
-141.42
-116.78
-89.80
-62.67
-37.11
-14.28
5.17
20.88
32.78
40.99
45.92
48.34
49.42
50.55
53.08
57.81
64.62
72.33
79.02
82.82
82.68
79.02
73.51
68.55
66.21
67.56
72.45
79.71
87.69
94.71
99.28
100.23
96.74
88.49
75.82
59.76
41.81
23.55
6.14
-9.89
-24.48
-37.78
-49.75
-60.05
-68.17
-73.68
-76.50
-77.03
-76.07
-74.71
-74.13
-75.25
-78.46
-83.25
-88.15
-90.95
-89.43
-82.11
-68.89
-51.21
-31.63
-13.02
2.16
12.54
18.12
20.29
21.54
24.76
32.28
45.02
61.88
80.00
95.69
105.49
107.36
101.04
87.92
70.60
52.35
36.42
25.40
20.51
21.05
24.54
27.49
26.58
19.72
6.49
-12.32
-35.37
-61.35
-88.91
-116.19
-140.38
-158.00
-165.85
-162.17
-147.57
-124.71
-97.17
-68.04
-39.20
-11.83
12.58
31.55
42.10
42.19
32.14
14.92
-5.03
-23.76
-39.36
-52.01
-62.90
-72.62
-80.52
-85.14
-85.47
-81.92
-76.23
-70.62
-66.61
-64.49
-63.63
-63.22
-62.77
-62.30
-62.05
-62.12
-62.35
-62.29
-61.38
-59.09
-55.09
-49.38
-42.56
-35.94
-31.23
-29.97
-32.66
-38.28
-44.48
-48.41
-47.92
-42.52
-33.43
-22.80
-12.58
-3.56
4.76
13.71
24.55
37.77
52.63
67.54
80.68
90.81
97.75
102.37
106.12
110.27
115.36
120.99
126.18
129.88
131.37
130.60
128.04
124.37
120.25
116.16
112.39
109.11
106.41
104.26
102.51
100.85
98.78
95.63
90.63
83.17
72.91
59.93
44.74
28.08
10.64
-7.20
-25.45
-44.58
-65.13
-87.37
-110.76
-133.68
-153.57
-167.43
-172.71
-168.02
-153.62
-131.26
-103.60
-73.43
-43.09
-14.18
12.38
36.14
56.89
74.60
89.32
101.19
110.36
117.00
121.21
123.10
122.79
120.52
116.48
110.79
103.50
94.64
84.49
73.66
63.00
53.26
44.63
36.44
27.39
16.09
1.83
-14.89
-32.43
-48.56
-61.39
-70.01
-74.75
-76.76
-77.35
-77.42
-77.07
-75.82
-72.98
-68.18
-61.60
-53.97
-46.29
-39.32
-33.24
-27.49
-21.02
-12.72
-2.10
10.47
23.73
35.94
45.49
51.39
53.48
52.31
48.79
43.80
38.07
32.14
26.52
21.82
18.68
17.59
18.63
21.40
24.99
28.34
30.62
31.37
30.53
28.17
24.31
18.78
11.42
2.37
-7.76
-17.99
-27.22
-34.69
-40.09
-43.43
-44.83
-44.15
-41.18
-35.88
-28.72
-20.56
-12.23
-4.05
4.35
13.55
23.64
33.68
41.79
45.91
44.86
38.92
29.91
20.45
13.09
9.65
10.87
16.58
25.88
37.33
49.26
60.12
68.80
74.94
78.84
81.12
82.44
83.22
83.65
83.68
83.19
81.98
79.79
76.44
71.87
66.28
60.11
53.92
48.16
43.18
39.10
35.92
33.58
31.86
30.43
28.83
26.59
23.41
19.25
14.33
9.07
3.91
-0.86
-5.14
-9.05
-12.82
-16.67
-20.68
-24.75
-28.69
-32.33
-35.76
-39.42
-43.91
-49.75
-56.93
-64.73
-71.80
-76.55
-77.72
-74.80
-68.23
-59.21
-49.26
-39.73
-31.40
-24.40
-18.34
-12.69
-7.12
-1.74
3.04
6.68
8.85
9.63
9.48
9.01
8.73
8.83
9.16
9.38
9.16
8.33
6.87
4.90
2.51
-0.26
-3.44
-7.11
-11.31
-15.90
-20.57
-24.91
-28.60
-31.58
-34.06
-36.43
-39.05
-42.09
-45.59
-49.53
-53.93
-58.85
-64.07
-68.86
-71.99
-72.07
-68.18
-60.32
-49.53
-37.49
-25.80
-15.50
-6.75
0.95
8.26
15.59
22.90
29.74
35.57
39.93
42.65
43.87
43.94
43.27
42.23
41.02
39.68
38.15
36.36
34.36
32.26
30.21
28.29
26.43
24.50
22.24
19.47
16.11
12.19
7.83
3.17
-1.67
-6.61
-11.59
-16.63
-21.78
-27.13
-32.83
-39.08
-45.92
-53.12
-60.06
-65.66
-68.70
-68.10
-63.44
-55.11
-44.24
-32.39
-20.96
-10.84
-2.29
4.95
11.27
16.98
22.11
26.54
30.09
32.66
34.28
35.12
35.42
35.33
35.00
34.48
33.79
32.98
32.20
31.69
31.76
32.53
33.86
35.22
35.88
35.20
32.91
29.24
24.80
20.28
16.12
12.36
8.75
4.97
0.79
-3.84
-8.94
-14.69
-21.37
-29.24
-38.14
-47.36
-55.62
-61.47
-63.73
-61.92
-56.40
-48.17
-38.48
-28.37
-18.56
-9.37
-0.93
6.66
13.36
19.07
23.80
27.58
30.49
32.53
33.67
33.83
33.04
31.47
29.45
27.43
25.84
24.91
24.65
24.84
25.16
25.24
24.81
23.72
21.96
19.68
17.10
14.42
11.71
8.86
5.60
1.69
-2.92
-7.95
-12.94
-17.50
-21.55
-25.40
-29.60
-34.68
-40.80
-47.64
-54.37
-59.89
-63.05
-62.97
-59.28
-52.16
-42.31
-30.78
-18.71
-7.11
3.32
12.26
19.70
25.80
30.82
34.93
38.27
40.93
42.99
44.53
45.57
46.06
45.86
44.78
42.75
39.98
36.91
34.16
32.18
31.00
30.28
29.44
27.96
25.64
22.57
19.02
15.27
11.43
7.44
3.21
-1.29
-5.92
-10.48
-14.79
-18.87
-22.91
-27.16
-31.86
-37.06
-42.68
-48.48
-54.07
-58.90
-62.36
-63.73
-62.40
-58.08
-50.92
-41.54
-30.88
-19.90
-9.40
0.14
8.55
15.79
21.91
26.96
31.02
34.17
36.49
37.99
38.62
38.31
37.12
35.27
33.10
30.97
29.16
27.74
26.63
25.69
24.75
23.71
22.45
20.93
19.05
16.76
14.08
11.04
7.70
4.13
0.37
-3.53
-7.46
-11.29
-14.92
-18.30
-21.57
-24.95
-28.77
-33.28
-38.61
-44.53
-50.50
-55.59
-58.78
-59.10
-56.01
-49.52
-40.28
-29.39
-18.08
-7.47
1.76
9.36
15.45
20.35
24.35
27.71
30.53
32.77
34.35
35.12
34.98
33.92
32.04
29.53
26.64
23.63
20.79
18.39
16.68
15.75
15.53
15.69
15.72
15.07
13.33
10.38
6.39
1.79
-2.94
-7.43
-11.52
-15.26
-18.88
-22.62
-26.71
-31.29
-36.38
-41.82
-47.19
-51.75
-54.54
-54.62
-51.45
-45.16
-36.47
-26.58
-16.66
-7.54
0.44
7.32
13.29
18.46
22.86
26.45
29.23
31.21
32.47
33.07
33.01
32.28
30.86
28.80
26.20
23.30
20.42
17.89
15.99
14.77
14.07
13.58
12.92
11.80
10.09
7.81
5.11
2.11
-1.06
-4.28
-7.41
-10.38
-13.17
-15.97
-19.12
-22.98
-27.74
-33.19
-38.64
-43.02
-45.18
-44.30
-40.15
-33.18
-24.26
-14.48
-4.79
4.15
11.97
18.57
24.02
28.54
32.47
36.11
39.70
43.20
46.42
49.01
50.75
51.71
52.20
52.66
53.46
54.74
56.37
58.06
59.50
60.49
61.01
61.13
60.87
60.15
58.77
56.51
53.20
48.77
43.24
36.78
29.63
22.10
14.50
7.14
0.16
-6.48
-12.99
-19.68
-26.71
-33.89
-40.63
-45.94
-48.77
-48.40
-44.73
-38.45
-30.76
-23.01
-16.15
-10.56
-6.09
-2.45
0.44
2.31
2.64
0.98
-2.75
-8.32
-15.23
-23.13
-31.87
-41.40
-51.42
-61.16
-69.26
-74.16
-74.65
-70.32
-61.82
-50.64
-38.67
-27.59
-18.62
-12.23
-8.40
-6.71
-6.61
-7.50
-8.92
-10.58
-12.40
-14.57
-17.43
-21.26
-26.22
-32.22
-38.95
-46.03
-53.16
-60.22
-67.31
-74.54
-81.78
-88.52
-93.84
-96.67
-96.04
-91.49
-83.15
-71.78
-58.49
-44.55
-31.11
-18.98
-8.55
0.23
7.73
14.37
20.39
25.78
30.19
33.27
34.92
35.40
35.29
35.26
35.79
37.01
38.73
40.59
42.22
43.44
44.16
44.36
43.98
42.80
40.56
37.02
32.11
26.05
19.29
12.35
5.64
-0.65
-6.49
-11.89
-16.82
-21.26
-25.21
-28.84
-32.48
-36.45
-40.86
-45.40
-49.32
-51.69
-51.64
-48.68
-42.91
-35.00
-25.93
-16.76
-8.27
-0.86
5.45
10.79
15.33
19.13
22.12
24.25
25.49
25.91
25.60
24.67
23.24
21.51
19.66
17.93
16.52
15.53
15.01
15.05
15.73
17.10
19.08
21.36
23.44
24.78
25.03
24.18
22.51
20.48
18.50
16.73
15.07
13.29
11.09
8.23
4.66
0.45
-4.07
-8.38
-11.73
-13.22
-12.16
-8.38
-2.41
4.60
11.26
16.51
19.94
21.84
22.87
23.64
24.38
24.92
25.00
24.46
23.50
22.50
21.73
21.16
20.42
19.02
16.64
13.36
9.56
5.93
3.09
1.42
0.87
1.01
1.12
0.43
-1.61
-5.10
-9.77
-15.05
-20.46
-25.79
-31.17
-36.93
-43.40
-50.59
-58.19
-65.56
-71.91
-76.47
-78.63
-78.04
-74.75
-69.15
-61.86
-53.53
-44.60
-35.26
-25.55
-15.54
-5.53
3.96
12.38
19.37
24.85
29.00
32.12
34.43
35.99
36.76
36.74
35.99
34.75
33.36
32.14
31.31
30.80
30.31
29.40
27.69
24.94
21.25
16.96
12.53
8.33
4.60
1.31
-1.68
-4.61
-7.78
-11.46
-15.81
-20.79
-26.08
-31.03
-34.81
-36.55
-35.70
-32.13
-26.23
-18.79
-10.68
-2.72
4.61
11.11
16.73
21.50
25.45
28.50
30.63
31.84
32.25
32.11
31.66
31.05
30.28
29.21
27.68
25.71
23.54
21.57
20.15
19.34
18.90
18.36
17.30
15.57
13.38
11.08
8.97
7.07
5.20
3.05
0.43
-2.75
-6.43
-10.57
-15.19
-20.27
-25.64
-30.79
-34.93
-37.13
-36.69
-33.38
-27.55
-20.00
-11.66
-3.34
4.49
11.64
18.10
23.92
29.08
33.47
37.02
39.67
41.46
42.53
43.01
43.03
42.60
41.69
40.28
38.44
36.37
34.34
32.56
31.11
29.89
28.70
27.39
25.85
23.99
21.72
18.89
15.40
11.34
6.94
2.59
-1.41
-5.01
-8.42
-12.10
-16.46
-21.63
-27.36
-32.98
-37.59
-40.33
-40.62
-38.28
-33.61
-27.27
-20.09
-12.86
-6.15
-0.24
4.78
8.92
12.21
14.71
16.47
17.60
18.24
18.45
18.32
17.88
17.15
16.24
15.24
14.25
13.28
12.30
11.24
10.11
8.88
7.49
5.75
3.44
0.48
-3.01
-6.62
-9.88
-12.49
-14.45
-16.06
-17.71
-19.78
-22.49
-25.89
-29.82
-33.98
-37.81
-40.53
-41.29
-39.43
-34.82
-27.97
-19.93
-11.92
-4.88
0.83
5.39
9.27
12.83
16.19
19.17
21.47
22.94
23.63
23.73
23.43
22.77
21.71
20.21
18.40
16.56
15.05
14.11
13.75
13.72
13.58
12.89
11.37
8.93
5.68
1.88
-2.10
-5.87
-9.13
-11.77
-13.96
-16.13
-18.93
-22.87
-28.11
-34.23
-40.28
-45.03
-47.44
-46.94
-43.66
-38.20
-31.38
-23.93
-16.38
-9.12
-2.40
3.54
8.56
12.70
16.20
19.40
22.47
25.34
27.76
29.37
29.98
29.59
28.43
26.80
24.99
23.19
21.57
20.26
19.37
18.89
18.74
18.64
18.29
17.38
15.74
13.34
10.34
6.94
3.39
-0.13
-3.58
-7.04
-10.69
-14.76
-19.36
-24.51
-30.08
-35.73
-40.96
-45.13
-47.51
-47.53
-44.90
-39.85
-32.98
-25.16
-17.29
-10.01
-3.64
1.78
6.28
9.91
12.71
14.79
16.35
17.70
19.08
20.53
21.88
22.75
22.91
22.35
21.39
20.46
19.93
19.82
19.86
19.72
19.18
18.27
17.20
16.15
15.23
14.29
13.13
11.57
9.55
7.13
4.45
1.63
-1.23
-4.09
-6.94
-9.83
-12.97
-16.60
-20.93
-25.93
-31.23
-36.11
-39.68
-41.10
-39.88
-36.01
-29.99
-22.68
-15.03
-7.86
-1.69
3.28
7.15
10.19
12.70
14.93
16.98
18.88
20.56
21.97
23.08
23.88
24.38
24.55
24.35
23.89
23.28
22.74
22.44
22.36
22.27
21.84
20.80
19.06
16.79
14.26
11.70
9.15
6.48
3.53
0.26
-3.17
-6.47
-9.44
-12.08
-14.64
-17.51
-21.02
-25.34
-30.38
-35.75
-40.85
-44.95
-47.28
-47.20
-44.42
-39.15
-32.05
-24.09
-16.30
-9.39
-3.70
0.86
4.60
7.84
10.76
13.35
15.45
16.91
17.64
17.76
17.50
17.14
16.95
17.05
17.42
17.91
18.33
18.57
18.59
18.44
18.15
17.69
16.94
15.68
13.69
10.89
7.42
3.61
-0.17
-3.62
-6.74
-9.74
-12.99
-16.85
-21.46
-26.80
-32.63
-38.60
-44.31
-49.30
-53.01
-54.81
-54.05
-50.31
-43.60
-34.53
-24.23
-14.02
-5.03
2.19
7.68
11.96
15.66
19.22
22.73
26.05
28.88
30.97
32.19
32.46
31.78
30.23
28.04
25.51
23.07
21.05
19.67
18.91
18.58
18.39
18.00
17.13
15.62
13.54
11.05
8.44
5.95
3.69
1.55
-0.72
-3.38
-6.54
-10.09
-13.71
-17.14
-20.28
-23.35
-26.76
-30.86
-35.60
-40.39
-44.26
-46.18
-45.50
-42.19
-36.77
-30.04
-22.78
-15.50
-8.51
-2.01
3.75
8.54
12.21
14.87
16.85
18.53
20.19
21.84
23.28
24.23
24.50
24.12
23.28
22.30
21.45
20.89
20.69
20.78
21.04
21.36
21.70
22.10
22.58
23.07
23.31
22.84
21.24
18.25
13.92
8.63
2.94
-2.61
-7.65
-12.14
-16.31
-20.56
-25.27
-30.69
-36.80
-43.29
-49.55
-54.84
-58.51
-60.15
-59.69
-57.44
-53.85
-49.56
-45.06
-40.78
-36.83
-33.08
-29.20
-24.80
-19.67
-13.92
-7.94
-2.25
2.68
6.59
9.35
11.01
11.65
11.39
10.58
9.70
9.31
9.82
11.31
13.50
15.81
17.68
18.74
18.92
18.30
17.09
15.44
13.52
11.54
9.69
8.19
7.06
6.24
5.47
4.40
2.63
-0.19
-4.21
-9.30
-14.89
-20.10
-23.88
-25.40
-24.30
-20.81
-15.70
-9.89
-4.17
1.03
5.64
9.73
13.35
16.40
18.72
20.20
20.97
21.32
21.64
22.18
22.95
23.69
24.01
23.61
22.44
20.69
18.73
16.92
15.42
14.22
13.16
12.09
10.91
9.54
7.92
5.94
3.55
0.82
-2.03
-4.70
-7.01
-9.06
-11.21
-14.02
-17.96
-23.13
-29.14
-35.18
-40.26
-43.50
-44.36
-42.73
-38.82
-33.09
-26.08
-18.39
-10.62
-3.32
3.02
8.20
12.27
15.53
18.29
20.72
22.75
24.15
24.72
24.42
23.49
22.27
21.08
20.07
19.23
18.48
17.74
16.97
16.22
15.52
14.84
14.10
13.20
11.97
10.30
8.13
5.52
2.60
-0.44
-3.47
-6.43
-9.41
-12.54
-15.98
-19.83
-24.03
-28.39
-32.53
-35.88
-37.77
-37.63
-35.14
-30.47
-24.24
-17.34
-10.62
-4.59
0.69
5.45
9.89
14.13
18.01
21.32
23.89
25.65
26.64
26.87
26.35
25.08
23.18
20.87
18.52
16.46
14.94
13.97
13.48
13.29
13.21
13.06
12.63
11.74
10.25
8.11
5.44
2.41
-0.80
-4.01
-7.18
-10.38
-13.67
-17.10
-20.68
-24.37
-28.08
-31.68
-34.88
-37.24
-38.17
-37.13
-33.87
-28.52
-21.66
-14.09
-6.62
0.15
6.01
10.93
15.08
18.57
21.47
23.76
25.43
26.47
26.91
26.83
26.28
25.35
24.15
22.88
21.69
20.69
19.92
19.33
18.83
18.30
17.69
16.89
15.78
14.18
11.92
9.00
5.58
2.02
-1.34
-4.30
-6.91
-9.47
-12.30
-15.60
-19.42
-23.59
-27.85
-31.87
-35.23
-37.43
-37.93
-36.30
-32.41
-26.59
-19.66
-12.65
-6.49
-1.72
1.59
3.76
5.21
6.29
7.17
7.90
8.52
9.17
10.02
11.26
13.02
15.25
17.73
20.20
22.34
23.91
24.76
24.83
24.19
22.97
21.27
19.11
16.41
13.09
9.19
5.01
0.99
-2.45
-5.21
-7.59
-10.17
-13.54
-17.99
-23.30
-28.80
-33.59
-36.89
-38.16
-37.20
-34.10
-29.17
-22.94
-16.07
-9.29
-3.14
2.07
6.35
9.96
13.20
16.23
18.97
21.16
22.47
22.71
21.89
20.32
18.46
16.75
15.46
14.63
14.08
13.60
13.01
12.27
11.47
10.69
9.94
9.06
7.78
5.89
3.26
-0.00
-3.61
-7.18
-10.46
-13.36
-16.04
-18.80
-21.95
-25.70
-29.97
-34.45
-38.62
-41.86
-43.66
-43.58
-41.40
-37.20
-31.23
-23.95
-15.87
-7.57
0.41
7.64
13.87
19.11
23.51
27.26
30.35
32.53
33.37
32.51
29.91
26.00
21.49
17.13
13.52
10.88
9.17
8.15
7.53
7.09
6.63
6.15
5.71
5.47
5.49
5.62
5.45
4.37
1.93
-2.06
-7.32
-13.29
-19.31
-24.86
-29.71
-33.84
-37.36
-40.33
-42.70
-44.18
-44.40
-42.94
-39.54
-34.21
-27.28
-19.41
-11.38
-4.03
2.12
6.87
10.34
12.90
14.97
16.86
18.73
20.54
22.21
23.63
24.77
25.65
26.25
26.51
26.29
25.48
24.13
22.47
20.80
19.41
18.45
17.87
17.52
17.18
16.65
15.72
14.25
12.13
9.36
6.14
2.79
-0.36
-3.09
-5.40
-7.53
-9.88
-12.82
-16.53
-20.90
-25.52
-29.80
-32.98
-34.43
-33.73
-30.80
-25.98
-19.91
-13.38
-7.10
-1.58
3.01
6.70
9.60
11.82
13.44
14.51
15.16
15.57
15.88
16.16
16.29
16.15
15.59
14.58
13.22
11.61
9.88
8.08
6.16
4.02
1.60
-1.18
-4.36
-7.93
-11.79
-15.82
-19.84
-23.71
-27.47
-31.29
-35.51
-40.51
-46.59
-53.73
-61.53
-69.26
-76.01
-81.00
-83.75
-84.28
-83.05
-80.77
-78.20
-75.99
-74.57
-74.12
-74.64
-75.87
-77.45
-78.97
-80.04
-80.37
-79.65
-77.45
-73.19
-66.12
-55.60
-41.25
-23.26
-2.42
20.04
42.65
64.02
83.06
99.03
111.43
119.94
124.40
124.86
121.72
115.77
108.06
99.66
91.32
83.31
75.49
67.56
59.27
50.66
41.92
33.37
25.32
18.08
12.00
7.44
4.77
4.21
5.67
8.68
12.52
16.42
19.76
22.28
24.06
25.45
26.82
28.36
30.03
31.50
32.38
32.37
31.38
29.57
27.26
24.81
22.52
20.57
19.03
17.87
17.00
16.35
15.83
15.34
14.76
13.90
12.56
10.64
8.11
5.08
1.81
-1.47
-4.55
-7.35
-9.96
-12.56
-15.42
-18.75
-22.64
-27.00
-31.51
-35.63
-38.73
-40.30
-39.98
-37.70
-33.66
-28.30
-22.15
-15.81
-9.75
-4.33
0.29
4.16
7.45
10.34
12.98
15.42
17.54
19.19
20.22
20.59
20.40
19.82
19.01
18.06
17.07
16.14
15.44
15.11
15.25
15.72
16.27
16.62
16.56
16.01
14.96
13.34
11.14
8.33
5.01
1.42
-2.05
-5.13
-7.77
-10.18
-12.75
-15.83
-19.54
-23.74
-28.09
-32.22
-35.83
-38.73
-40.69
-41.42
-40.51
-37.60
-32.65
-26.11
-18.92
-12.20
-6.79
-2.98
-0.41
1.65
3.86
6.52
9.49
12.39
14.85
16.70
17.98
18.80
19.22
19.23
18.79
17.98
17.00
16.14
15.63
15.49
15.57
15.66
15.61
15.38
15.02
14.58
14.01
13.20
11.96
10.23
7.96
5.19
2.03
-1.39
-4.96
-8.53
-12.04
-15.51
-19.08
-22.94
-27.09
-31.25
-34.76
-36.86
-36.93
-34.80
-30.81
-25.59
-19.86
-14.13
-8.68
-3.64
0.90
4.80
7.96
10.40
12.28
13.83
15.26
16.63
17.85
18.83
19.55
20.07
20.58
21.17
21.87
22.59
23.16
23.46
23.39
22.98
22.29
21.45
20.52
19.52
18.36
16.84
14.80
12.11
8.79
4.98
0.94
-3.01
-6.64
-9.76
-12.40
-14.68
-16.87
-19.30
-22.19
-25.63
-29.40
-32.99
-35.68
-36.76
-35.72
-32.56
-27.80
-22.37
-17.21
-12.90
-9.53
-6.76
-4.16
-1.50
1.10
3.30
4.83
5.66
6.05
6.33
6.65
7.00
7.19
7.20
7.24
7.66
8.79
10.68
13.00
15.24
16.94
17.80
17.84
17.19
16.02
14.45
12.54
10.39
8.14
5.96
3.87
1.70
-0.85
-4.05
-8.00
-12.48
-17.01
-20.96
-23.76
-25.09
-24.88
-23.27
-20.54
-17.04
-13.02
-8.75
-4.47
-0.43
3.17
6.14
8.43
10.05
11.12
11.79
12.20
12.42
12.44
12.26
11.90
11.40
10.91
10.56
10.43
10.46
10.44
10.15
9.44
8.26
6.69
4.87
2.93
0.89
-1.26
-3.56
-5.94
-8.32
-10.64
-12.91
-15.30
-17.96
-20.99
-24.36
-27.87
-31.25
-34.16
-36.25
-37.16
-36.56
-34.25
-30.23
-24.74
-18.30
-11.51
-4.96
0.92
5.97
10.16
13.60
16.39
18.58
20.13
20.98
21.10
20.58
19.63
18.51
17.44
16.55
15.79
15.09
14.39
13.70
13.04
12.39
11.62
10.50
8.81
6.48
3.70
0.72
-2.20
-5.04
-7.90
-10.96
-14.33
-17.91
-21.51
-25.00
-28.29
-31.36
-34.02
-35.84
-36.16
-34.43
-30.44
-24.57
-17.57
-10.40
-3.75
2.05
7.00
11.29
15.04
18.26
20.83
22.67
23.80
24.40
24.68
24.75
24.62
24.13
23.15
21.63
19.76
17.80
16.01
14.45
12.99
11.39
9.46
7.21
4.76
2.28
-0.20
-2.67
-5.22
-7.80
-10.35
-12.82
-15.29
-17.99
-21.24
-25.17
-29.66
-34.26
-38.27
-41.04
-42.04
-41.12
-38.37
-34.13
-28.85
-22.95
-16.84
-10.78
-4.90
0.74
6.20
11.48
16.58
21.42
25.86
29.67
32.64
34.60
35.52
35.56
35.01
34.17
33.19
32.00
30.44
28.39
25.94
23.43
21.29
19.76
18.83
18.12
17.13
15.46
12.93
9.63
5.80
1.69
-2.54
-6.77
-10.96
-15.13
-19.27
-23.42
-27.59
-31.66
-35.42
-38.52
-40.58
-41.29
-40.42
-37.92
-33.95
-28.80
-22.90
-16.71
-10.67
-5.07
-0.03
4.52
8.69
12.58
16.13
19.20
21.57
23.10
23.81
23.87
23.56
23.12
22.75
22.50
22.41
22.47
22.74
23.30
24.20
25.41
26.67
27.64
27.96
27.36
25.83
23.55
20.79
17.76
14.54
11.13
7.46
3.52
-0.61
-4.81
-8.97
-13.06
-17.07
-21.01
-24.80
-28.25
-31.08
-32.96
-33.54
-32.61
-30.15
-26.37
-21.72
-16.74
-11.89
-7.50
-3.66
-0.33
2.62
5.28
7.73
9.99
12.09
14.07
15.96
17.71
19.20
20.25
20.73
20.63
20.08
19.27
18.41
17.61
16.86
16.07
15.12
13.91
12.41
10.67
8.79
6.90
5.13
3.53
2.05
0.50
-1.30
-3.49
-5.98
-8.48
-10.62
-12.12
-12.90
-13.19
-13.40
-14.01
-15.43
-17.83
-21.08
-24.70
-27.82
-29.40
-28.46
-24.39
-17.28
-7.93
2.33
12.09
20.25
26.33
30.44
33.16
35.21
37.17
39.36
41.78
44.08
45.69
45.98
44.40
40.65
34.81
27.26
18.61
9.52
0.56
-7.84
-15.37
-21.81
-27.01
-30.90
-33.55
-35.13
-35.80
-35.76
-35.14
-34.10
-32.88
-31.81
-31.29
-31.65
-32.98
-35.14
-37.76
-40.41
-42.79
-44.87
-46.85
-49.13
-52.07
-55.77
-60.03
-64.32
-67.82
-69.58
-68.80
-64.97
-58.00
-48.38
-37.02
-25.02
-13.39
-2.83
6.45
14.55
21.65
27.85
33.10
37.25
40.26
42.19
43.24
43.60
43.45
42.91
42.07
41.07
40.06
39.15
38.40
37.76
37.11
36.33
35.40
34.41
33.52
32.95
32.85
33.26
34.09
35.12
36.09
36.69
36.69
35.91
34.31
31.95
28.97
25.56
21.79
17.67
13.08
7.98
2.47
-3.09
-8.15
-12.13
-14.56
-15.25
-14.29
-11.95
-8.67
-4.93
-1.18
2.12
4.69
6.43
7.38
7.71
7.65
7.36
6.95
6.42
5.66
4.61
3.24
1.65
0.06
-1.27
-2.10
-2.32
-1.97
-1.24
-0.38
0.38
0.85
0.89
0.47
-0.41
-1.63
-3.00
-4.35
-5.52
-6.50
-7.34
-8.05
-8.59
-8.86
-8.89
-8.85
-9.14
-10.18
-12.15
-14.84
-17.62
-19.74
-20.58
-19.92
-17.97
-15.18
-12.04
-8.87
-5.79
-2.81
0.06
2.69
4.93
6.65
7.82
8.56
9.11
9.65
10.29
10.95
11.47
11.61
11.22
10.28
8.91
7.39
5.93
4.73
3.79
2.98
2.11
1.01
-0.44
-2.19
-4.08
-5.92
-7.51
-8.77
-9.71
-10.50
-11.35
-12.48
-14.03
-16.06
-18.49
-21.18
-23.87
-26.28
-28.09
-29.00
-28.77
-27.25
-24.45
-20.56
-15.99
-11.27
-6.96
-3.52
-1.09
0.45
1.50
2.49
3.71
5.16
6.53
7.42
7.54
6.89
5.76
4.57
3.69
3.26
3.21
3.33
3.46
3.51
3.53
3.59
3.63
3.48
2.85
1.50
-0.52
-2.96
-5.39
-7.35
-8.64
-9.29
-9.63
-10.10
-11.06
-12.78
-15.32
-18.62
-22.43
-26.28
-29.49
-31.33
-31.21
-28.96
-24.86
-19.66
-14.19
-9.14
-4.88
-1.42
1.43
3.89
6.06
7.96
9.58
10.98
12.22
13.35
14.31
14.91
14.93
14.25
12.91
11.19
9.50
8.20
7.52
7.43
7.68
7.99
8.13
8.02
7.65
7.06
6.18
4.89
3.12
0.90
-1.58
-4.08
-6.43
-8.65
-10.90
-13.36
-16.05
-18.79
-21.22
-22.98
-23.80
-23.56
-22.29
-20.13
-17.23
-13.83
-10.20
-6.58
-3.14
0.02
2.87
5.43
7.61
9.34
10.51
11.03
10.86
10.02
8.62
6.83
4.94
3.24
1.95
1.16
0.78
0.64
0.55
0.42
0.17
-0.27
-1.04
-2.27
-3.98
-6.02
-8.05
-9.69
-10.74
-11.28
-11.67
-12.43
-13.91
-16.17
-18.86
-21.28
-22.77
-22.83
-21.32
-18.49
-14.78
-10.63
-6.35
-2.05
2.18
6.21
9.88
13.00
15.53
17.54
19.26
20.82
22.26
23.40
23.95
23.67
22.41
20.26
17.52
14.61
11.98
9.96
8.68
7.99
7.60
7.17
6.46
5.42
4.14
2.76
1.35
-0.13
-1.73
-3.54
-5.60
-7.88
-10.42
-13.24
-16.29
-19.33
-21.96
-23.64
-23.90
-22.49
-19.53
-15.40
-10.59
-5.57
-0.67
3.93
8.13
11.75
14.65
16.66
17.76
18.07
17.88
17.59
17.48
17.66
17.99
18.28
18.31
18.07
17.67
17.33
17.17
17.12
17.00
16.53
15.48
13.77
11.49
8.85
6.11
3.54
1.28
-0.66
-2.44
-4.33
-6.59
-9.40
-12.68
-16.14
-19.28
-21.52
-22.38
-21.59
-19.15
-15.36
-10.76
-5.95
-1.45
2.47
5.75
8.49
10.83
12.81
14.44
15.68
16.53
17.04
17.25
17.21
16.91
16.34
15.51
14.50
13.43
12.42
11.55
10.79
10.02
9.03
7.70
5.98
4.01
2.07
0.40
-0.89
-1.89
-2.87
-4.14
-5.92
-8.28
-11.14
-14.33
-17.51
-20.25
-22.04
-22.38
-21.06
-18.15
-14.06
-9.37
-4.63
-0.22
3.64
6.93
9.65
11.85
13.59
14.93
15.93
16.59
16.85
16.67
16.06
15.10
13.98
12.88
11.94
11.21
10.65
10.15
9.55
8.68
7.42
5.78
3.87
1.88
0.02
-1.60
-2.95
-4.17
-5.52
-7.32
-9.89
-13.36
-17.62
-22.16
-26.23
-29.01
-29.89
-28.67
-25.55
-21.07
-15.85
-10.48
-5.37
-0.81
3.03
6.08
8.42
10.22
11.69
12.97
14.07
14.85
15.08
14.64
13.56
12.09
10.55
9.20
8.12
7.22
6.32
5.30
4.16
2.98
1.84
0.71
-0.54
-2.06
-3.92
-6.02
-8.15
-10.14
-11.98
-13.88
-16.11
-18.95
-22.45
-26.34
-30.10
-33.09
-34.75
-34.73
-32.97
-29.65
-25.13
-19.82
-14.12
-8.35
-2.80
2.30
6.80
10.64
13.85
16.51
18.72
20.52
21.85
22.63
22.80
22.36
21.35
19.81
17.84
15.58
13.28
11.26
9.77
8.91
8.49
8.11
7.35
5.91
3.79
1.25
-1.38
-3.88
-6.17
-8.41
-10.76
-13.30
-16.03
-18.87
-21.76
-24.65
-27.56
-30.38
-32.91
-34.76
-35.45
-34.56
-31.94
-27.74
-22.41
-16.52
-10.60
-5.05
-0.03
4.43
8.43
12.00
15.14
17.76
19.72
20.91
21.34
21.21
20.76
20.28
19.92
19.70
19.52
19.28
18.98
18.64
18.28
17.89
17.34
16.57
15.54
14.35
13.09
11.81
10.48
9.05
7.46
5.75
3.94
1.99
-0.19
-2.68
-5.44
-8.35
-11.30
-14.20
-17.11
-20.02
-22.70
-24.63
-25.12
-23.65
-20.19
-15.27
-9.74
-4.43
0.18
4.03
7.27
10.04
12.39
14.26
15.64
16.67
17.56
18.43
19.29
19.98
20.34
20.29
19.90
19.28
18.54
17.72
16.81
15.86
14.88
13.89
12.82
11.52
9.85
7.76
5.32
2.74
0.25
-1.95
-3.75
-5.13
-6.19
-7.15
-8.34
-10.11
-12.75
-16.42
-20.93
-25.77
-30.15
-33.16
-34.08
-32.62
-28.99
-23.83
-18.01
-12.28
-7.03
-2.33
1.96
5.98
9.69
12.89
15.37
16.92
17.54
17.35
16.61
15.63
14.76
14.34
14.56
15.37
16.50
17.53
18.07
17.89
17.00
15.58
13.87
12.05
10.14
8.10
5.88
3.52
1.17
-0.97
-2.84
-4.55
-6.38
-8.64
-11.47
-14.83
-18.49
-22.16
-25.68
-28.97
-32.01
-34.66
-36.57
-37.26
-36.26
-33.40
-28.92
-23.38
-17.48
-11.77
-6.54
-1.81
2.58
6.75
10.72
14.29
17.19
19.14
20.04
19.97
19.16
17.92
16.55
15.33
14.39
13.80
13.50
13.32
13.04
12.54
11.76
10.80
9.86
9.10
8.56
8.16
7.72
7.08
6.13
4.81
3.04
0.75
-2.02
-5.11
-8.17
-10.90
-13.17
-15.11
-17.10
-19.54
-22.58
-26.01
-29.31
-31.81
-32.92
-32.29
-29.86
-25.88
-20.80
-15.23
-9.81
-5.06
-1.23
1.74
4.19
6.48
8.86
11.29
13.58
15.39
16.49
16.82
16.50
15.78
14.95
14.23
13.81
13.76
14.04
14.46
14.79
14.84
14.49
13.82
12.99
12.16
11.41
10.71
9.93
8.97
7.71
6.05
3.96
1.46
-1.31
-4.12
-6.68
-8.87
-10.81
-12.81
-15.27
-18.28
-21.61
-24.64
-26.59
-26.86
-25.15
-21.54
-16.42
-10.36
-4.02
1.98
7.08
11.00
13.66
15.32
16.29
16.88
17.21
17.25
16.90
16.14
15.10
13.97
12.98
12.23
11.71
11.33
11.00
10.69
10.45
10.35
10.40
10.50
10.42
9.87
8.72
7.02
5.01
2.97
1.05
-0.83
-2.92
-5.45
-8.48
-11.80
-15.15
-18.30
-21.27
-24.18
-27.13
-29.92
-32.12
-33.17
-32.61
-30.35
-26.64
-21.96
-16.95
-12.11
-7.82
-4.23
-1.32
1.04
3.02
4.73
6.26
7.62
8.85
9.97
11.03
12.02
12.88
13.54
13.95
14.09
14.04
13.87
13.63
13.37
13.10
12.88
12.74
12.61
12.37
11.79
10.66
8.91
6.60
3.99
1.32
-1.22
-3.56
-5.69
-7.60
-9.21
-10.42
-11.31
-12.17
-13.46
-15.62
-18.84
-22.83
-26.92
-30.22
-31.91
-31.56
-29.06
-24.77
-19.24
-13.19
-7.28
-2.00
2.35
5.78
8.54
10.95
13.27
15.55
17.71
19.61
21.13
22.22
22.83
22.86
22.17
20.70
18.59
16.19
13.99
12.41
11.61
11.45
11.54
11.52
11.16
10.41
9.33
7.97
6.35
4.48
2.43
0.37
-1.59
-3.37
-5.05
-6.77
-8.66
-10.78
-13.05
-15.37
-17.69
-20.07
-22.65
-25.54
-28.69
-31.80
-34.37
-35.80
-35.60
-33.51
-29.66
-24.49
-18.70
-12.98
-7.85
-3.51
0.18
3.57
7.00
10.57
14.06
17.05
19.07
19.89
19.64
18.73
17.61
16.52
15.48
14.37
13.14
11.86
10.79
10.14
9.92
9.92
9.73
8.99
7.55
5.50
3.09
0.60
-1.75
-3.85
-5.68
-7.28
-8.72
-10.11
-11.59
-13.26
-15.20
-17.38
-19.77
-22.30
-25.03
-28.04
-31.38
-34.94
-38.32
-40.92
-42.09
-41.31
-38.38
-33.47
-27.07
-19.81
-12.37
-5.33
0.83
5.81
9.47
11.89
13.39
14.41
15.36
16.49
17.80
19.15
20.27
21.00
21.27
21.15
20.79
20.35
19.96
19.71
19.70
19.94
20.31
20.62
20.57
19.98
18.85
17.36
15.77
14.25
12.79
11.26
9.52
7.52
5.34
3.09
0.79
-1.61
-4.25
-7.21
-10.56
-14.22
-18.20
-22.43
-26.77
-30.85
-34.05
-35.63
-34.99
-31.89
-26.60
-19.86
-12.56
-5.51
0.77
6.01
10.14
13.17
15.13
16.13
16.43
16.44
16.57
17.05
17.80
18.44
18.58
18.01
16.85
15.48
14.27
13.43
12.88
12.43
11.92
11.38
10.92
10.58
10.21
9.46
8.04
5.85
3.12
0.18
-2.62
-5.19
-7.61
-10.07
-12.69
-15.38
-18.06
-20.75
-23.65
-27.02
-30.97
-35.23
-39.11
-41.68
-42.14
-40.12
-35.80
-29.81
-22.97
-16.06
-9.67
-4.11
0.47
4.06
6.76
8.78
10.36
11.78
13.15
14.47
15.63
16.48
16.95
17.09
17.13
17.31
17.84
18.79
20.08
21.48
22.74
23.70
24.31
24.59
24.57
24.18
23.30
21.84
19.83
17.51
15.23
13.28
11.75
10.48
9.17
7.52
5.34
2.64
-0.49
-3.80
-6.91
-9.33
-10.49
-9.96
-7.58
-3.62
1.27
6.32
10.89
14.69
17.76
20.36
22.77
25.07
27.20
28.97
30.13
30.51
29.99
28.64
26.63
24.31
22.08
20.30
19.04
18.09
17.10
15.72
13.84
11.54
9.03
6.41
3.59
0.42
-3.17
-7.02
-10.78
-14.11
-16.92
-19.44
-22.05
-25.16
-28.90
-33.13
-37.47
-41.45
-44.59
-46.47
-46.72
-45.13
-41.65
-36.49
-30.11
-23.14
-16.23
-9.90
-4.48
-0.09
3.31
5.82
7.50
8.41
8.66
8.39
7.84
7.19
6.50
5.74
4.86
3.91
3.09
2.66
2.82
3.54
4.56
5.44
5.74
5.17
3.67
1.43
-1.22
-3.87
-6.21
-8.13
-9.79
-11.59
-13.99
-17.30
-21.54
-26.31
-30.94
-34.64
-36.69
-36.66
-34.39
-30.07
-24.11
-17.08
-9.52
-1.96
5.14
11.44
16.64
20.57
23.22
24.83
25.74
26.34
26.85
27.20
27.15
26.39
24.82
22.62
20.20
17.97
16.17
14.80
13.63
12.44
11.05
9.47
7.68
5.67
3.34
0.61
-2.48
-5.72
-8.79
-11.49
-13.82
-16.03
-18.55
-21.80
-25.92
-30.78
-35.90
-40.50
-43.78
-45.04
-43.88
-40.31
-34.76
-27.90
-20.51
-13.25
-6.52
-0.52
4.76
9.35
13.34
16.73
19.53
21.68
23.13
23.86
23.85
23.16
21.98
20.53
19.10
17.96
17.25
17.00
17.13
17.42
17.65
17.61
17.14
16.16
14.71
12.88
10.83
8.70
6.56
4.33
1.88
-0.94
-4.19
-7.74
-11.37
-14.88
-18.23
-21.63
-25.36
-29.57
-34.00
-37.96
-40.48
-40.68
-38.16
-33.11
-26.25
-18.46
-10.51
-2.95
3.97
10.11
15.31
19.50
22.62
24.78
26.18
27.09
27.72
28.19
28.46
28.37
27.77
26.55
24.83
22.90
21.17
20.02
19.65
19.97
20.65
21.24
21.36
20.78
19.49
17.60
15.35
12.98
10.66
8.45
6.33
4.10
1.63
-1.23
-4.45
-7.96
-11.62
-15.30
-18.98
-22.76
-26.82
-31.34
-36.26
-41.17
-45.25
-47.56
-47.31
-44.21
-38.57
-31.20
-23.06
-14.97
-7.51
-0.91
4.74
9.45
13.29
16.40
18.98
21.22
23.20
24.78
25.74
25.82
24.96
23.32
21.31
19.39
17.92
17.09
16.80
16.88
17.08
17.22
17.17
16.77
15.88
14.34
12.18
9.62
7.07
4.94
3.39
2.30
1.28
-0.14
-2.22
-4.95
-8.06
-11.20
-14.17
-17.00
-19.93
-23.28
-27.27
-31.86
-36.69
-41.11
-44.28
-45.44
-44.09
-40.11
-33.82
-25.90
-17.19
-8.58
-0.78
5.71
10.80
14.66
17.62
20.06
22.21
24.07
25.50
26.36
26.58
26.25
25.49
24.40
23.00
21.35
19.56
17.90
16.69
16.15
16.26
16.75
17.15
17.01
16.11
14.49
12.45
10.49
8.95
8.02
7.51
6.98
5.89
3.84
0.82
-2.82
-6.52
-9.77
-12.36
-14.42
-16.28
-18.33
-20.84
-23.90
-27.43
-31.18
-34.76
-37.53
-38.77
-37.84
-34.40
-28.69
-21.38
-13.40
-5.62
1.34
7.19
11.87
15.45
18.10
20.05
21.61
23.01
24.33
25.45
26.07
25.97
25.12
23.75
22.30
21.21
20.78
21.08
21.98
23.20
24.49
25.58
26.32
26.61
26.44
25.88
25.06
24.11
23.10
21.97
20.58
18.70
16.10
12.67
8.34
3.24
-2.46
-8.58
-15.02
-21.77
-28.90
-36.41
-44.10
-51.50
-57.83
-62.18
-63.68
-61.93
-57.02
-49.68
-40.99
-32.10
-23.87
-16.74
-10.70
-5.59
-1.25
2.40
5.26
7.29
8.61
9.51
10.33
11.37
12.65
14.02
15.24
16.11
16.58
16.80
16.99
17.29
17.71
18.00
17.86
17.03
15.44
13.24
10.79
8.43
6.40
4.75
3.28
1.74
-0.16
-2.61
-5.63
-9.22
-13.32
-17.85
-22.52
-26.92
-30.36
-32.13
-31.73
-29.02
-24.34
-18.33
-11.79
-5.36
0.53
5.72
10.21
14.05
17.28
19.80
21.51
22.28
22.10
21.15
19.81
18.49
17.51
16.88
16.36
15.69
14.72
13.56
12.52
11.82
11.42
10.99
10.04
8.21
5.49
2.28
-0.91
-3.64
-5.87
-7.93
-10.23
-13.11
-16.65
-20.73
-25.22
-30.04
-35.07
-40.05
-44.37
-47.18
-47.63
-45.29
-40.39
-33.71
-26.29
-19.00
-12.30
-6.30
-0.82
4.25
8.89
13.00
16.42
19.11
21.10
22.42
23.10
23.13
22.57
21.56
20.36
19.22
18.24
17.35
16.36
15.11
13.57
11.85
10.07
8.30
6.45
4.39
2.00
-0.71
-3.58
-6.45
-9.18
-11.81
-14.47
-17.44
-20.91
-25.01
-29.72
-34.80
-39.80
-44.12
-47.07
-48.01
-46.56
-42.64
-36.54
-28.90
-20.57
-12.45
-5.22
0.78
5.55
9.29
12.31
14.88
17.11
18.98
20.44
21.35
21.69
21.42
20.61
19.31
17.63
15.73
13.80
12.07
10.78
10.15
10.24
11.03
12.35
13.86
15.18
15.89
15.71
14.56
12.53
9.91
6.97
3.93
0.83
-2.38
-5.82
-9.58
-13.69
-18.14
-22.87
-27.73
-32.35
-36.13
-38.25
-37.93
-34.73
-28.80
-20.89
-12.14
-3.70
3.66
9.66
14.50
18.56
22.14
25.34
28.05
30.09
31.38
32.01
32.12
31.88
31.39
30.64
29.68
28.56
27.41
26.29
25.15
23.84
22.16
20.07
17.73
15.45
13.52
12.04
10.79
9.34
7.27
4.34
0.69
-3.30
-7.14
-10.45
-13.10
-15.28
-17.34
-19.70
-22.70
-26.46
-30.82
-35.38
-39.54
-42.64
-44.10
-43.47
-40.55
-35.43
-28.51
-20.49
-12.20
-4.45
2.25
7.74
12.27
16.27
20.14
23.97
27.54
30.46
32.35
33.08
32.78
31.74
30.27
28.60
26.86
25.14
23.57
22.32
21.62
21.63
22.32
23.46
24.61
25.24
24.93
23.43
20.79
17.24
13.12
8.79
4.57
0.73
-2.46
-4.84
-6.40
-7.35
-8.10
-9.11
-10.71
-12.94
-15.64
-18.42
-20.88
-22.59
-23.22
-22.47
-20.15
-16.22
-10.83
-4.29
2.96
10.47
17.91
25.01
31.57
37.31
41.84
44.72
45.56
44.23
40.83
35.74
29.33
21.94
13.79
5.14
-3.61
-11.81
-18.67
-23.53
-26.04
-26.38
-25.15
-23.24
-21.50
-20.52
-20.45
-20.98
-21.60
-21.75
-21.16
-19.88
-18.25
-16.70
-15.51
-14.62
-13.77
-12.57
-10.76
-8.30
-5.40
-2.48
-0.08
1.25
0.99
-1.17
-5.11
-10.11
-14.87
-17.74
-17.19
-12.33
-3.30
8.76
22.05
34.76
45.56
53.92
60.06
64.62
68.40
72.00
75.70
79.43
82.82
85.45
86.91
87.11
86.28
85.08
84.34
84.75
86.49
88.95
90.74
90.05
85.32
75.83
62.18
46.19
30.32
16.77
6.77
0.19
-4.18
-7.96
-12.57
-18.70
-26.24
-34.56
-42.91
-50.73
-57.82
-64.33
-70.60
-77.03
-84.03
-91.82
-100.31
-108.92
-116.54
-121.78
-123.55
-121.66
-117.18
-112.02
-108.06
-106.13
-105.62
-104.95
-102.73
-98.71
-93.89
-89.75
-87.03
-85.16
-82.69
-78.28
-71.70
-63.98
-56.68
-50.93
-46.74
-43.08
-38.53
-31.86
-22.18
-8.93
8.34
29.62
53.76
77.86
97.74
109.20
109.85
100.52
85.24
70.03
60.55
60.12
68.52
82.53
97.62
110.13
118.85
125.12
131.66
140.93
153.74
169.00
184.69
199.02
211.31
222.00
231.60
239.72
244.49
243.15
233.47
214.85
188.61
157.41
124.14
90.61
57.23
23.34
-12.01
-49.13
-86.96
-122.87
-153.20
-174.53
-185.18
-185.99
-180.18
-171.92
-164.65
-159.71
-156.54
-153.58
-149.81
-145.45
-141.57
-139.16
-138.20
-137.43
-135.30
-130.89
-124.45
-117.30
-110.90
-105.91
-102.26
-99.18
-95.75
-91.59
-87.29
-83.88
-82.73
-84.69
-89.51
-96.50
-104.27
-111.22
-116.01
-117.76
-115.66
-109.86
-101.05
-90.28
-79.90
-72.48
-70.07
-73.87
-83.86
-98.27
-115.36
-133.12
-149.39
-163.34
-174.37
-181.76
-184.59
-181.79
-171.64
-154.15
-130.68
-95.58
-47.16
12.81
79.33
145.54
199.91
240.85
270.08
289.79
301.69
306.14
302.36
289.53
267.19
235.55
196.58
152.51
106.81
64.30
29.29
4.99
-7.46
-9.45
-4.36
4.27
12.60
18.10
20.27
19.97
19.36
21.27
27.96
40.15
56.79
74.51
89.34
98.46
101.10
98.58
93.44
87.89
82.99
78.79
74.54
69.81
64.78
60.01
55.91
52.55
49.50
46.16
42.07
36.96
30.81
23.84
16.36
8.53
0.35
-8.37
-17.77
-27.71
-37.73
-47.23
-55.97
-64.25
-72.94
-82.87
-94.30
-106.56
-118.15
-127.39
-133.08
-134.84
-133.04
-128.49
-122.08
-114.70
-107.28
-100.67
-95.49
-91.83
-89.16
-86.58
-83.21
-78.56
-72.63
-65.79
-58.36
-50.50
-42.16
-33.30
-23.97
-14.33
-4.50
5.52
15.74
25.99
35.70
43.94
49.67
52.19
51.39
47.81
42.50
36.51
30.60
24.91
19.02
12.22
3.82
-6.55
-18.69
-31.88
-44.98
-56.73
-66.03
-72.15
-74.85
-74.41
-71.43
-66.58
-60.37
-53.00
-44.41
-34.55
-23.61
-12.12
-0.79
9.73
19.13
27.44
34.82
41.30
46.55
50.06
51.40
50.53
47.94
44.43
40.78
37.44
34.35
31.10
27.13
22.04
15.73
8.36
0.34
-7.93
-16.08
-23.93
-31.38
-38.40
-45.02
-51.28
-57.21
-62.70
-67.39
-70.55
-71.30
-68.73
-62.39
-52.40
-39.53
-24.90
-9.68
5.19
19.12
31.70
42.63
51.64
58.57
63.63
67.38
70.61
74.04
77.94
82.00
85.40
87.10
86.34
82.94
77.44
70.90
64.51
59.15
55.08
51.93
48.90
45.18
40.39
34.59
28.30
22.13
16.55
11.69
7.43
3.58
-0.00
-3.43
-6.82
-10.39
-14.34
-18.62
-22.88
-26.42
-28.43
-28.31
-25.94
-21.73
-16.42
-10.77
-5.27
-0.08
4.94
9.95
14.98
19.83
24.16
27.70
30.24
31.83
32.63
32.86
32.66
32.08
31.11
29.78
28.24
26.76
25.64
25.00
24.70
24.31
23.33
21.35
18.29
14.38
10.13
6.07
2.60
-0.16
-2.35
-4.31
-6.45
-9.14
-12.60
-16.81
-21.40
-25.81
-29.33
-31.33
-31.36
-29.25
-25.11
-19.33
-12.46
-5.17
1.90
8.29
13.79
18.42
22.30
25.47
27.89
29.48
30.16
30.00
29.21
28.00
26.61
25.14
23.70
22.42
21.37
20.59
19.97
19.27
18.26
16.76
14.72
12.17
9.25
6.09
2.88
-0.12
-2.73
-4.97
-7.11
-9.72
-13.37
-18.34
-24.39
-30.75
-36.26
-39.79
-40.60
-38.48
-33.78
-27.21
-19.62
-11.80
-4.35
2.35
8.09
12.80
16.51
19.30
21.29
22.59
23.26
23.36
22.93
22.06
20.90
19.58
18.20
16.80
15.41
14.08
12.92
12.04
11.46
11.04
10.49
9.49
7.86
5.66
3.11
0.51
-1.98
-4.31
-6.57
-8.95
-11.61
-14.71
-18.41
-22.80
-27.84
-33.23
-38.30
-42.17
-43.93
-43.02
-39.36
-33.55
-26.56
-19.46
-13.05
-7.68
-3.22
0.70
4.50
8.45
12.58
16.70
20.56
23.77
26.07
27.23
27.30
26.47
25.11
23.54
21.98
20.54
19.21
18.05
17.14
16.53
16.09
15.54
14.48
12.60
9.88
6.51
2.91
-0.58
-3.77
-6.64
-9.33
-11.97
-14.70
-17.63
-20.85
-24.46
-28.46
-32.67
-36.59
-39.49
-40.55
-39.18
-35.17
-28.97
-21.36
-13.27
-5.41
1.81
8.22
13.73
18.18
21.44
23.52
24.76
25.63
26.61
27.84
29.02
29.59
29.03
27.20
24.44
21.35
18.52
16.31
14.74
13.65
12.83
12.11
11.43
10.67
9.61
7.97
5.48
2.13
-1.88
-6.11
-10.08
-13.47
-16.22
-18.49
-20.51
-22.56
-24.87
-27.64
-31.04
-35.15
-39.75
-44.25
-47.81
-49.52
-48.79
-45.47
-39.97
-32.95
-25.28
-17.69
-10.76
-4.86
-0.11
3.57
6.46
8.81
10.83
12.49
13.66
14.25
14.31
14.05
13.69
13.41
13.19
13.00
12.86
12.83
12.96
13.20
13.39
13.37
13.02
12.35
11.40
10.20
8.66
6.70
4.28
1.57
-1.17
-3.74
-6.05
-8.24
-10.51
-12.96
-15.60
-18.44
-21.50
-24.87
-28.55
-32.24
-35.31
-36.93
-36.42
-33.51
-28.52
-22.19
-15.39
-8.85
-2.97
2.13
6.54
10.36
13.64
16.30
18.24
19.31
19.44
18.66
17.17
15.28
13.30
11.53
10.18
9.39
9.16
9.45
10.10
10.85
11.48
11.77
11.64
11.14
10.37
9.37
8.16
6.67
4.81
2.56
-0.09
-2.99
-5.94
-8.66
-10.98
-12.85
-14.49
-16.27
-18.61
-21.76
-25.61
-29.65
-33.13
-35.29
-35.53
-33.66
-29.76
-24.22
-17.64
-10.72
-4.17
1.41
5.80
9.11
11.80
14.36
17.04
19.72
21.97
23.39
23.75
23.15
21.89
20.31
18.69
17.25
16.18
15.69
15.84
16.53
17.42
18.09
18.19
17.62
16.51
15.09
13.55
11.98
10.40
8.84
7.31
5.78
4.19
2.43
0.40
-1.90
-4.41
-7.11
-10.08
-13.45
-17.31
-21.50
-25.59
-29.00
-31.13
-31.59
-30.27
-27.29
-22.95
-17.59
-11.63
-5.42
0.66
6.34
11.49
16.04
19.89
22.84
24.67
25.20
24.51
22.96
21.08
19.32
17.96
16.98
16.18
15.37
14.46
13.53
12.71
12.03
11.41
10.72
9.91
9.05
8.32
7.86
7.66
7.50
7.12
6.28
4.90
3.05
0.88
-1.41
-3.73
-6.01
-8.26
-10.63
-13.30
-16.46
-20.14
-24.07
-27.65
-30.17
-31.03
-29.98
-27.17
-23.05
-18.13
-12.81
-7.34
-1.90
3.33
8.15
12.37
15.87
18.64
20.74
22.20
23.06
23.29
23.03
22.51
22.02
21.80
21.90
22.12
22.19
21.88
21.16
20.22
19.33
18.66
18.17
17.68
16.97
15.93
14.54
12.83
10.78
8.29
5.32
1.88
-1.84
-5.59
-9.17
-12.55
-15.91
-19.50
-23.51
-27.96
-32.52
-36.62
-39.47
-40.37
-38.85
-34.92
-29.06
-22.08
-14.89
-8.25
-2.58
2.03
5.77
8.85
11.50
13.85
15.94
17.79
19.35
20.51
21.11
20.99
20.11
18.61
16.85
15.25
14.15
13.64
13.47
13.15
12.23
10.41
7.66
4.14
0.16
-3.96
-7.91
-11.36
-14.12
-16.15
-17.70
-19.25
-21.45
-24.84
-29.69
-35.89
-42.92
-49.97
-56.10
-60.41
-62.25
-61.37
-57.97
-52.67
-46.29
-39.68
-33.46
-27.95
-23.26
-19.29
-15.96
-13.20
-10.96
-9.15
-7.62
-6.22
-4.74
-3.09
-1.22
0.85
3.09
5.42
7.81
10.23
12.70
15.26
17.86
20.45
22.85
24.82
26.21
27.00
27.36
27.55
27.80
28.17
28.60
28.84
28.63
27.67
25.74
22.67
18.48
13.48
8.24
3.48
-0.10
-2.05
-2.30
-1.02
1.48
4.87
8.85
13.08
17.18
20.81
23.72
25.91
27.48
28.61
29.36
29.69
29.48
28.69
27.42
25.92
24.43
23.08
21.93
21.00
20.36
20.11
20.25
20.68
21.09
21.11
20.49
19.19
17.36
15.24
13.00
10.66
8.17
5.51
2.77
0.11
-2.33
-4.57
-6.81
-9.35
-12.45
-16.12
-20.02
-23.50
-25.74
-26.09
-24.25
-20.38
-14.99
-8.74
-2.17
4.48
11.22
18.22
25.54
32.92
39.80
45.44
49.22
50.84
50.57
49.21
48.00
48.45
52.00
59.63
71.46
86.34
101.90
115.07
123.09
124.49
119.68
110.62
99.78
88.94
78.55
67.96
56.39
43.83
31.31
20.46
12.44
7.17
3.29
-1.23
-8.14
-18.19
-31.08
-45.71
-60.68
-74.53
-85.81
-93.09
-95.27
-91.77
-82.83
-69.34
-52.41
-32.76
-10.48
14.78
43.18
73.95
105.19
134.14
157.98
174.72
183.75
185.97
183.28
177.83
171.19
163.99
155.97
146.48
134.99
121.48
106.40
90.38
73.90
57.16
40.29
23.61
7.85
-6.07
-17.48
-26.31
-33.40
-40.23
-48.49
-59.43
-73.37
-89.45
-105.75
-119.83
-129.49
-133.51
-132.03
-126.51
-119.17
-112.24
-107.23
-104.67
-104.12
-104.51
-104.56
-103.24
-99.89
-94.36
-86.97
-78.36
-69.35
-60.77
-53.30
-47.49
-43.56
-41.39
-40.39
-39.62
-37.95
-34.45
-28.80
-21.47
-13.67
-6.98
-2.77
-1.67
-3.43
-7.04
-11.25
-15.07
-18.02
-20.15
-21.88
-23.57
-25.43
-27.42
-29.43
-31.37
-33.24
-35.04
-36.70
-38.04
-38.75
-38.53
-37.19
-34.65
-30.99
-26.34
-20.83
-14.58
-7.79
-0.73
6.08
11.96
16.17
18.13
17.78
15.72
13.20
11.83
13.07
17.61
25.09
34.23
43.19
50.22
54.21
54.80
52.29
47.24
40.20
31.55
21.61
10.75
-0.44
-11.23
-20.94
-29.10
-35.71
-41.17
-46.05
-50.80
-55.50
-59.83
-63.17
-64.91
-64.77
-62.87
-59.67
-55.67
-51.23
-46.50
-41.51
-36.29
-31.09
-26.25
-22.07
-18.67
-15.98
-13.84
-12.22
-11.25
-11.30
-12.69
-15.53
-19.60
-24.38
-29.33
-34.14
-38.77
-43.34
-47.86
-52.08
-55.41
-57.19
-57.06
-55.09
-51.81
-47.88
-43.86
-39.93
-36.03
-31.98
-27.64
-23.05
-18.28
-13.45
-8.71
-4.32
-0.63
2.00
3.38
3.68
3.30
2.80
2.59
2.84
3.39
4.00
4.44
4.59
4.42
3.89
3.03
1.96
1.00
0.51
0.80
1.91
3.55
5.23
6.41
6.71
5.98
4.32
1.88
-1.06
-4.18
-7.10
-9.42
-10.85
-11.44
-11.59
-11.93
-13.05
-15.14
-17.94
-20.74
-22.75
-23.32
-22.21
-19.61
-16.04
-12.17
-8.60
-5.73
-3.69
-2.35
-1.39
-0.45
0.76
2.37
4.26
6.23
8.03
9.54
10.75
11.67
12.38
12.91
13.30
13.61
14.00
14.66
15.81
17.50
19.57
21.78
23.84
25.66
27.34
29.03
30.82
32.62
34.05
34.66
34.07
32.19
29.32
26.00
22.90
20.58
19.26
18.81
18.77
18.63
17.89
16.30
13.77
10.28
5.91
0.79
-4.70
-9.90
-13.98
-16.16
-16.05
-13.76
-9.92
-5.42
-1.15
2.24
4.45
5.56
5.92
6.05
6.46
7.51
9.25
11.45
13.70
15.57
16.79
17.32
17.39
17.37
17.79
19.15
21.85
25.94
31.02
36.39
41.23
44.92
47.28
48.57
49.20
49.48
49.44
48.83
47.30
44.70
41.10
36.81
32.18
27.48
22.75
17.90
12.77
7.33
1.71
-3.88
-9.16
-13.91
-18.05
-21.59
-24.68
-27.48
-30.13
-32.76
-35.36
-37.78
-39.75
-40.89
-40.83
-39.44
-36.98
-34.04
-31.55
-30.48
-31.73
-35.98
-43.59
-54.44
-67.82
-82.37
-96.14
-106.93
-112.84
-112.82
-107.01
-96.72
-83.83
-70.23
-57.16
-45.03
-33.66
-22.62
-11.71
-1.04
9.09
18.35
26.48
33.35
38.79
42.57
44.49
44.62
43.39
41.49
39.57
37.78
35.63
32.14
26.39
18.05
7.71
-3.36
-13.73
-22.39
-29.18
-34.70
-39.96
-45.97
-53.38
-62.33
-72.56
-83.43
-94.06
-103.51
-110.96
-116.07
-119.17
-121.19
-123.33
-126.37
-130.30
-134.02
-135.81
-133.97
-127.56
-116.78
-102.77
-87.11
-71.22
-56.01
-41.97
-29.46
-18.84
-10.38
-4.03
0.76
4.82
8.88
13.08
16.94
19.64
20.57
19.76
17.86
15.78
14.13
12.90
11.52
9.26
5.66
0.79
-4.77
-10.26
-15.04
-18.88
-21.99
-24.97
-28.56
-33.45
-39.90
-47.68
-56.01
-63.55
-68.83
-70.56
-68.02
-61.23
-50.97
-38.40
-24.85
-11.42
1.13
12.46
22.48
31.25
38.80
45.17
50.41
54.60
57.89
60.39
62.08
62.82
62.42
60.81
58.26
55.35
52.85
51.38
51.17
52.02
53.39
54.73
55.61
55.83
55.34
54.14
52.14
49.26
45.48
40.85
35.60
30.04
24.45
19.05
13.92
8.83
3.38
-2.97
-10.58
-19.28
-28.26
-36.07
-41.01
-41.71
-37.54
-28.93
-17.15
-3.89
9.29
21.37
31.95
41.19
49.42
56.92
63.74
69.69
74.54
78.23
80.99
83.28
85.75
89.02
93.67
100.17
108.74
119.11
130.49
141.50
150.65
156.86
159.87
160.26
158.92
156.31
151.86
144.20
131.85
114.08
91.47
65.82
39.46
14.51
-7.61
-26.21
-41.25
-53.17
-62.96
-71.99
-81.62
-92.33
-103.24
-111.98
-115.53
-111.55
-99.38
-80.27
-56.67
-31.30
-6.57
15.36
32.30
42.15
43.63
37.17
25.13
11.00
-2.10
-12.55
-20.47
-26.90
-32.63
-37.47
-40.56
-41.09
-38.91
-34.74
-29.63
-24.56
-20.14
-16.78
-14.84
-14.59
-15.98
-18.55
-21.63
-24.86
-28.51
-33.45
-40.65
-50.75
-63.74
-78.89
-95.00
-110.57
-123.92
-133.43
-137.69
-135.91
-128.19
-115.57
-99.70
-82.43
-65.26
-49.11
-34.32
-20.81
-8.42
3.03
13.62
23.31
31.98
39.39
45.26
49.45
52.03
53.38
54.02
54.45
54.93
55.40
55.58
55.14
53.89
51.84
49.18
46.17
42.96
39.53
35.71
31.30
26.23
20.63
14.77
9.00
3.59
-1.37
-6.04
-10.79
-16.09
-22.39
-29.86
-38.17
-46.46
-53.36
-57.32
-57.04
-51.90
-42.22
-29.11
-14.19
0.88
14.84
27.00
37.28
45.99
53.64
60.66
67.27
73.46
78.96
83.44
86.58
88.22
88.41
87.42
85.64
83.52
81.48
79.77
78.46
77.33
75.97
73.85
70.59
66.12
60.67
54.76
48.92
43.44
38.23
32.81
26.62
19.26
10.83
1.96
-6.44
-13.52
-18.90
-22.76
-25.83
-29.08
-33.37
-39.19
-46.34
-54.01
-60.74
-64.81
-64.64
-59.25
-48.62
-33.72
-16.14
2.37
20.33
36.77
51.10
62.98
72.16
78.47
81.98
83.10
82.54
81.11
79.52
78.18
77.22
76.47
75.66
74.47
72.68
70.25
67.31
64.14
60.96
57.76
54.36
50.50
46.17
41.77
37.97
35.33
34.00
33.51
33.05
31.85
29.57
26.26
22.07
16.91
10.39
2.10
-7.99
-19.31
-30.91
-41.97
-52.26
-62.16
-72.15
-82.22
-91.48
-98.31
-101.10
-99.03
-92.38
-82.30
-70.15
-56.89
-42.84
-28.03
-12.68
2.45
16.11
27.11
34.88
39.72
42.68
45.03
47.65
50.75
53.91
56.41
57.64
57.39
55.93
53.90
52.10
51.19
51.48
52.87
54.79
56.50
57.26
56.63
54.53
51.21
47.06
42.37
37.17
31.22
24.21
15.92
6.51
-3.47
-13.25
-22.06
-29.41
-35.23
-39.93
-44.14
-48.64
-53.94
-60.21
-67.11
-73.76
-78.83
-80.82
-78.37
-70.79
-58.50
-42.99
-26.52
-11.40
0.79
9.56
15.49
19.75
23.49
27.36
31.47
35.44
38.77
41.00
41.81
41.14
39.15
36.14
32.46
28.36
23.98
19.50
15.39
12.47
11.77
13.90
18.43
23.69
27.23
26.80
21.44
11.92
0.47
-10.30
-18.41
-23.26
-25.54
-26.79
-28.56
-31.85
-36.76
-42.65
-48.43
-53.07
-56.01
-57.32
-57.75
-58.46
-60.52
-64.55
-70.42
-77.25
-83.64
-88.18
-89.86
-88.43
-84.33
-78.53
-72.06
-65.70
-59.77
-54.33
-49.30
-44.65
-40.32
-36.20
-31.95
-27.20
-21.74
-15.78
-9.90
-4.84
-1.17
1.00
2.00
2.44
2.96
4.04
5.89
8.50
11.63
14.87
17.70
19.60
20.31
19.91
18.82
17.58
16.58
15.85
15.03
13.55
10.87
6.72
1.12
-5.64
-13.10
-20.72
-27.94
-34.37
-39.89
-44.73
-49.38
-54.32
-59.66
-64.93
-69.08
-70.79
-68.95
-63.07
-53.47
-41.10
-27.31
-13.37
-0.34
11.09
20.57
27.99
33.52
37.50
40.40
42.67
44.65
46.37
47.58
47.90
47.02
44.97
42.20
39.46
37.53
36.92
37.61
39.08
40.58
41.40
41.21
40.04
38.15
35.73
32.74
28.95
24.12
18.19
11.48
4.54
-2.02
-7.80
-12.74
-17.10
-21.29
-25.69
-30.52
-35.83
-41.46
-47.06
-52.11
-55.92
-57.68
-56.75
-52.80
-46.16
-37.68
-28.56
-19.84
-11.92
-4.49
3.32
12.38
23.00
34.54
45.57
54.32
59.31
59.91
56.55
50.47
43.11
35.63
28.57
21.94
15.61
9.60
4.28
0.17
-2.39
-3.49
-3.55
-3.18
-2.87
-2.85
-3.12
-3.64
-4.39
-5.43
-6.78
-8.45
-10.36
-12.53
-15.02
-17.93
-21.32
-25.12
-29.09
-32.78
-35.63
-37.14
-36.96
-34.94
-31.14
-25.67
-18.58
-9.90
0.27
11.53
23.09
33.91
42.99
49.68
53.94
56.25
57.39
58.08
58.80
59.77
60.91
62.06
62.98
63.48
63.38
62.54
60.87
58.25
54.56
49.75
43.80
36.87
29.26
21.23
12.98
4.62
-3.83
-12.29
-20.59
-28.49
-35.85
-42.67
-49.17
-55.68
-62.40
-69.25
-75.70
-80.87
-83.78
-83.76
-80.71
-75.27
-68.63
-62.03
-56.38
-51.83
-47.79
-43.34
-37.72
-30.76
-23.00
-15.39
-8.83
-3.82
-0.34
2.01
3.67
4.90
5.76
6.21
6.34
6.46
6.96
8.11
9.89
11.86
13.44
14.06
13.43
11.61
8.94
5.91
2.96
0.38
-1.78
-3.66
-5.57
-7.92
-11.07
-15.17
-20.03
-25.10
-29.52
-32.36
-32.75
-30.21
-24.72
-16.74
-7.15
2.94
12.49
20.72
27.22
31.95
35.05
36.75
37.32
37.03
36.22
35.30
34.66
34.50
34.81
35.30
35.64
35.53
34.95
34.04
33.05
32.14
31.26
30.23
28.71
26.52
23.66
20.27
16.68
13.18
9.94
6.96
4.10
1.11
-2.30
-6.33
-11.04
-16.27
-21.61
-26.50
-30.24
-32.18
-31.84
-29.00
-23.80
-16.67
-8.38
0.22
8.30
15.27
20.80
24.91
27.75
29.55
30.45
30.58
29.99
28.80
27.12
25.09
22.84
20.55
18.42
16.66
15.46
14.84
14.54
14.15
13.17
11.23
8.32
4.72
0.91
-2.69
-5.85
-8.63
-11.24
-13.92
-16.88
-20.23
-24.07
-28.42
-33.14
-37.77
-41.56
-43.54
-42.89
-39.27
-32.98
-24.89
-16.16
-7.84
-0.55
5.53
10.50
14.55
17.76
20.12
21.60
22.31
22.39
22.09
21.59
20.94
20.10
18.95
17.48
15.78
14.06
12.56
11.46
10.76
10.27
9.74
8.90
7.68
6.17
4.62
3.17
1.77
0.17
-2.07
-5.33
-9.74
-15.16
-21.11
-26.88
-31.61
-34.45
-34.73
-32.15
-26.82
-19.33
-10.58
-1.55
6.96
14.60
21.35
27.48
33.30
38.98
44.56
50.02
55.34
60.54
65.57
70.26
74.19
76.85
77.88
77.25
75.28
72.53
69.50
66.45
63.36
60.03
56.28
52.00
47.15
41.74
35.71
29.02
21.65
13.65
5.14
-3.85
-13.38
-23.65
-34.84
-46.87
-59.25
-71.02
-80.91
-87.68
-90.49
-89.18
-84.32
-76.95
-68.26
-59.24
-50.56
-42.54
-35.30
-28.89
-23.35
-18.64
-14.66
-11.23
-8.13
-5.23
-2.55
-0.19
1.80
3.38
4.68
5.77
6.70
7.39
7.69
7.49
6.79
5.74
4.50
3.19
1.87
0.55
-0.76
-1.99
-3.16
-4.36
-5.81
-7.76
-10.32
-13.45
-16.97
-20.76
-24.88
-29.50
-34.65
-40.07
-45.02
-48.47
-49.48
-47.53
-42.77
-35.88
-27.84
-19.60
-11.91
-5.31
-0.12
3.43
5.29
5.67
5.01
3.87
2.75
1.92
1.31
0.68
-0.29
-1.70
-3.44
-5.21
-6.67
-7.59
-7.96
-7.85
-7.52
-7.18
-7.12
-7.56
-8.70
-10.57
-12.98
-15.56
-17.84
-19.50
-20.46
-20.92
-21.36
-22.31
-24.14
-27.01
-30.69
-34.60
-37.91
-39.72
-39.33
-36.40
-31.15
-24.16
-16.26
-8.21
-0.52
6.54
12.90
18.55
23.43
27.46
30.57
32.71
33.92
34.39
34.35
34.04
33.63
33.17
32.51
31.48
29.94
27.92
25.58
23.20
20.99
19.02
17.14
15.10
12.63
9.64
6.25
2.80
-0.27
-2.67
-4.38
-5.79
-7.57
-10.39
-14.68
-20.32
-26.64
-32.60
-37.04
-39.04
-38.14
-34.40
-28.30
-20.70
-12.52
-4.65
2.32
8.11
12.82
16.73
20.12
23.12
25.67
27.59
28.71
28.97
28.48
27.38
25.86
24.07
22.15
20.26
18.58
17.26
16.36
15.78
15.40
15.00
14.39
13.42
11.93
9.85
7.24
4.21
0.99
-2.22
-5.32
-8.30
-11.30
-14.48
-17.99
-21.92
-26.18
-30.55
-34.63
-37.84
-39.52
-39.10
-36.21
-30.96
-23.93
-16.10
-8.55
-2.13
2.84
6.62
9.81
12.99
16.46
20.07
23.37
25.89
27.37
27.79
27.35
26.32
24.94
23.44
22.01
20.81
19.93
19.36
18.94
18.49
17.78
16.66
14.99
12.63
9.53
5.74
1.43
-3.11
-7.50
-11.41
-14.68
-17.29
-19.51
-21.71
-24.29
-27.56
-31.54
-35.99
-40.35
-43.82
-45.54
-44.86
-41.51
-35.72
-28.24
-20.05
-12.16
-5.28
0.34
4.82
8.51
11.73
14.63
17.16
19.20
20.59
21.23
21.06
20.11
18.43
16.21
13.74
11.40
9.57
8.50
8.28
8.78
9.71
10.67
11.31
11.28
10.39
8.62
6.16
3.31
0.40
-2.34
-4.85
-7.15
-9.40
-11.72
-14.24
-17.06
-20.28
-23.94
-27.94
-31.98
-35.51
-37.91
-38.55
-37.05
-33.33
-27.69
-20.72
-13.15
-5.74
0.94
6.55
11.05
14.64
17.52
19.88
21.81
23.34
24.49
25.33
25.89
26.17
26.04
25.32
23.92
21.94
19.71
17.67
16.21
15.50
15.43
15.59
15.47
14.69
13.05
10.63
7.67
4.46
1.29
-1.65
-4.26
-6.60
-8.87
-11.32
-14.31
-18.06
-22.62
-27.70
-32.73
-36.89
-39.42
-39.73
-37.67
-33.51
-27.75
-21.06
-14.05
-7.19
-0.74
5.09
10.19
14.49
17.94
20.50
22.17
23.00
23.06
22.47
21.39
20.05
18.66
17.38
16.28
15.31
14.35
13.33
12.23
11.15
10.16
9.31
8.45
7.37
5.85
3.84
1.53
-0.74
-2.58
-3.83
-4.65
-5.45
-6.71
-8.74
-11.61
-15.19
-19.30
-23.80
-28.56
-33.21
-37.10
-39.36
-39.16
-36.16
-30.62
-23.46
-15.84
-8.79
-2.92
1.68
5.27
8.18
10.70
12.99
15.07
16.91
18.40
19.34
19.60
19.06
17.81
16.15
14.46
13.09
12.22
11.81
11.69
11.72
11.83
12.09
12.50
12.91
12.98
12.27
10.51
7.64
3.96
-0.07
-3.97
-7.45
-10.42
-12.98
-15.32
-17.63
-20.13
-22.96
-26.23
-29.96
-33.93
-37.76
-40.77
-42.31
-41.82
-39.08
-34.26
-27.95
-20.89
-13.86
-7.45
-1.94
2.57
6.21
9.16
11.62
13.77
15.75
17.61
19.28
20.62
21.46
21.64
21.09
19.89
18.29
16.65
15.32
14.59
14.56
15.12
15.97
16.62
16.59
15.48
13.15
9.70
5.51
1.07
-3.11
-6.67
-9.53
-11.82
-13.82
-15.82
-17.93
-20.12
-22.35
-24.70
-27.34
-30.44
-33.93
-37.34
-39.84
-40.51
-38.70
-34.36
-28.05
-20.73
-13.38
-6.65
-0.80
4.28
8.80
12.92
16.68
19.99
22.75
24.83
26.17
26.67
26.33
25.28
23.83
22.42
21.50
21.34
21.85
22.70
23.33
23.30
22.39
20.57
18.02
14.91
11.44
7.79
4.20
0.85
-2.14
-4.80
-7.35
-10.04
-13.07
-16.45
-20.11
-23.83
-27.50
-31.06
-34.45
-37.50
-39.81
-40.84
-40.09
-37.29
-32.56
-26.51
-19.95
-13.80
-8.72
-5.07
-2.90
-2.04
-2.19
-3.02
-4.23
-5.53
-6.80
-8.13
-9.76
-11.90
-14.55
-17.34
-19.56
-20.42
-19.44
-16.58
-12.39
-7.68
-3.25
0.41
3.12
4.88
5.69
5.57
4.54
2.85
0.88
-0.97
-2.44
-3.58
-4.60
-5.75
-7.18
-8.91
-10.89
-13.12
-15.63
-18.30
-20.75
-22.35
-22.38
-20.38
-16.37
-10.82
-4.48
1.94
7.95
13.34
18.11
22.26
25.77
28.60
30.75
32.27
33.26
33.81
33.96
33.70
33.04
32.06
30.97
29.96
29.18
28.65
28.29
27.92
27.38
26.56
25.48
24.18
22.74
21.16
19.31
17.02
14.09
10.44
6.17
1.56
-3.02
-7.29
-11.13
-14.65
-18.10
-21.73
-25.62
-29.64
-33.48
-36.80
-39.24
-40.50
-40.28
-38.35
-34.52
-28.91
-21.93
-14.40
-7.14
-0.82
4.39
8.74
12.69
16.52
20.20
23.39
25.65
26.71
26.59
25.62
24.27
23.03
22.19
21.86
21.96
22.26
22.49
22.40
21.87
20.88
19.55
18.01
16.43
14.86
13.35
11.80
10.17
8.35
6.24
3.75
0.85
-2.43
-6.00
-9.75
-13.52
-17.21
-20.79
-24.34
-27.97
-31.72
-35.43
-38.69
-40.88
-41.35
-39.71
-35.95
-30.42
-23.79
-16.73
-9.86
-3.61
1.74
6.06
9.31
11.54
12.88
13.49
13.51
13.08
12.32
11.42
10.60
10.04
9.78
9.71
9.59
9.22
8.54
7.68
6.83
6.11
5.44
4.53
3.11
0.99
-1.74
-4.78
-7.77
-10.37
-12.45
-14.02
-15.30
-16.57
-18.20
-20.44
-23.38
-26.83
-30.29
-33.07
-34.41
-33.72
-30.76
-25.66
-18.91
-11.23
-3.45
3.71
9.70
14.31
17.65
20.07
21.97
23.69
25.34
26.84
27.94
28.42
28.12
27.17
25.80
24.33
22.94
21.67
20.41
19.08
17.69
16.33
15.13
14.10
13.08
11.77
9.91
7.38
4.28
0.84
-2.73
-6.30
-9.85
-13.43
-17.12
-20.97
-25.06
-29.44
-34.04
-38.64
-42.64
-45.29
-45.80
-43.62
-38.68
-31.50
-23.05
-14.41
-6.56
-0.02
5.18
9.41
13.17
16.80
20.35
23.61
26.29
28.16
29.23
29.69
29.79
29.74
29.52
29.06
28.19
26.83
25.02
22.97
20.91
19.07
17.52
16.14
14.74
13.11
11.15
8.90
6.40
3.66
0.64
-2.70
-6.25
-9.83
-13.28
-16.62
-20.09
-24.04
-28.67
-33.79
-38.81
-42.89
-45.20
-45.24
-42.82
-38.17
-31.77
-24.32
-16.57
-9.20
-2.61
3.10
8.10
12.68
16.95
20.85
24.09
26.35
27.49
27.60
26.97
25.91
24.72
23.59
22.66
22.05
21.81
21.93
22.23
22.44
22.26
21.44
19.97
18.03
15.93
13.99
12.37
11.02
9.69
8.00
5.65
2.50
-1.36
-5.63
-9.89
-13.76
-17.09
-19.97
-22.71
-25.70
-29.11
-32.73
-35.92
-37.84
-37.72
-35.22
-30.57
-24.46
-17.87
-11.61
-6.17
-1.63
2.26
5.79
9.14
12.26
14.98
17.02
18.26
18.74
18.74
18.64
18.77
19.27
20.04
20.75
21.04
20.62
19.44
17.68
15.69
13.85
12.55
12.07
12.55
13.88
15.70
17.33
17.94
16.83
13.61
8.44
1.96
-4.96
-11.53
-17.34
-22.41
-27.06
-31.60
-36.15
-40.52
-44.25
-46.76
-47.60
-46.57
-43.81
-39.71
-34.85
-29.78
-24.88
-20.33
-16.08
-11.99
-7.99
-4.17
-0.72
2.13
4.30
5.94
7.28
8.60
9.96
11.39
12.79
14.23
15.82
17.74
19.98
22.25
24.11
25.08
24.91
23.61
21.42
18.64
15.52
12.18
8.73
5.25
1.76
-1.72
-5.29
-9.09
-13.24
-17.82
-22.77
-27.89
-32.83
-37.00
-39.73
-40.34
-38.47
-34.12
-27.76
-20.11
-11.93
-3.81
3.86
10.85
17.00
22.19
26.38
29.61
32.03
33.82
35.07
35.77
35.85
35.31
34.23
32.82
31.27
29.70
28.08
26.34
24.39
22.19
19.76
17.12
14.31
11.35
8.29
5.15
1.99
-1.16
-4.23
-7.15
-9.85
-12.28
-14.49
-16.63
-19.00
-21.88
-25.46
-29.70
-34.20
-38.28
-41.06
-41.75
-39.86
-35.37
-28.77
-20.92
-12.80
-5.17
1.45
6.90
11.23
14.62
17.33
19.59
21.57
23.28
24.60
25.33
25.27
24.42
22.96
21.23
19.59
18.30
17.47
17.01
16.82
16.73
16.55
16.09
15.23
13.92
12.24
10.35
8.40
6.43
4.36
2.05
-0.65
-3.79
-7.36
-11.34
-15.70
-20.43
-25.52
-30.87
-36.29
-41.50
-46.12
-49.70
-51.80
-52.04
-50.24
-46.53
-41.34
-35.25
-28.86
-22.65
-16.88
-11.65
-6.96
-2.74
1.06
4.53
7.70
10.50
12.76
14.24
14.76
14.37
13.36
12.18
11.24
10.76
10.68
10.81
10.95
11.04
11.17
11.51
12.07
12.68
12.99
12.60
11.25
8.98
6.09
3.04
0.30
-1.83
-3.33
-4.39
-5.37
-6.70
-8.78
-11.77
-15.63
-19.99
-24.23
-27.62
-29.43
-29.17
-26.71
-22.26
-16.37
-9.78
-3.20
2.81
7.99
12.35
16.11
19.52
22.72
25.70
28.28
30.19
31.24
31.35
30.70
29.59
28.36
27.25
26.38
25.67
24.95
24.10
23.02
21.76
20.35
18.84
17.23
15.50
13.55
11.34
8.84
6.12
3.26
0.31
-2.69
-5.73
-8.81
-11.93
-15.04
-18.19
-21.40
-24.68
-27.89
-30.67
-32.45
-32.57
-30.53
-26.23
-20.02
-12.61
-4.83
2.63
9.32
15.06
19.85
23.73
26.69
28.69
29.74
29.91
29.46
28.70
27.88
27.19
26.59
25.98
25.30
24.59
24.01
23.75
23.84
24.10
24.25
23.96
23.11
21.72
19.93
17.88
15.61
13.14
10.42
7.46
4.20
0.54
-3.71
-8.76
-14.70
-21.39
-28.37
-34.94
-40.32
-43.91
-45.38
-44.73
-42.16
-37.99
-32.50
-26.04
-19.05
-12.06
-5.65
-0.25
3.99
7.23
9.78
11.87
13.51
14.57
14.90
14.50
13.65
12.74
12.13
12.00
12.27
12.65
12.82
12.50
11.58
10.16
8.52
6.95
5.62
4.51
3.39
1.94
-0.01
-2.46
-5.12
-7.69
-10.00
-12.12
-14.28
-16.78
-19.81
-23.37
-27.33
-31.46
-35.46
-38.92
-41.33
-42.14
-40.97
-37.71
-32.68
-26.50
-19.91
-13.52
-7.68
-2.47
2.22
6.54
10.58
14.35
17.75
20.71
23.14
25.00
26.25
26.88
26.92
26.43
25.59
24.63
23.82
23.36
23.33
23.61
23.86
23.70
22.78
21.03
18.58
15.78
12.96
10.32
7.86
5.42
2.87
0.13
-2.69
-5.41
-7.91
-10.22
-12.58
-15.32
-18.74
-22.97
-27.83
-32.92
-37.66
-41.46
-43.87
-44.66
-43.76
-41.33
-37.55
-32.69
-27.01
-20.90
-14.71
-8.80
-3.44
1.25
5.27
8.66
11.47
13.71
15.34
16.33
16.73
16.69
16.41
16.20
16.26
16.70
17.47
18.37
19.12
19.51
19.50
19.19
18.83
18.54
18.27
17.78
16.74
14.97
12.49
9.58
6.59
3.78
1.22
-1.25
-3.85
-6.73
-9.94
-13.43
-17.14
-21.03
-25.11
-29.29
-33.33
-36.70
-38.79
-38.98
-36.96
-32.83
-27.11
-20.53
-13.82
-7.49
-1.79
3.21
7.51
11.09
13.92
15.92
17.13
17.65
17.64
17.29
16.76
16.24
15.87
15.77
15.92
16.25
16.60
16.80
16.72
16.28
15.51
14.49
13.29
11.92
10.34
8.45
6.16
3.52
0.60
-2.47
-5.61
-8.85
-12.30
-16.04
-20.07
-24.23
-28.29
-32.03
-35.27
-37.84
-39.49
-39.86
-38.57
-35.44
-30.59
-24.45
-17.70
-10.98
-4.73
0.90
5.97
10.53
14.56
17.84
20.20
21.54
22.02
21.95
21.67
21.45
21.33
21.20
20.94
20.52
20.01
19.51
19.12
18.82
18.56
18.28
18.02
17.76
17.43
16.83
15.65
13.67
10.87
7.50
3.95
0.61
-2.33
-4.93
-7.48
-10.28
-13.53
-17.30
-21.44
-25.71
-29.74
-33.06
-35.14
-35.51
-33.90
-30.37
-25.34
-19.45
-13.35
-7.56
-2.32
2.31
6.35
9.84
12.75
15.09
16.94
18.46
19.77
20.91
21.77
22.12
21.76
20.66
18.97
17.06
15.33
14.09
13.49
13.46
13.83
14.40
14.99
15.51
15.78
15.63
14.77
12.94
10.05
6.22
1.85
-2.54
-6.45
-9.57
-11.90
-13.78
-15.69
-18.11
-21.39
-25.59
-30.48
-35.49
-39.81
-42.62
-43.29
-41.63
-37.89
-32.69
-26.82
-20.90
-15.28
-9.99
-4.99
-0.28
4.04
7.73
10.61
12.61
13.82
14.39
14.52
14.34
13.98
13.62
13.42
13.54
14.04
14.77
15.43
15.64
15.12
13.74
11.64
9.14
6.53
4.00
1.54
-1.00
-3.78
-6.79
-9.90
-12.84
-15.41
-17.60
-19.57
-21.59
-23.96
-26.82
-30.13
-33.65
-37.08
-40.02
-42.05
-42.87
-42.29
-40.22
-36.77
-32.12
-26.50
-20.20
-13.58
-7.02
-0.93
4.34
8.58
11.83
14.27
16.19
17.84
19.43
21.04
22.74
24.53
26.34
28.06
29.45
30.26
30.34
29.69
28.45
26.84
25.11
23.38
21.64
19.77
17.63
15.06
12.02
8.64
5.16
1.97
-0.63
-2.50
-3.72
-4.59
-5.55
-7.02
-9.29
-12.46
-16.36
-20.59
-24.49
-27.26
-28.18
-26.76
-22.93
-17.07
-9.93
-2.42
4.61
10.57
15.23
18.74
21.50
23.94
26.40
28.94
31.46
33.77
35.71
37.27
38.47
39.31
39.62
39.13
37.57
34.83
31.00
26.34
21.14
15.57
9.69
3.48
-3.04
-9.69
-16.08
-21.66
-25.85
-28.27
-28.93
-28.24
-26.88
-25.55
-24.63
-24.12
-23.81
-23.51
-23.27
-23.39
-24.12
-25.33
-26.36
-26.17
-23.83
-18.93
-11.78
-3.32
5.29
13.12
19.73
25.15
29.71
33.76
37.48
40.87
43.79
46.09
47.73
48.82
49.60
50.29
50.97
51.57
51.85
51.61
50.79
49.60
48.36
47.36
46.62
45.86
44.59
42.32
38.79
33.98
28.07
21.31
13.96
6.24
-1.57
-9.10
-15.96
-21.90
-26.77
-30.66
-33.74
-36.10
-37.66
-38.17
-37.32
-34.82
-30.57
-24.64
-17.36
-9.26
-1.01
6.68
13.17
17.98
20.84
21.73
20.81
18.39
14.78
10.30
5.15
-0.45
-6.23
-11.85
-16.88
-20.94
-23.86
-25.74
-26.88
-27.73
-28.55
-29.41
-30.18
-30.75
-31.19
-31.79
-32.91
-34.75
-37.20
-39.83
-42.15
-43.78
-44.70
-45.20
-45.72
-46.67
-48.26
-50.54
-53.38
-56.56
-59.71
-62.27
-63.56
-62.87
-59.81
-54.43
-47.31
-39.34
-31.41
-24.14
-17.77
-12.17
-7.07
-2.21
2.51
7.06
11.24
14.89
17.82
19.99
21.46
22.41
22.99
23.34
23.49
23.45
23.27
23.04
22.92
22.97
23.09
23.08
22.68
21.79
20.49
19.06
17.79
16.85
16.19
15.56
14.67
13.22
11.14
8.44
5.22
1.60
-2.32
-6.35
-10.30
-13.85
-16.69
-18.52
-19.17
-18.56
-16.71
-13.70
-9.67
-4.92
0.16
5.06
9.35
12.76
15.22
16.89
17.96
18.59
18.90
18.97
18.85
18.59
18.26
17.86
17.38
16.78
16.11
15.46
14.96
14.71
14.69
14.78
14.75
14.39
13.54
12.16
10.31
8.16
5.89
3.68
1.58
-0.48
-2.64
-5.07
-7.89
-11.11
-14.67
-18.42
-22.23
-25.94
-29.41
-32.42
-34.66
-35.68
-35.00
-32.31
-27.67
-21.57
-14.82
-8.37
-2.88
1.40
4.69
7.41
9.89
12.21
14.15
15.45
16.00
15.92
15.53
15.15
14.98
15.00
15.12
15.21
15.21
15.08
14.79
14.25
13.47
12.53
11.55
10.65
9.78
8.76
7.41
5.66
3.64
1.53
-0.50
-2.48
-4.54
-6.88
-9.57
-12.61
-15.92
-19.32
-22.67
-25.59
-27.60
-28.11
-26.63
-23.06
-17.73
-11.36
-4.77
1.31
6.47
10.57
13.71
16.03
17.74
18.95
19.78
20.33
20.66
20.82
20.85
20.72
20.33
19.54
18.20
16.30
13.97
11.54
9.36
7.70
6.53
5.58
4.49
3.05
1.29
-0.54
-2.16
-3.48
-4.72
-6.31
-8.65
-11.87
-15.78
-20.02
-24.20
-28.05
-31.41
-34.07
-35.74
-36.01
-34.52
-31.19
-26.33
-20.59
-14.72
-9.29
-4.60
-0.58
3.00
6.38
9.66
12.83
15.69
17.95
19.31
19.63
18.93
17.52
15.84
14.35
13.32
12.78
12.55
12.35
12.07
11.64
11.13
10.55
9.85
8.92
7.72
6.23
4.52
2.63
0.53
-1.85
-4.58
-7.81
-11.61
-16.03
-21.05
-26.49
-31.94
-36.87
-40.61
-42.60
-42.49
-40.19
-35.95
-30.17
-23.38
-16.14
-8.95
-2.21
3.80
8.96
13.41
17.31
20.83
23.96
26.58
28.43
29.33
29.28
28.48
27.25
25.89
24.57
23.33
22.17
21.12
20.29
19.75
19.40
19.03
18.29
16.91
14.75
11.88
8.55
5.03
1.54
-1.82
-5.07
-8.21
-11.28
-14.31
-17.39
-20.69
-24.35
-28.39
-32.60
-36.57
-39.69
-41.41
-41.36
-39.41
-35.74
-30.69
-24.70
-18.24
-11.78
-5.74
-0.40
4.12
7.88
11.04
13.78
16.17
18.13
19.54
20.32
20.52
20.36
20.14
20.10
20.33
20.67
20.83
20.61
19.95
19.03
18.21
17.71
17.52
17.31
16.57
14.85
12.01
8.24
4.06
-0.00
-3.58
-6.54
-9.05
-11.37
-13.82
-16.65
-20.06
-24.17
-28.88
-33.83
-38.41
-41.84
-43.47
-42.92
-40.20
-35.65
-29.79
-23.16
-16.25
-9.46
-3.08
2.64
7.60
11.73
15.09
17.70
19.56
20.68
21.10
20.98
20.60
20.25
20.16
20.37
20.80
21.28
21.72
22.05
22.27
22.35
22.16
21.53
20.28
18.43
16.19
13.88
11.78
9.90
8.03
5.83
3.07
-0.28
-4.00
-7.83
-11.57
-15.17
-18.74
-22.37
-26.11
-29.84
-33.35
-36.28
-38.27
-38.93
-37.98
-35.28
-30.93
-25.27
-18.78
-11.98
-5.35
0.74
6.05
10.45
13.93
16.55
18.46
19.80
20.72
21.31
21.65
21.77
21.74
21.59
21.37
21.04
20.53
19.79
18.84
17.80
16.81
15.97
15.17
14.09
12.38
9.80
6.42
2.59
-1.21
-4.60
-7.49
-10.02
-12.45
-14.93
-17.55
-20.27
-23.16
-26.23
-29.43
-32.36
-34.35
-34.57
-32.47
-28.07
-22.04
-15.45
-9.30
-4.16
-0.01
3.53
6.87
10.16
13.16
15.47
16.76
16.99
16.48
15.69
15.13
15.09
15.61
16.45
17.29
17.79
17.78
17.28
16.48
15.58
14.73
13.89
12.86
11.45
9.52
7.13
4.51
1.91
-0.57
-3.05
-5.81
-9.11
-13.06
-17.60
-22.51
-27.49
-32.23
-36.38
-39.56
-41.37
-41.42
-39.54
-35.75
-30.39
-23.92
-16.91
-9.84
-3.08
3.13
8.67
13.44
17.41
20.45
22.51
23.61
23.88
23.65
23.26
22.97
22.85
22.84
22.76
22.49
22.00
21.37
20.76
20.30
20.01
19.74
19.18
17.97
15.84
12.80
9.13
5.30
1.76
-1.29
-3.96
-6.56
-9.39
-12.64
-16.26
-20.14
-24.24
-28.56
-33.02
-37.34
-40.94
-43.03
-42.92
-40.25
-35.26
-28.66
-21.44
-14.45
-8.18
-2.64
2.40
7.17
11.72
15.86
19.37
22.09
24.05
25.39
26.32
26.93
27.31
27.53
27.73
28.11
28.80
29.74
30.67
31.28
31.27
30.54
29.17
27.32
25.21
22.98
20.74
18.51
16.15
13.43
10.13
6.16
1.65
-3.03
-7.52
-11.57
-15.31
-19.06
-23.18
-27.80
-32.67
-37.29
-40.93
-42.99
-43.05
-40.98
-36.90
-31.25
-24.65
-17.78
-11.25
-5.38
-0.22
4.36
8.45
12.11
15.27
17.86
19.83
21.24
22.11
22.45
22.27
21.64
20.72
19.78
19.05
18.62
18.42
18.26
17.92
17.29
16.32
14.97
13.24
11.13
8.71
6.11
3.49
0.98
-1.36
-3.55
-5.64
-7.65
-9.65
-11.76
-14.13
-16.99
-20.50
-24.63
-29.02
-33.02
-35.80
-36.59
-34.95
-30.89
-24.89
-17.80
-10.59
-4.05
1.39
5.69
9.08
11.89
14.31
16.36
17.91
18.88
19.20
18.93
18.15
16.93
15.35
13.58
11.93
10.81
10.54
11.13
12.22
13.22
13.45
12.55
10.47
7.46
3.87
0.03
-3.88
-7.73
-11.39
-14.77
-17.81
-20.60
-23.33
-26.28
-29.71
-33.72
-38.19
-42.79
-47.00
-50.24
-51.94
-51.69
-49.31
-44.92
-38.96
-32.04
-24.86
-18.03
-11.92
-6.62
-2.07
1.84
5.02
7.31
8.52
8.64
7.98
7.08
6.47
6.46
7.00
7.84
8.61
8.98
8.71
7.62
5.59
2.62
-1.03
-4.87
-8.27
-10.74
-12.04
-12.34
-12.05
-11.54
-11.14
-10.99
-11.16
-11.69
-12.66
-14.07
-15.89
-18.04
-20.49
-23.25
-26.35
-29.74
-33.14
-36.07
-37.87
-37.94
-36.00
-32.17
-26.93
-20.96
-14.93
-9.30
-4.29
0.02
3.60
6.42
8.46
9.71
10.30
10.33
9.90
8.95
7.38
5.12
2.22
-1.08
-4.53
-7.95
-11.39
-14.99
-18.92
-23.21
-27.71
-32.22
-36.62
-40.92
-45.30
-49.91
-54.89
-60.29
-66.04
-71.93
-77.58
-82.43
-85.65
-86.45
-84.24
-78.82
-70.39
-59.43
-46.51
-32.14
-16.76
-0.71
15.71
32.22
48.49
64.18
78.89
92.18
103.64
112.94
119.87
124.31
126.26
125.85
123.41
119.47
114.65
109.50
104.25
98.74
92.60
85.58
77.83
69.90
62.52
56.23
51.13
46.95
43.25
39.77
36.60
33.99
32.08
30.68
29.31
27.42
24.65
21.08
17.13
13.36
10.23
7.94
6.36
5.12
3.75
1.82
-0.95
-4.50
-8.51
-12.42
-15.61
-17.59
-18.00
-16.66
-13.43
-8.23
-1.09
7.72
17.68
28.03
37.93
46.67
53.82
59.31
63.31
66.12
68.03
69.20
69.68
69.46
68.56
67.07
65.11
62.79
60.26
57.62
54.99
52.50
50.22
48.11
45.96
43.42
40.17
36.09
31.30
26.17
21.05
16.17
11.59
7.31
3.52
0.55
-1.21
-1.62
-1.12
-0.82
-2.31
-7.14
-16.15
-29.08
-44.59
-60.60
-74.96
-85.99
-92.73
-95.03
-93.47
-89.15
-83.54
-78.24
-74.51
-73.03
-73.63
-75.35
-76.89
-77.07
-75.34
-71.82
-67.22
-62.32
-57.72
-53.67
-50.08
-46.69
-43.17
-39.21
-34.52
-28.82
-22.01
-14.21
-5.98
1.74
7.72
10.86
10.55
6.94
0.87
-6.46
-13.97
-21.08
-27.78
-34.38
-41.12
-47.78
-53.70
-57.91
-59.56
-58.24
-54.17
-47.99
-40.48
-32.26
-23.63
-14.64
-5.32
4.22
13.68
22.64
30.69
37.45
42.69
46.37
48.59
49.66
49.93
49.75
49.35
48.77
47.88
46.57
44.83
42.84
40.88
39.16
37.70
36.18
34.16
31.21
27.10
21.97
16.14
10.01
3.87
-2.16
-8.04
-13.80
-19.31
-24.39
-28.85
-32.63
-35.78
-38.38
-40.41
-41.62
-41.65
-40.12
-36.86
-31.90
-25.53
-18.13
-10.15
-2.08
5.58
12.39
18.08
22.59
26.12
28.97
31.38
33.38
34.79
35.34
34.88
33.54
31.70
29.88
28.50
27.75
27.51
27.48
27.37
26.95
26.16
24.95
23.30
21.15
18.53
15.66
12.92
10.68
9.14
8.11
7.17
5.73
3.42
0.10
-4.02
-8.63
-13.43
-18.20
-22.72
-26.61
-29.33
-30.30
-29.14
-25.83
-20.84
-14.94
-9.00
-3.72
0.49
3.54
5.63
7.11
8.45
10.11
12.46
15.65
19.50
23.52
26.96
29.06
29.22
27.25
23.47
18.58
13.53
9.12
5.77
3.41
1.62
0.00
-1.65
-3.21
-4.38
-5.00
-5.24
-5.50
-6.22
-7.53
-9.18
-10.68
-11.62
-11.96
-12.08
-12.61
-14.13
-17.00
-21.17
-26.19
-31.37
-35.83
-38.65
-39.17
-37.09
-32.71
-26.85
-20.60
-14.98
-10.64
-7.67
-5.76
-4.46
-3.42
-2.58
-2.12
-2.24
-3.00
-4.19
-5.42
-6.27
-6.47
-5.93
-4.78
-3.12
-1.03
1.48
4.37
7.45
10.32
12.41
13.19
12.32
9.76
5.82
0.97
-4.34
-9.78
-15.22
-20.59
-25.82
-30.63
-34.75
-37.96
-40.37
-42.33
-44.30
-46.53
-48.85
-50.65
-51.17
-49.91
-46.81
-42.30
-37.01
-31.51
-26.07
-20.69
-15.18
-9.41
-3.37
2.79
8.83
14.50
19.54
23.80
27.27
29.98
32.02
33.39
34.04
33.90
32.99
31.53
29.96
28.72
28.10
28.09
28.35
28.35
27.58
25.82
23.15
19.92
16.58
13.44
10.66
8.16
5.78
3.35
0.79
-1.86
-4.46
-6.77
-8.50
-9.33
-9.00
-7.36
-4.50
-0.75
3.38
7.39
10.88
13.72
16.01
17.91
19.56
20.99
22.12
22.90
23.27
23.24
22.74
21.62
19.76
17.11
13.88
10.55
7.70
5.83
5.15
5.48
6.29
6.89
6.63
5.14
2.40
-1.25
-5.24
-8.93
-11.79
-13.64
-14.65
-15.34
-16.29
-17.91
-20.18
-22.66
-24.58
-25.18
-23.95
-20.77
-16.01
-10.25
-4.19
1.62
6.76
10.99
14.18
16.28
17.37
17.65
17.38
16.82
16.14
15.39
14.51
13.38
11.96
10.28
8.47
6.65
4.91
3.22
1.60
0.13
-1.07
-1.92
-2.49
-3.04
-3.92
-5.39
-7.43
-9.77
-12.00
-13.80
-15.09
-16.07
-17.03
-18.22
-19.66
-21.16
-22.36
-22.92
-22.60
-21.30
-19.18
-16.45
-13.41
-10.29
-7.22
-4.25
-1.44
1.15
3.42
5.26
6.67
7.72
8.55
9.28
9.90
10.29
10.39
10.22
9.90
9.73
9.88
10.46
11.37
12.43
13.34
13.92
14.05
13.62
12.60
10.96
8.75
6.14
3.35
0.57
-2.23
-5.27
-8.83
-12.99
-17.50
-21.68
-24.74
-25.99
-25.11
-22.23
-17.76
-12.27
-6.34
-0.53
4.66
8.88
11.98
14.16
15.71
16.91
17.82
18.29
18.13
17.33
16.13
14.91
13.94
13.25
12.65
11.94
11.04
10.08
9.23
8.53
7.80
6.74
5.16
3.12
0.93
-1.07
-2.67
-3.91
-5.01
-6.24
-7.78
-9.77
-12.27
-15.33
-18.84
-22.51
-25.73
-27.80
-28.10
-26.32
-22.64
-17.60
-11.94
-6.32
-1.20
3.27
7.11
10.40
13.21
15.53
17.31
18.54
19.27
19.58
19.58
19.37
18.93
18.24
17.26
16.05
14.74
13.53
12.59
12.02
11.73
11.52
11.14
10.40
9.25
7.77
6.13
4.52
3.02
1.57
-0.03
-2.04
-4.69
-8.06
-12.08
-16.46
-20.89
-25.02
-28.58
-31.43
-33.46
-34.48
-34.25
-32.43
-28.86
-23.65
-17.33
-10.71
-4.64
0.33
4.14
7.12
9.79
12.46
15.12
17.43
19.04
19.77
19.81
19.58
19.54
19.91
20.66
21.58
22.45
23.14
23.73
24.33
25.04
25.86
26.69
27.35
27.70
27.68
27.32
26.72
26.05
25.47
25.07
24.83
24.58
24.10
23.15
21.68
19.79
17.80
16.02
14.63
13.55
12.54
11.37
10.02
8.82
8.30
8.96
10.90
13.77
16.92
19.71
21.81
23.20
23.93
23.77
22.14
18.28
11.76
2.96
-6.83
-15.73
-21.97
-24.37
-22.80
-17.87
-10.56
-1.87
7.31
15.98
22.81
26.23
24.76
17.38
4.16
-13.77
-34.33
-54.96
-73.23
-87.43
-96.86
-101.84
-103.52
-103.37
-102.79
-102.80
-103.86
-105.89
-108.11
-108.98
-106.30
-97.88
-82.56
-61.27
-37.58
-16.69
-3.84
-2.19
-11.38
-27.55
-44.63
-56.44
-58.68
-50.15
-32.65
-10.07
13.28
34.15
51.26
65.28
77.97
90.90
104.36
117.33
128.08
135.38
139.14
140.21
139.50
137.03
131.84
122.77
109.78
94.70
80.83
71.48
68.25
69.97
73.25
74.17
70.28
61.77
51.19
41.85
36.04
33.89
33.41
31.72
26.58
17.47
5.64
-6.73
-17.70
-26.44
-33.29
-39.19
-44.87
-50.24
-54.57
-56.99
-57.21
-55.89
-54.44
-54.38
-56.59
-60.90
-66.20
-71.05
-74.41
-76.13
-76.82
-77.54
-79.12
-81.77
-84.89
-87.37
-87.95
-85.73
-80.46
-72.60
-63.29
-53.92
-45.45
-37.87
-30.24
-21.30
-10.60
0.99
11.58
18.98
21.70
19.91
15.18
9.60
5.02
2.35
2.17
5.16
11.58
20.70
30.80
39.71
46.11
50.79
56.43
66.71
84.29
107.83
131.37
146.64
146.64
128.92
97.22
59.82
27.00
8.02
7.16
22.59
48.09
75.42
96.93
110.48
115.20
107.19
86.02
54.73
16.00
-27.01
-70.33
-109.57
-140.63
-161.32
-171.37
-171.84
-165.37
-155.26
-143.99
-132.68
-121.27
-109.14
-96.27
-83.27
-70.84
-60.26
-53.01
-49.66
-49.57
-51.14
-52.42
-52.17
-50.11
-46.65
-42.93
-40.24
-39.23
-39.72
-41.06
-42.41
-43.20
-43.07
-41.53
-38.29
-33.36
-27.03
-19.88
-12.61
-5.83
0.23
5.66
10.85
16.11
21.46
26.65
31.22
34.66
36.67
37.23
36.62
35.30
33.69
32.04
30.32
28.30
25.76
22.59
18.99
15.22
11.58
8.18
5.00
1.84
-1.55
-5.36
-9.72
-14.62
-19.83
-24.93
-29.39
-32.71
-34.52
-34.68
-33.19
-30.23
-26.11
-21.29
-16.35
-11.87
-8.34
-5.95
-4.55
-3.80
-3.34
-2.95
-2.61
-2.42
-2.35
-2.29
-1.96
-1.05
0.64
3.13
6.36
10.17
14.37
18.70
22.77
26.11
28.20
28.66
27.39
24.65
20.93
16.84
12.83
9.05
5.36
1.41
-3.12
-8.35
-14.02
-19.59
-24.39
-27.82
-29.58
-29.62
-28.14
-25.46
-21.90
-17.77
-13.35
-8.95
-4.82
-1.15
1.98
4.62
6.88
8.88
10.65
12.12
13.13
13.55
13.40
12.84
12.16
11.65
11.45
11.57
11.85
12.13
12.32
12.37
12.28
11.99
11.35
10.23
8.55
6.39
3.89
1.22
-1.52
-4.30
-7.12
-9.91
-12.64
-15.31
-18.09
-21.19
-24.72
-28.47
-31.82
-33.94
-34.06
-31.81
-27.31
-21.11
-13.87
-6.23
1.35
8.50
14.83
20.00
23.80
26.30
27.84
28.92
29.92
31.00
32.01
32.64
32.63
31.87
30.52
28.88
27.24
25.78
24.51
23.38
22.33
21.42
20.67
20.05
19.38
18.38
16.80
14.62
12.02
9.32
6.78
4.45
2.13
-0.44
-3.47
-7.03
-11.03
-15.26
-19.51
-23.43
-26.58
-28.45
-28.62
-26.91
-23.50
-18.82
-13.33
-7.44
-1.42
4.54
10.24
15.41
19.82
23.29
25.79
27.48
28.53
29.15
29.47
29.56
29.45
29.19
28.79
28.24
27.53
26.56
25.33
23.90
22.45
21.26
20.53
20.22
20.03
19.43
17.91
15.29
11.73
7.76
3.98
0.81
-1.65
-3.55
-5.24
-7.05
-9.16
-11.72
-14.76
-18.27
-22.02
-25.58
-28.24
-29.30
-28.24
-24.98
-19.94
-13.90
-7.69
-1.88
3.28
7.87
12.00
15.65
18.61
20.60
21.45
21.32
20.57
19.68
18.97
18.48
18.05
17.45
16.59
15.59
14.70
14.12
13.90
13.87
13.84
13.73
13.66
13.82
14.30
14.90
15.22
14.86
13.79
12.37
11.18
10.64
10.73
10.91
10.47
8.83
5.99
2.47
-0.86
-3.14
-3.77
-2.50
0.74
5.84
12.51
20.27
28.29
35.52
40.95
43.92
44.33
42.63
39.67
36.27
33.00
30.01
27.16
24.22
21.07
17.81
14.64
11.77
9.28
7.10
5.13
3.31
1.67
0.30
-0.77
-1.69
-2.77
-4.37
-6.79
-10.03
-13.79
-17.54
-20.77
-23.15
-24.66
-25.55
-26.29
-27.35
-29.08
-31.63
-34.90
-38.58
-42.24
-45.31
-47.21
-47.39
-45.45
-41.35
-35.36
-28.20
-20.76
-13.81
-7.89
-3.11
0.75
4.09
7.25
10.38
13.41
16.16
18.41
20.03
21.07
21.62
21.83
21.74
21.33
20.55
19.43
18.09
16.78
15.73
15.07
14.75
14.50
14.01
13.03
11.44
9.34
6.88
4.24
1.50
-1.39
-4.55
-8.05
-11.81
-15.62
-19.17
-22.28
-24.99
-27.62
-30.56
-34.00
-37.73
-41.05
-43.01
-42.77
-39.96
-34.91
-28.44
-21.58
-15.18
-9.62
-4.84
-0.57
3.36
6.88
9.70
11.53
12.28
12.10
11.27
9.96
8.14
5.63
2.32
-1.57
-5.44
-8.42
-9.84
-9.47
-7.68
-5.21
-2.90
-1.26
-0.45
-0.34
-0.73
-1.56
-2.85
-4.63
-6.82
-9.21
-11.61
-13.97
-16.36
-18.88
-21.57
-24.29
-26.87
-29.30
-31.84
-35.02
-39.32
-44.83
-51.06
-57.03
-61.53
-63.60
-62.77
-59.12
-53.18
-45.62
-37.16
-28.41
-19.93
-12.19
-5.55
-0.19
3.96
7.15
9.69
11.84
13.67
15.13
16.06
16.42
16.28
15.87
15.53
15.49
15.83
16.50
17.30
18.10
18.82
19.51
20.28
21.18
22.19
23.19
23.98
24.41
24.35
23.75
22.61
20.96
18.86
16.29
13.27
9.84
6.12
2.26
-1.58
-5.32
-8.90
-12.15
-14.74
-16.20
-16.01
-13.96
-10.15
-5.04
0.74
6.61
12.14
17.05
21.15
24.25
26.29
27.31
27.54
27.31
26.92
26.51
26.01
25.29
24.22
22.85
21.37
19.97
18.86
18.08
17.57
17.15
16.64
15.90
14.88
13.54
11.87
9.81
7.36
4.55
1.53
-1.49
-4.31
-6.85
-9.18
-11.53
-14.19
-17.34
-20.96
-24.84
-28.51
-31.44
-33.11
-33.09
-31.20
-27.51
-22.28
-16.00
-9.20
-2.35
4.15
9.99
14.97
19.00
22.04
24.16
25.49
26.17
26.35
26.13
25.61
24.89
24.13
23.43
22.91
22.55
22.29
22.06
21.78
21.42
20.94
20.28
19.36
18.12
16.58
14.82
12.94
10.96
8.78
6.21
3.08
-0.60
-4.61
-8.64
-12.46
-16.03
-19.55
-23.26
-27.26
-31.31
-34.86
-37.24
-37.80
-36.24
-32.63
-27.41
-21.18
-14.60
-8.19
-2.29
2.93
7.42
11.21
14.33
16.77
18.57
19.81
20.64
21.27
21.82
22.28
22.54
22.42
21.80
20.77
19.57
18.50
17.72
17.25
16.92
16.50
15.87
15.03
14.08
13.13
12.17
11.11
9.73
7.89
5.50
2.67
-0.41
-3.53
-6.59
-9.63
-12.89
-16.61
-20.90
-25.67
-30.55
-35.01
-38.46
-40.39
-40.47
-38.56
-34.80
-29.54
-23.30
-16.62
-10.06
-3.96
1.47
6.18
10.24
13.72
16.66
19.05
20.87
22.15
22.92
23.21
23.08
22.55
21.69
20.64
19.59
18.72
18.11
17.72
17.41
17.00
16.36
15.48
14.46
13.41
12.39
11.34
10.12
8.58
6.62
4.25
1.58
-1.22
-3.98
-6.53
-8.86
-11.02
-13.22
-15.73
-18.84
-22.69
-27.18
-31.95
-36.39
-39.79
-41.49
-41.12
-38.61
-34.23
-28.47
-21.94
-15.29
-9.07
-3.68
0.75
4.32
7.35
10.15
13.01
15.95
18.82
21.28
23.01
23.78
23.64
22.87
21.91
21.14
20.73
20.58
20.46
20.15
19.64
19.06
18.57
18.17
17.61
16.59
14.86
12.55
9.96
7.46
5.22
3.11
0.81
-1.94
-5.12
-8.48
-11.70
-14.58
-17.19
-19.81
-22.74
-26.11
-29.67
-32.90
-35.12
-35.68
-34.24
-30.87
-26.00
-20.32
-14.48
-8.95
-3.90
0.66
4.78
8.47
11.59
14.05
15.81
17.03
17.89
18.56
19.05
19.29
19.17
18.68
17.94
17.08
16.21
15.33
14.31
13.07
11.60
10.06
8.64
7.49
6.65
6.04
5.40
4.48
3.13
1.31
-0.85
-3.21
-5.68
-8.32
-11.32
-14.87
-19.01
-23.52
-27.96
-31.71
-34.14
-34.73
-33.25
-29.74
-24.60
-18.41
-11.87
-5.61
0.00
4.86
9.04
12.68
15.81
18.33
20.14
21.20
21.62
21.58
21.27
20.78
20.17
19.45
18.70
17.96
17.27
16.61
15.88
15.00
13.99
12.88
11.67
10.25
8.45
6.11
3.27
0.14
-2.94
-5.74
-8.19
-10.50
-12.94
-15.73
-18.93
-22.46
-26.16
-29.84
-33.21
-35.89
-37.40
-37.21
-35.01
-30.80
-25.02
-18.39
-11.70
-5.51
-0.11
4.52
8.55
12.13
15.25
17.79
19.61
20.59
20.78
20.44
19.88
19.41
19.15
19.01
18.83
18.43
17.72
16.72
15.49
14.11
12.61
11.06
9.56
8.19
6.97
5.78
4.42
2.72
0.62
-1.78
-4.29
-6.74
-9.12
-11.59
-14.41
-17.74
-21.62
-25.83
-29.97
-33.50
-35.81
-36.36
-34.84
-31.20
-25.73
-19.07
-12.01
-5.28
0.58
5.38
9.22
12.39
15.11
17.56
19.71
21.47
22.76
23.50
23.69
23.35
22.54
21.35
19.96
18.54
17.23
16.08
15.08
14.16
13.29
12.46
11.63
10.73
9.62
8.18
6.34
4.17
1.85
-0.45
-2.61
-4.64
-6.67
-8.88
-11.41
-14.34
-17.67
-21.36
-25.32
-29.33
-33.03
-35.88
-37.28
-36.72
-34.01
-29.36
-23.38
-16.85
-10.49
-4.75
0.22
4.47
8.15
11.31
13.96
16.02
17.49
18.43
19.02
19.41
19.67
19.75
19.50
18.83
17.80
16.65
15.73
15.30
15.42
15.83
16.20
16.19
15.70
14.77
13.55
12.04
10.13
7.70
4.70
1.31
-2.14
-5.30
-8.00
-10.27
-12.37
-14.59
-17.14
-20.09
-23.38
-26.80
-30.05
-32.69
-34.25
-34.26
-32.46
-28.86
-23.79
-17.81
-11.58
-5.67
-0.45
4.00
7.79
11.13
14.14
16.75
18.77
19.97
20.21
19.61
18.46
17.22
16.24
15.72
15.59
15.64
15.68
15.54
15.20
14.66
13.89
12.86
11.53
9.91
8.13
6.31
4.57
2.86
1.04
-1.11
-3.64
-6.47
-9.34
-11.92
-14.05
-15.83
-17.61
-19.78
-22.58
-25.88
-29.14
-31.64
-32.66
-31.72
-28.81
-24.27
-18.73
-12.82
-7.07
-1.74
3.08
7.42
11.27
14.56
17.16
18.93
19.84
20.02
19.68
19.08
18.42
17.84
17.39
17.13
17.01
16.92
16.68
16.10
15.12
13.80
12.34
10.85
9.36
7.69
5.63
3.09
0.14
-2.95
-5.97
-8.76
-11.39
-13.99
-16.72
-19.62
-22.64
-25.70
-28.67
-31.44
-33.75
-35.21
-35.33
-33.72
-30.21
-25.03
-18.77
-12.15
-5.86
-0.27
4.47
8.47
11.86
14.72
17.07
18.85
20.12
20.94
21.49
21.88
22.14
22.26
22.11
21.58
20.62
19.28
17.69
16.06
14.60
13.55
13.03
13.03
13.32
13.52
13.17
11.98
9.90
7.09
3.81
0.33
-3.22
-6.77
-10.22
-13.44
-16.38
-19.07
-21.73
-24.67
-28.03
-31.63
-34.87
-37.01
-37.36
-35.63
-31.96
-26.86
-20.96
-14.89
-9.08
-3.81
0.77
4.65
7.85
10.54
12.92
15.18
17.34
19.26
20.63
21.17
20.76
19.56
17.99
16.57
15.71
15.62
16.19
17.10
17.88
18.15
17.61
16.27
14.29
11.98
9.59
7.27
5.05
2.88
0.73
-1.45
-3.69
-6.04
-8.54
-11.17
-13.83
-16.45
-19.07
-21.83
-24.98
-28.64
-32.60
-36.33
-39.08
-40.13
-39.11
-36.05
-31.39
-25.81
-20.05
-14.68
-10.04
-6.15
-2.83
0.19
3.20
6.34
9.65
13.04
16.33
19.27
21.58
23.01
23.44
22.96
21.83
20.44
19.17
18.25
17.73
17.46
17.20
16.70
15.80
14.52
12.99
11.34
9.66
7.95
6.14
4.22
2.24
0.27
-1.66
-3.63
-5.78
-8.19
-10.80
-13.49
-16.21
-19.08
-22.28
-25.88
-29.56
-32.63
-34.25
-33.80
-31.14
-26.57
-20.66
-14.00
-7.00
0.02
6.78
12.95
18.27
22.58
26.00
28.79
31.23
33.45
35.35
36.69
37.25
36.96
35.99
34.70
33.54
32.85
32.72
33.00
33.43
33.79
34.06
34.40
34.98
35.76
36.38
36.29
34.90
32.02
27.88
23.12
18.42
14.25
10.69
7.42
4.01
0.11
-4.38
-9.32
-14.43
-19.32
-23.58
-26.76
-28.50
-28.64
-27.28
-24.87
-21.96
-19.01
-16.18
-13.34
-10.23
-6.71
-2.91
0.77
3.80
5.77
6.55
6.33
5.50
4.51
3.68
3.12
2.77
2.42
1.89
1.10
0.14
-0.77
-1.38
-1.58
-1.43
-1.16
-1.04
-1.25
-1.90
-3.01
-4.52
-6.37
-8.54
-11.05
-13.92
-17.18
-20.78
-24.59
-28.44
-32.16
-35.56
-38.49
-40.81
-42.27
-42.66
-41.82
-39.78
-36.79
-33.25
-29.59
-26.10
-22.83
-19.66
-16.47
-13.22
-10.03
-7.13
-4.67
-2.67
-1.01
0.50
2.03
3.54
4.90
5.86
6.22
5.90
5.00
3.74
2.41
1.28
0.47
0.08
0.13
0.57
1.25
1.90
2.11
1.49
-0.17
-2.79
-5.97
-9.19
-12.05
-14.37
-16.34
-18.37
-20.83
-23.92
-27.58
-31.54
-35.41
-38.80
-41.39
-42.97
-43.38
-42.61
-40.77
-38.09
-34.88
-31.38
-27.62
-23.37
-18.27
-12.04
-4.76
3.06
10.64
17.14
22.04
25.24
27.05
27.94
28.32
28.47
28.49
28.48
28.48
28.62
28.91
29.35
29.85
30.32
30.66
30.69
30.26
29.17
27.36
24.91
22.09
19.19
16.44
13.85
11.25
8.50
5.52
2.41
-0.68
-3.68
-6.73
-10.13
-14.11
-18.62
-23.25
-27.25
-29.81
-30.34
-28.69
-25.17
-20.40
-15.11
-9.93
-5.23
-1.16
2.32
5.35
8.08
10.66
13.14
15.47
17.51
19.06
19.98
20.25
20.03
19.54
19.05
18.71
18.60
18.71
18.99
19.30
19.47
19.26
18.51
17.20
15.46
13.51
11.50
9.47
7.33
4.99
2.52
0.12
-1.96
-3.59
-4.88
-6.14
-7.77
-9.96
-12.70
-15.69
-18.50
-20.69
-21.87
-21.72
-20.08
-17.00
-12.74
-7.69
-2.35
2.87
7.70
11.98
15.69
18.78
21.23
23.05
24.29
25.04
25.36
25.33
24.94
24.26
23.36
22.33
21.27
20.20
19.11
17.96
16.78
15.62
14.53
13.45
12.22
10.60
8.36
5.44
1.95
-1.82
-5.53
-8.87
-11.57
-13.61
-15.08
-16.35
-17.81
-19.96
-23.04
-27.01
-31.40
-35.44
-38.27
-39.20
-38.00
-34.85
-30.27
-24.89
-19.27
-13.77
-8.63
-4.02
-0.11
2.98
5.20
6.63
7.54
8.22
8.89
9.68
10.51
11.25
11.66
11.58
11.00
10.07
9.11
8.41
8.14
8.19
8.30
8.20
7.80
7.26
6.84
6.71
6.70
6.38
5.20
2.80
-0.77
-5.10
-9.58
-13.74
-17.38
-20.68
-24.01
-27.68
-31.74
-35.86
-39.47
-41.99
-43.05
-42.58
-40.85
-38.19
-34.93
-31.24
-27.19
-22.86
-18.48
-14.33
-10.73
-7.83
-5.56
-3.71
-2.03
-0.43
1.01
2.06
2.55
2.46
1.98
1.44
1.12
1.20
1.67
2.40
3.26
4.11
4.87
5.48
5.93
6.24
6.52
6.82
7.08
7.08
6.51
5.14
3.00
0.40
-2.14
-4.17
-5.56
-6.52
-7.61
-9.35
-12.12
-15.90
-20.24
-24.34
-27.30
-28.28
-26.79
-22.82
-16.93
-9.98
-2.97
3.40
8.81
13.28
17.01
20.19
22.84
24.88
26.22
26.89
27.08
27.05
27.01
27.02
27.02
26.87
26.47
25.86
25.22
24.76
24.65
24.83
25.06
25.03
24.44
23.21
21.49
19.45
17.24
14.87
12.25
9.31
6.10
2.84
-0.14
-2.63
-4.60
-6.24
-7.91
-9.93
-12.48
-15.50
-18.70
-21.63
-23.74
-24.51
-23.59
-20.92
-16.73
-11.57
-6.02
-0.67
4.12
8.17
11.48
14.08
16.04
17.44
18.42
19.17
19.91
20.77
21.77
22.74
23.37
23.28
22.09
19.48
15.33
9.79
3.35
-3.21
-9.08
-13.60
-16.50
-17.95
-18.47
-18.69
-19.12
-19.97
-21.12
-22.30
-23.21
-23.77
-24.10
-24.50
-25.34
-26.86
-29.09
-31.81
-34.57
-36.84
-38.10
-37.91
-36.00
-32.31
-27.05
-20.63
-13.64
-6.78
-0.62
4.41
8.21
10.96
13.04
14.89
16.80
18.78
20.55
21.67
21.78
20.77
18.86
16.46
14.02
11.84
