1675429546.00
64.000000
-0.00
-0.00
-0.00
-0.00
-0.00
-0.00
-0.00
-0.00
-0.00
-0.00
0.00
0.01
0.01
-0.00
-0.03
-0.05
-0.05
0.00
0.13
0.36
0.66
1.01
1.37
1.72
2.06
2.40
2.79
3.24
3.80
4.42
5.06
5.66
6.20
6.68
7.15
7.68
8.31
9.14
10.09
11.04
11.88
12.56
13.14
13.76
14.65
15.96
17.91
20.32
22.90
25.38
27.58
29.57
31.68
34.32
37.81
42.54
48.15
54.10
59.83
64.97
69.58
74.14
79.34
85.71
93.76
103.00
112.62
121.73
129.77
136.75
143.30
150.75
157.77
166.64
177.95
191.79
206.97
220.57
228.25
225.36
208.53
176.87
132.76
80.05
23.07
-34.94
-92.44
-149.16
-205.23
-260.37
-313.74
-363.87
-409.83
-450.91
-486.50
-515.74
-537.23
-549.22
-549.96
-538.37
-514.21
-478.67
-433.88
-382.45
-327.02
-269.84
-212.63
-156.66
-102.95
-52.37
-5.90
35.58
71.43
101.35
125.50
144.38
158.69
169.15
176.37
180.75
182.57
182.07
179.51
175.23
169.65
163.18
156.15
148.81
141.30
133.69
126.02
118.33
110.69
103.16
95.80
88.68
81.83
75.25
68.95
62.95
57.25
51.86
46.78
42.03
37.59
33.45
29.61
26.07
22.81
19.83
17.11
14.67
12.48
10.54
8.83
7.35
6.07
4.97
4.05
3.27
2.62
2.09
1.65
1.30
1.01
0.79
0.61
0.48
0.37
0.29
0.24
0.20
0.18
0.17
0.17
0.19
0.21
0.23
0.27
0.30
0.35
0.39
0.43
0.48
0.53
0.58
0.63
0.68
0.74
0.80
0.87
0.95
1.03
1.12
1.22
1.33
1.46
1.60
1.77
1.94
2.14
2.36
2.61
2.88
3.18
3.50
3.86
4.26
4.68
5.15
5.65
6.19
6.77
7.39
8.06
8.76
9.52
10.32
11.17
12.06
13.00
13.98
15.04
16.15
17.33
18.57
19.85
21.14
22.39
23.52
24.44
25.02
25.15
24.70
23.59
21.76
19.22
16.02
12.23
8.02
3.55
-0.98
-5.40
-9.51
-13.15
-16.17
-18.44
-19.92
-20.61
-20.64
-20.13
-19.25
-18.16
-16.95
-15.66
-14.30
-12.83
-11.26
-9.65
-8.11
-6.75
-5.59
-4.59
-3.65
-2.59
-1.25
0.47
2.34
4.13
5.56
6.49
6.97
7.26
7.76
8.83
10.68
12.90
14.94
16.23
16.44
15.67
14.39
13.41
13.44
14.93
17.23
19.39
20.36
19.45
16.63
12.54
8.31
5.10
3.68
3.41
3.10
1.12
-4.32
-14.76
-30.96
-52.61
-78.58
-102.00
-117.75
-122.14
-114.17
-96.07
-72.58
-49.27
-30.52
-18.27
-11.80
-9.52
-9.36
-9.93
-10.82
-12.17
-14.18
-16.70
-19.27
-21.36
-23.25
-25.54
-29.08
-34.63
-42.39
-51.72
-61.12
-68.66
-72.77
-73.29
-71.41
-69.25
-68.97
-71.70
-77.02
-83.16
-87.97
-89.79
-88.24
-83.89
-77.75
-71.08
-65.64
-63.99
-69.26
-83.85
-107.61
-136.67
-163.77
-180.51
-180.44
-161.40
-125.79
-78.84
-25.91
29.17
84.09
136.57
183.03
218.78
240.11
247.02
244.58
241.58
246.70
263.96
290.32
316.72
332.37
330.04
309.39
276.59
240.75
209.41
185.76
168.91
156.31
146.38
139.39
136.34
136.96
138.59
137.16
129.34
114.69
96.04
77.81
63.16
52.12
41.92
29.40
13.90
-1.57
-11.81
-12.69
-4.26
8.45
17.54
15.91
0.50
-26.72
-60.72
-96.64
-132.45
-169.41
-210.13
-255.75
-304.03
-349.51
-385.78
-408.22
-415.78
-410.80
-397.31
-378.73
-356.60
-331.00
-301.87
-270.21
-238.02
-206.99
-177.13
-146.30
-111.40
-70.38
-23.89
24.60
70.20
108.39
136.51
154.15
162.58
164.07
161.39
157.33
154.34
153.97
156.42
160.77
165.70
170.41
175.12
180.68
187.65
195.48
202.52
206.85
207.47
204.97
201.12
197.86
196.07
195.04
192.82
187.19
176.62
160.96
141.47
120.45
100.71
84.70
73.81
67.84
65.09
63.13
59.93
54.75
48.32
42.36
38.40
37.09
37.98
40.05
42.45
44.93
47.66
50.59
52.94
53.15
49.41
40.48
26.14
7.19
-15.18
-39.80
-65.83
-92.36
-118.06
-141.17
-159.98
-173.80
-183.58
-191.71
-200.74
-211.93
-224.20
-234.62
-239.80
-237.88
-229.52
-217.43
-204.67
-192.78
-180.94
-166.66
-147.65
-123.48
-96.13
-69.13
-45.78
-27.66
-14.26
-3.79
5.44
13.93
20.87
24.82
24.66
20.46
13.40
5.19
-2.77
-10.07
-17.31
-25.66
-36.08
-48.66
-62.30
-75.05
-84.75
-89.83
-89.72
-84.85
-76.36
-65.62
-53.93
-42.35
-31.70
-22.40
-14.47
-7.50
-0.78
6.28
13.83
21.51
28.58
34.31
38.39
40.93
42.34
43.01
43.18
42.98
42.76
43.13
44.80
48.15
52.96
58.40
63.47
67.51
70.47
72.80
74.86
76.58
77.39
76.70
74.57
72.14
71.35
73.91
79.89
86.81
89.79
82.86
60.87
21.33
-34.88
-103.93
-180.20
-257.51
-329.79
-391.22
-436.19
-459.85
-459.17
-434.06
-387.91
-326.97
-258.46
-188.57
-120.94
-56.32
6.62
70.02
135.82
205.36
279.32
357.24
436.78
512.91
578.32
625.15
647.76
645.04
621.00
583.02
538.83
493.77
449.81
406.60
363.57
321.49
282.54
249.18
222.62
202.19
185.82
171.32
157.47
144.28
132.61
123.27
116.19
110.25
103.57
94.21
80.99
63.85
43.81
22.48
1.30
-19.04
-38.86
-59.17
-81.10
-105.26
-131.36
-158.25
-184.45
-208.89
-231.51
-253.17
-275.26
-298.90
-324.48
-351.63
-379.85
-409.26
-440.76
-475.30
-512.64
-550.52
-584.99
-611.98
-628.89
-635.33
-632.80
-623.28
-607.80
-585.88
-556.20
-518.16
-473.02
-423.43
-372.07
-320.51
-268.71
-215.97
-163.05
-113.53
-73.88
-51.99
-52.11
-71.64
-101.48
-129.28
-144.31
-141.58
-122.24
-91.94
-58.21
-25.49
6.21
38.67
72.91
107.70
139.89
166.92
187.71
201.23
208.21
210.72
210.00
205.83
197.24
178.16
144.79
107.19
72.34
41.58
17.17
0.20
-9.71
-14.10
-14.98
-13.31
-9.29
-4.28
1.25
7.86
15.63
23.93
31.57
37.26
40.70
42.36
42.07
40.57
39.60
40.48
43.71
48.96
55.34
62.32
69.97
78.31
88.40
102.18
121.21
146.06
176.06
209.75
245.58
282.51
320.02
358.59
399.65
445.06
496.89
556.97
625.75
701.04
777.08
844.91
894.89
919.87
917.70
891.74
849.04
797.19
741.37
683.35
622.41
557.29
487.93
415.78
343.08
271.75
202.81
136.61
73.49
14.39
-39.28
-85.84
-124.25
-154.48
-177.68
-195.76
-210.83
-224.64
-238.18
-251.78
-265.27
-278.42
-291.19
-303.80
-316.70
-330.16
-344.06
-357.75
-370.36
-381.55
-392.24
-405.04
-423.14
-448.24
-478.39
-507.01
-524.22
-520.25
-489.15
-430.95
-351.27
-258.91
-163.05
-71.86
7.96
70.54
111.02
126.57
117.42
86.72
39.19
-20.62
-88.83
-160.97
-230.16
-286.69
-320.12
-322.81
-293.02
-235.56
-159.91
-77.11
2.36
69.11
115.03
134.58
126.95
97.71
57.73
18.96
-10.78
-30.63
-45.22
-60.06
-77.12
-94.24
-108.13
-119.16
-133.69
-161.88
-211.83
-283.78
-368.13
-448.48
-508.33
-537.63
-535.72
-509.86
-470.86
-427.88
-385.53
-343.67
-299.88
-252.43
-202.23
-152.56
-107.22
-68.13
-34.18
-1.80
33.18
73.41
119.11
168.34
218.14
265.56
308.08
343.44
369.55
384.64
387.84
379.66
361.94
337.21
307.83
275.58
241.82
208.17
176.81
150.29
130.53
117.76
110.18
104.62
97.86
87.90
74.49
58.81
42.60
27.34
13.74
1.86
-8.64
-18.17
-27.15
-36.02
-45.16
-54.78
-64.83
-74.91
-84.48
-93.10
-100.56
-106.78
-111.44
-113.66
-111.94
-104.55
-90.20
-68.80
-41.93
-12.65
15.32
38.70
55.63
66.07
71.56
74.51
77.39
82.08
89.77
100.80
114.86
131.04
148.07
164.60
179.48
191.86
201.24
207.31
209.86
208.83
204.45
197.33
188.46
178.87
169.34
160.14
150.96
141.12
129.64
115.43
97.38
74.48
46.14
12.60
-24.70
-63.12
-99.29
-129.92
-152.82
-167.43
-174.95
-177.64
-177.89
-177.24
-176.00
-173.44
-168.45
-160.20
-148.51
-133.89
-117.21
-99.38
-81.13
-62.90
-44.98
-27.55
-10.86
4.73
18.69
30.37
38.98
43.85
44.55
41.23
34.67
26.22
17.46
9.73
3.75
-0.54
-3.80
-6.90
-10.56
-15.09
-20.48
-26.58
-33.30
-40.70
-48.88
-57.75
-66.93
-75.69
-83.04
-87.97
-89.58
-87.30
-81.03
-71.11
-58.35
-43.85
-28.76
-14.11
-0.76
10.65
19.71
26.19
30.13
31.78
31.58
30.08
27.76
24.90
21.56
17.68
13.26
8.57
4.19
0.80
-1.13
-1.65
-1.42
-1.55
-3.13
-6.81
-12.63
-20.08
-28.43
-36.99
-45.18
-52.55
-58.72
-63.43
-66.60
-68.30
-68.61
-67.26
-63.50
-56.19
-44.33
-27.58
-6.67
16.58
39.74
60.46
76.95
88.34
94.67
96.64
95.32
91.87
87.33
82.36
77.32
72.21
66.83
60.99
54.64
47.92
41.16
34.73
28.89
23.67
18.78
13.70
7.73
0.11
-9.80
-22.38
-37.48
-54.30
-71.49
-87.39
-100.37
-109.23
-113.36
-112.69
-107.65
-99.03
-88.11
-76.61
-66.51
-59.71
-57.45
-59.85
-65.81
-73.43
-80.73
-86.52
-90.81
-94.83
-100.63
-110.24
-124.71
-143.35
-163.29
-179.89
-187.93
-183.09
-163.40
-129.62
-84.67
-32.25
24.54
84.18
146.64
212.85
284.13
361.36
444.20
530.03
613.54
687.12
742.68
774.07
779.14
760.20
722.62
672.47
614.53
551.59
485.21
417.02
349.48
285.48
227.38
176.08
130.82
89.89
51.55
14.75
-20.72
-54.41
-85.64
-113.91
-139.50
-163.27
-186.70
-211.29
-238.17
-267.77
-300.17
-335.57
-374.45
-417.01
-462.12
-506.45
-544.74
-571.23
-581.86
-575.90
-556.05
-526.70
-491.66
-452.40
-408.26
-358.27
-303.35
-247.36
-196.26
-155.67
-128.28
-112.35
-102.29
-90.92
-72.19
-43.23
-4.87
39.57
85.86
130.10
168.95
199.00
216.64
218.74
204.36
176.72
143.88
117.22
107.87
122.48
160.15
212.54
266.76
309.84
332.79
332.32
309.92
269.36
214.60
149.43
78.68
9.41
-49.92
-92.17
-114.99
-122.17
-121.71
-121.11
-122.67
-121.94
-110.43
-80.94
-32.42
28.46
90.09
140.92
173.62
186.52
181.83
162.62
130.95
88.08
35.82
-21.97
-79.31
-129.78
-168.12
-191.52
-199.54
-193.56
-176.61
-154.15
-134.56
-128.06
-143.37
-183.18
-241.24
-303.04
-350.78
-370.50
-357.42
-317.09
-261.87
-204.89
-155.06
-115.52
-85.36
-62.48
-45.82
-35.66
-32.62
-37.00
-49.15
-70.53
-104.06
-152.72
-216.72
-291.39
-366.86
-430.69
-472.16
-485.90
-473.06
-439.64
-393.22
-340.05
-283.98
-227.00
-170.44
-115.76
-64.23
-16.21
29.43
75.02
122.78
173.71
226.97
280.30
330.93
376.89
417.80
455.05
491.47
530.34
574.21
623.85
677.39
730.34
776.43
809.28
824.18
819.36
796.18
758.13
709.40
653.67
593.55
530.85
467.17
404.05
342.65
283.33
225.83
170.27
118.44
74.30
43.12
29.18
33.45
52.26
78.00
101.65
115.56
115.73
102.33
78.94
50.86
23.43
0.79
-14.74
-22.78
-24.44
-21.83
-17.30
-12.77
-9.31
-6.76
-3.84
1.29
9.97
21.94
34.80
44.54
47.09
40.15
24.28
2.51
-21.28
-44.31
-65.94
-87.21
-109.38
-132.54
-155.17
-175.04
-190.67
-202.53
-213.12
-226.03
-244.44
-269.67
-300.55
-333.65
-364.25
-387.52
-399.72
-399.00
-385.86
-363.03
-334.96
-306.89
-283.61
-267.97
-259.85
-256.16
-252.07
-243.49
-229.40
-212.77
-199.07
-192.91
-194.36
-197.67
-193.11
-171.97
-131.69
-78.47
-25.61
11.44
21.06
-0.59
-48.97
-113.48
-181.21
-240.29
-281.95
-301.25
-296.78
-269.98
-224.37
-164.74
-96.33
-24.31
46.91
114.41
177.31
236.65
294.64
353.14
412.26
469.57
520.58
559.99
583.32
587.93
573.73
542.96
499.74
449.15
396.02
343.74
293.43
244.10
193.70
140.76
85.61
30.27
-22.50
-70.86
-114.87
-156.45
-198.56
-244.27
-295.89
-354.61
-419.81
-488.44
-554.68
-610.56
-647.94
-661.24
-649.46
-616.46
-569.31
-515.16
-458.66
-401.28
-342.78
-283.77
-227.29
-178.23
-140.83
-115.84
-99.28
-83.79
-61.67
-28.01
17.74
72.01
129.17
183.67
231.31
269.66
297.57
314.84
322.07
320.61
312.46
299.88
284.77
268.45
251.63
234.53
217.09
199.15
180.55
161.39
142.21
123.95
107.62
93.80
82.27
72.00
61.49
49.32
34.64
17.44
-1.54
-20.99
-39.31
-54.91
-66.41
-72.96
-74.41
-71.45
-65.44
-58.03
-50.52
-43.54
-37.07
-30.94
-25.45
-21.67
-20.66
-22.18
-23.74
-20.88
-9.10
13.76
45.79
81.49
114.05
138.12
151.34
154.05
147.67
133.62
113.79
91.74
73.55
66.80
77.66
107.96
153.65
205.98
254.53
290.53
308.87
308.33
290.61
259.05
217.59
170.16
120.31
70.64
22.44
-24.30
-70.43
-116.80
-163.50
-209.44
-252.53
-290.16
-319.96
-340.44
-351.29
-353.19
-347.49
-335.78
-319.65
-300.58
-279.84
-258.37
-236.52
-214.01
-190.08
-163.99
-135.43
-104.80
-73.14
-41.87
-12.50
13.58
35.36
52.41
64.98
74.05
80.93
86.57
90.88
92.39
88.79
78.14
60.11
36.63
11.34
-11.77
-29.99
-42.69
-51.06
-56.86
-61.26
-64.13
-64.48
-61.34
-54.67
-45.46
-35.23
-25.27
-16.11
-7.72
0.13
7.29
13.14
16.81
17.67
15.69
11.44
5.87
-0.07
-5.75
-10.93
-15.61
-19.87
-23.72
-27.05
-29.67
-31.35
-31.94
-31.44
-30.04
-28.23
-26.69
-26.18
-27.34
-30.46
-35.40
-41.52
-47.89
-53.43
-57.20
-58.55
-57.27
-53.54
-47.89
-41.06
-33.82
-26.78
-20.33
-14.69
-10.00
-6.43
-4.12
-3.17
-3.41
-4.41
-5.56
-6.30
-6.29
-5.57
-4.43
-3.31
-2.60
-2.49
-2.97
-3.84
-4.79
-5.56
-6.02
-6.33
-6.80
-7.72
-9.15
-10.76
-12.00
-12.32
-11.41
-9.32
-6.25
-2.42
2.07
7.14
12.54
17.76
22.14
25.14
26.62
26.93
26.70
26.56
26.86
27.56
28.37
28.98
29.24
29.17
28.91
28.55
28.01
27.10
25.57
23.29
20.40
17.21
14.08
11.24
8.68
6.21
3.57
0.60
-2.64
-6.01
-9.26
-12.13
-14.27
-15.24
-14.52
-11.79
-7.04
-0.76
6.24
13.03
18.89
23.46
26.69
28.73
29.76
29.84
28.97
27.17
24.56
21.45
18.34
15.81
14.34
14.18
15.15
16.78
18.35
19.24
19.07
17.82
15.79
13.43
11.17
9.27
7.68
6.12
4.16
1.40
-2.28
-6.58
-10.80
-14.12
-15.83
-15.63
-13.67
-10.38
-6.24
-1.54
3.63
9.26
15.19
21.09
26.44
30.80
33.95
36.08
37.60
38.98
40.43
41.83
42.68
42.47
40.88
38.10
34.76
31.71
29.64
28.73
28.58
28.39
27.30
24.82
21.01
16.33
11.42
6.73
2.44
-1.54
-5.31
-8.82
-11.78
-13.75
-14.40
-13.58
-11.37
-7.98
-3.60
1.63
7.57
13.95
20.29
25.95
30.29
32.88
33.70
33.15
31.83
30.38
29.18
28.35
27.76
27.19
26.52
25.73
24.88
24.01
23.12
22.11
20.93
19.54
18.00
16.40
14.82
13.35
12.05
10.96
10.05
9.16
8.02
6.33
3.95
0.91
-2.48
-5.81
-8.68
-10.80
-11.93
-11.88
-10.43
-7.46
-3.05
2.41
8.20
13.48
17.59
20.20
21.45
21.80
21.73
21.60
21.47
21.24
20.77
20.04
19.20
18.49
18.08
18.04
18.24
18.53
18.74
18.78
18.56
17.93
16.71
14.77
12.15
9.13
6.15
3.49
1.24
-0.88
-3.29
-6.30
-9.88
-13.68
-17.12
-19.61
-20.78
-20.42
-18.46
-14.92
-9.87
-3.63
3.22
9.94
15.77
20.20
23.15
24.87
25.79
26.27
26.45
26.27
25.64
24.48
22.92
21.16
19.52
18.20
17.29
16.78
16.59
16.63
16.80
16.97
16.94
16.44
15.21
13.12
10.29
7.06
3.89
1.17
-0.93
-2.61
-4.25
-6.32
-9.14
-12.77
-16.98
-21.30
-25.14
-27.87
-29.01
-28.21
-25.43
-20.88
-15.07
-8.65
-2.30
3.39
8.05
11.51
13.80
15.05
15.42
15.09
14.24
13.10
11.92
10.96
10.42
10.34
10.60
10.94
11.12
10.95
10.41
9.58
8.55
7.38
6.05
4.51
2.72
0.72
-1.39
-3.48
-5.48
-7.40
-9.35
-11.42
-13.70
-16.16
-18.70
-21.14
-23.17
-24.45
-24.56
-23.12
-19.88
-14.87
-8.49
-1.51
5.16
10.70
14.63
16.93
17.95
18.19
18.05
17.74
17.26
16.56
15.66
14.65
13.69
12.88
12.22
11.62
10.97
10.20
9.37
8.56
7.82
7.10
6.23
4.97
3.13
0.61
-2.52
-6.05
-9.69
-13.14
-16.19
-18.83
-21.12
-23.23
-25.30
-27.40
-29.54
-31.64
-33.56
-35.01
-35.56
-34.72
-32.09
-27.56
-21.49
-14.60
-7.80
-1.78
3.14
7.04
10.21
12.89
15.16
16.88
17.92
18.27
18.16
17.96
18.01
18.51
19.42
20.48
21.34
21.71
21.43
20.55
19.22
17.60
15.80
13.83
11.60
9.10
6.41
3.73
1.28
-0.84
-2.69
-4.50
-6.51
-8.87
-11.52
-14.26
-16.81
-18.93
-20.42
-21.09
-20.67
-18.92
-15.67
-11.05
-5.48
0.31
5.53
9.60
12.28
13.70
14.20
14.11
13.66
12.87
11.76
10.42
9.05
7.98
7.45
7.51
7.98
8.52
8.80
8.69
8.23
7.53
6.66
5.54
4.04
2.05
-0.40
-3.11
-5.89
-8.62
-11.34
-14.18
-17.26
-20.60
-24.12
-27.66
-30.96
-33.70
-35.39
-35.47
-33.51
-29.38
-23.49
-16.65
-9.90
-4.05
0.47
3.72
6.02
7.70
8.92
9.61
9.66
9.05
7.93
6.64
5.51
4.74
4.31
3.98
3.45
2.56
1.36
0.13
-0.77
-1.16
-1.19
-1.37
-2.38
-4.69
-8.26
-12.48
-16.38
-19.03
-20.00
-19.64
-18.93
-19.10
-21.02
-24.80
-29.63
-34.04
-36.42
-35.49
-30.74
-22.74
-13.28
-5.27
-2.03
-6.21
-18.40
-36.25
-54.86
-68.33
-72.17
-65.15
-49.85
-31.43
-15.49
-6.04
-4.37
-9.03
-16.56
-22.53
-22.45
-12.82
7.84
38.12
73.68
108.25
135.48
150.97
153.46
144.73
128.49
108.85
89.11
71.22
55.90
42.97
31.83
21.67
11.79
1.78
-8.26
-17.76
-25.71
-31.03
-32.95
-31.31
-26.67
-20.28
-13.79
-8.85
-6.60
-7.40
-10.70
-15.32
-19.85
-23.12
-24.54
-24.19
-22.64
-20.60
-18.63
-16.98
-15.62
-14.36
-13.07
-11.72
-10.48
-9.56
-9.14
-9.27
-9.87
-10.70
-11.49
-11.98
-12.06
-11.75
-11.28
-10.97
-11.15
-12.08
-13.78
-16.04
-18.42
-20.33
-21.21
-20.63
-18.36
-14.39
-8.98
-2.57
4.18
10.53
15.73
19.15
20.41
19.47
16.63
12.49
7.81
3.37
-0.17
-2.42
-3.30
-3.02
-1.96
-0.58
0.74
1.74
2.34
2.54
2.37
1.87
1.09
0.12
-0.89
-1.82
-2.61
-3.29
-3.99
-4.88
-6.06
-7.56
-9.33
-11.23
-13.00
-14.23
-14.43
-13.05
-9.73
-4.42
2.47
10.12
17.50
23.66
27.94
30.14
30.46
29.36
27.37
24.94
22.37
19.86
17.58
15.71
14.44
13.84
13.84
14.17
14.47
14.42
13.81
12.57
10.79
8.60
6.18
3.70
1.24
-1.16
-3.59
-6.15
-8.98
-12.14
-15.59
-19.22
-22.90
-26.41
-29.48
-31.66
-32.37
-31.11
-27.63
-22.14
-15.40
-8.47
-2.45
1.88
4.29
5.04
4.72
3.98
3.27
2.78
2.53
2.47
2.57
2.89
3.49
4.34
5.29
6.07
6.36
5.96
4.81
3.04
0.93
-1.23
-3.22
-5.03
-6.79
-8.79
-11.34
-14.64
-18.71
-23.30
-27.93
-31.96
-34.71
-35.63
-34.39
-30.95
-25.61
-18.96
-11.78
-4.91
0.90
5.12
7.49
8.09
7.27
5.54
3.45
1.41
-0.28
-1.50
-2.25
-2.57
-2.55
-2.31
-2.01
-1.80
-1.80
-2.03
-2.47
-3.08
-3.86
-4.92
-6.41
-8.52
-11.33
-14.81
-18.78
-22.93
-26.88
-30.20
-32.44
-33.22
-32.26
-29.44
-24.83
-18.68
-11.41
-3.53
4.35
11.59
17.66
22.17
24.96
26.10
25.85
24.57
22.66
20.49
18.40
16.67
15.44
14.75
14.47
14.42
14.42
14.33
14.12
13.82
13.43
12.89
12.05
10.77
8.93
6.51
3.57
0.18
-3.54
-7.48
-11.44
-15.08
-17.99
-19.64
-19.58
-17.57
-13.58
-7.93
-1.13
6.09
13.03
19.05
23.75
26.94
28.60
28.80
27.69
25.46
22.41
18.97
15.63
12.82
10.76
9.40
8.46
7.63
6.64
5.43
4.09
2.70
1.33
-0.04
-1.49
-3.06
-4.79
-6.71
-8.92
-11.54
-14.72
-18.38
-22.18
-25.44
-27.27
-26.88
-23.85
-18.33
-11.05
-3.13
4.22
10.09
14.02
15.97
16.23
15.15
13.03
10.09
6.60
2.88
-0.66
-3.63
-5.76
-7.03
-7.58
-7.69
-7.53
-7.22
-6.74
-6.06
-5.24
-4.43
-3.85
-3.74
-4.34
-5.82
-8.22
-11.44
-15.20
-19.04
-22.39
-24.68
-25.45
-24.39
-21.41
-16.61
-10.29
-2.98
4.67
11.93
18.12
22.80
25.82
27.25
27.27
26.07
23.86
20.84
17.33
13.78
10.66
8.35
6.98
6.41
6.31
6.32
6.19
5.85
5.36
4.80
4.16
3.26
1.82
-0.46
-3.71
-7.86
-12.60
-17.42
-21.73
-24.88
-26.25
-25.33
-21.89
-16.05
-8.40
0.07
8.21
14.94
19.60
22.01
22.45
21.50
19.73
17.63
15.48
13.39
11.45
9.75
8.44
7.64
7.36
7.45
7.58
7.37
6.58
5.16
3.30
1.33
-0.44
-1.93
-3.32
-4.94
-7.15
-10.10
-13.68
-17.44
-20.75
-22.93
-23.46
-22.09
-18.88
-14.11
-8.23
-1.74
4.76
10.65
15.24
17.97
18.56
17.17
14.37
11.01
7.93
5.69
4.46
4.03
3.99
3.96
3.74
3.25
2.52
1.62
0.57
-0.58
-1.75
-2.86
-3.87
-4.79
-5.73
-6.80
-8.01
-9.25
-10.44
-11.67
-13.30
-15.75
-19.14
-23.12
-26.94
-29.78
-31.20
-31.35
-30.72
-29.72
-28.36
-26.23
-22.92
-18.45
-13.51
-9.12
-6.06
-4.38
-3.32
-1.81
0.92
4.82
9.18
12.99
15.39
16.06
15.07
12.64
8.90
3.85
-2.37
-9.31
-16.04
-21.34
-24.09
-23.66
-20.25
-14.94
-9.34
-5.14
-3.47
-4.37
-6.65
-8.18
-6.69
-0.55
10.52
25.30
41.49
56.30
67.25
72.69
71.95
65.51
54.82
41.60
26.95
10.65
-8.95
-33.87
-65.18
-101.83
-140.18
-174.58
-199.03
-209.08
-203.13
-183.06
-153.13
-119.05
-86.69
-60.53
-42.07
-30.14
-21.80
-13.88
-5.21
4.02
11.78
14.85
11.28
2.95
-4.99
-6.00
4.88
27.05
56.97
88.00
112.23
123.97
122.40
109.78
89.44
64.05
33.28
0.24
-29.96
-52.01
-60.64
-51.06
-21.95
23.84
79.87
135.52
185.64
230.00
271.83
300.59
308.06
292.27
260.60
244.87
247.91
264.22
287.80
302.18
299.25
278.30
243.90
204.15
167.54
137.04
115.31
102.13
94.26
89.44
87.91
91.11
99.82
112.36
122.50
126.53
123.41
114.24
102.98
94.62
92.91
99.12
111.94
126.96
141.37
153.59
162.58
168.57
172.36
174.91
177.09
179.47
181.58
183.59
185.65
187.36
188.07
186.62
181.57
171.47
155.29
132.42
103.39
69.74
33.74
-1.76
-33.85
-60.18
-79.62
-92.67
-101.41
-108.88
-118.07
-130.99
-148.11
-168.52
-190.61
-212.81
-234.22
-254.61
-274.22
-293.33
-312.04
-330.36
-348.49
-366.87
-385.99
-405.77
-424.96
-440.93
-450.22
-449.53
-436.91
-412.52
-378.66
-339.02
-297.77
-258.66
-224.51
-197.04
-176.80
-162.87
-152.71
-142.21
-126.42
-100.93
-63.46
-15.02
39.93
94.41
140.84
172.98
187.43
184.02
165.32
135.48
99.07
60.27
22.34
-12.44
-43.04
-69.64
-93.56
-116.89
-141.76
-169.61
-200.65
-233.83
-267.27
-299.16
-328.44
-355.21
-380.72
-407.17
-437.26
-473.27
-515.72
-562.01
-605.91
-638.63
-651.46
-639.09
-601.81
-545.61
-479.80
-413.61
-353.25
-301.02
-256.28
-217.41
-183.29
-153.61
-128.09
-105.66
-84.21
-61.25
-34.91
-4.67
28.72
63.75
99.31
135.36
173.02
213.79
258.20
304.46
348.20
383.42
404.82
410.11
400.98
382.35
360.13
339.03
321.75
309.81
304.94
309.29
324.23
348.33
376.49
401.17
415.38
415.31
401.07
375.00
339.14
293.92
239.24
176.97
112.73
55.29
13.65
-6.78
-6.30
9.43
32.19
54.63
72.49
84.79
92.43
96.34
96.46
91.94
82.37
69.06
55.39
45.83
44.11
51.46
66.09
84.16
101.83
116.80
128.69
137.92
143.92
144.03
133.96
109.67
69.81
17.19
-41.61
-98.22
-145.31
-178.62
-197.46
-203.73
-200.31
-189.81
-174.07
-154.62
-132.96
-110.63
-88.69
-67.14
-44.83
-20.15
7.91
38.86
70.55
99.84
123.67
140.01
148.38
149.76
145.85
138.38
128.67
117.56
105.72
93.87
82.92
73.70
66.55
61.03
56.03
50.32
43.25
35.24
27.69
22.36
20.50
22.18
26.26
30.90
34.32
35.51
34.27
31.03
26.30
20.50
14.08
7.87
3.12
1.27
3.28
9.01
17.10
25.45
32.02
35.65
36.24
34.52
31.37
27.38
22.72
17.45
11.83
6.58
2.64
0.76
1.07
2.91
5.11
6.38
5.90
3.57
-0.03
-4.00
-7.61
-10.59
-13.09
-15.46
-18.02
-20.79
-23.56
-26.11
-28.30
-30.15
-31.74
-33.02
-33.75
-33.59
-32.26
-29.72
-26.29
-22.50
-18.95
-16.09
-14.10
-12.95
-12.49
-12.58
-13.16
-14.23
-15.73
-17.47
-19.16
-20.47
-21.13
-21.08
-20.45
-19.49
-18.44
-17.40
-16.32
-15.12
-13.70
-12.11
-10.54
-9.27
-8.63
-8.99
-10.63
-13.71
-18.13
-23.43
-28.82
-33.37
-36.28
-37.13
-35.99
-33.34
-29.85
-26.18
-22.77
-19.86
-17.52
-15.71
-14.37
-13.38
-12.64
-12.01
-11.35
-10.60
-9.73
-8.82
-8.03
-7.61
-7.84
-8.88
-10.66
-12.84
-14.83
-16.06
-16.20
-15.33
-13.91
-12.59
-11.94
-12.21
-13.41
-15.30
-17.63
-20.18
-22.71
-24.92
-26.43
-26.83
-25.86
-23.52
-20.06
-15.86
-11.42
-7.10
-3.17
0.25
3.10
5.38
7.04
8.03
8.24
7.62
6.26
4.37
2.31
0.50
-0.77
-1.43
-1.60
-1.57
-1.62
-1.88
-2.33
-2.85
-3.31
-3.66
-4.05
-4.66
-5.66
-7.15
-9.10
-11.38
-13.78
-16.03
-17.81
-18.76
-18.57
-17.09
-14.39
-10.80
-6.76
-2.70
1.03
4.24
6.87
8.91
10.35
11.21
11.48
11.22
10.51
9.49
8.29
7.03
5.81
4.70
3.78
3.07
2.58
2.22
1.78
1.03
-0.22
-1.99
-4.07
-6.12
-7.78
-8.93
-9.75
-10.63
-12.00
-14.04
-16.58
-19.12
-21.03
-21.83
-21.30
-19.53
-16.74
-13.22
-9.16
-4.76
-0.28
3.96
7.55
10.21
11.84
12.58
12.74
12.62
12.40
12.14
11.75
11.15
10.30
9.29
8.27
7.42
6.85
6.60
6.53
6.41
6.00
5.10
3.68
1.81
-0.31
-2.53
-4.72
-6.90
-9.17
-11.69
-14.52
-17.61
-20.70
-23.34
-25.02
-25.29
-23.89
-20.88
-16.61
-11.66
-6.63
-1.96
2.08
5.50
8.39
10.87
12.88
14.31
14.99
14.90
14.22
13.26
12.39
11.80
11.50
11.31
11.00
10.48
9.80
9.10
8.49
7.98
7.41
6.58
5.35
3.68
1.67
-0.57
-2.92
-5.37
-7.91
-10.63
-13.59
-16.77
-20.04
-23.10
-25.47
-26.66
-26.25
-24.08
-20.30
-15.34
-9.73
-3.98
1.55
6.65
11.20
15.06
18.11
20.22
21.37
21.69
21.43
20.85
20.17
19.44
18.61
17.62
16.50
15.40
14.48
13.81
13.28
12.57
11.35
9.41
6.85
4.00
1.28
-1.08
-3.09
-5.04
-7.28
-9.99
-13.13
-16.39
-19.34
-21.64
-22.99
-23.23
-22.27
-20.08
-16.68
-12.23
-6.99
-1.30
4.39
9.68
14.19
17.71
20.13
21.53
22.10
22.07
21.64
20.94
20.01
18.88
17.55
16.04
14.37
12.59
10.75
8.94
7.25
5.75
4.41
3.17
1.91
0.54
-0.94
-2.51
-4.14
-5.93
-8.04
-10.66
-13.83
-17.38
-20.89
-23.78
-25.48
-25.50
-23.64
-20.00
-14.91
-8.88
-2.55
3.46
8.62
12.60
15.36
17.02
17.88
18.20
18.13
17.73
17.02
16.06
14.99
13.99
13.16
12.45
11.73
10.81
9.56
7.96
6.11
4.15
2.23
0.39
-1.37
-3.17
-5.18
-7.54
-10.33
-13.48
-16.78
-19.93
-22.55
-24.26
-24.77
-23.90
-21.61
-18.02
-13.46
-8.35
-3.15
1.79
6.22
10.05
13.25
15.78
17.56
18.51
18.60
17.96
16.81
15.43
14.04
12.79
11.68
10.69
9.77
8.90
8.06
7.22
6.28
5.17
3.80
2.20
0.42
-1.49
-3.52
-5.80
-8.44
-11.57
-15.13
-18.85
-22.27
-24.84
-26.06
-25.63
-23.51
-19.92
-15.28
-10.05
-4.67
0.53
5.35
9.69
13.46
16.52
18.73
19.93
20.12
19.43
18.16
16.69
15.27
14.03
12.99
12.13
11.42
10.84
10.32
9.68
8.69
7.22
5.28
3.09
0.96
-0.88
-2.47
-4.10
-6.21
-9.12
-12.91
-17.26
-21.50
-24.83
-26.52
-26.14
-23.68
-19.46
-14.06
-8.08
-2.04
3.68
8.78
13.03
16.27
18.45
19.62
19.99
19.80
19.27
18.54
17.64
16.57
15.34
13.98
12.60
11.28
10.08
8.98
7.86
6.60
5.07
3.24
1.13
-1.16
-3.61
-6.24
-9.19
-12.55
-16.32
-20.29
-24.04
-27.07
-28.85
-29.01
-27.39
-24.06
-19.33
-13.60
-7.37
-1.15
4.58
9.43
13.14
15.59
16.87
17.23
17.02
16.61
16.27
16.12
16.10
16.02
15.67
14.94
13.83
12.49
11.08
9.76
8.53
7.30
5.92
4.22
2.17
-0.24
-2.97
-6.00
-9.33
-12.91
-16.61
-20.12
-23.02
-24.81
-25.07
-23.54
-20.21
-15.35
-9.43
-3.07
3.14
8.73
13.38
16.93
19.29
20.45
20.47
19.51
17.89
16.00
14.22
12.81
11.83
11.15
10.46
9.47
7.96
5.92
3.52
1.04
-1.25
-3.22
-4.96
-6.67
-8.66
-11.15
-14.26
-17.91
-21.84
-25.61
-28.64
-30.32
-30.11
-27.73
-23.29
-17.24
-10.36
-3.47
2.77
7.98
12.08
15.19
17.49
19.07
19.93
20.05
19.45
18.31
16.91
15.54
14.41
13.50
12.65
11.67
10.39
8.82
7.06
5.19
3.26
1.15
-1.29
-4.21
-7.64
-11.47
-15.52
-19.58
-23.43
-26.88
-29.67
-31.44
-31.82
-30.48
-27.24
-22.18
-15.64
-8.21
-0.61
6.46
12.38
16.82
19.65
21.05
21.32
20.79
19.81
18.60
17.37
16.23
15.28
14.48
13.76
12.88
11.64
9.90
7.71
5.25
2.82
0.62
-1.31
-3.17
-5.29
-8.00
-11.45
-15.48
-19.67
-23.43
-26.13
-27.27
-26.55
-23.95
-19.58
-13.76
-6.98
0.21
7.19
13.37
18.34
21.90
24.08
25.10
25.26
24.85
24.10
23.18
22.19
21.21
20.29
19.50
18.90
18.51
18.32
18.28
18.22
18.02
17.54
16.76
15.75
14.67
13.65
12.79
12.08
11.57
11.41
11.93
13.69
17.24
22.98
30.98
40.96
52.44
64.87
77.81
90.93
104.03
116.87
129.14
140.46
150.43
158.92
166.20
172.91
180.00
188.47
199.08
212.19
227.75
245.44
264.81
285.44
306.65
327.19
345.01
357.25
360.71
352.86
332.92
302.44
265.16
225.80
188.67
156.74
131.45
113.12
101.25
94.58
90.84
87.03
80.09
67.96
50.26
27.95
2.03
-27.75
-63.52
-108.27
-163.81
-228.74
-297.36
-360.68
-408.92
-434.84
-436.60
-419.01
-392.61
-370.77
-365.66
-384.22
-425.64
-481.46
-538.04
-580.58
-597.33
-582.34
-536.44
-466.60
-384.09
-301.97
-232.17
-182.65
-155.46
-146.63
-148.25
-151.93
-152.18
-147.92
-141.67
-136.85
-135.10
-135.05
-133.26
-126.64
-114.30
-98.19
-82.09
-69.73
-63.33
-62.95
-66.85
-72.73
-78.92
-85.06
-92.08
-101.08
-112.00
-122.89
-130.54
-132.23
-127.70
-119.76
-113.12
-112.00
-117.98
-129.31
-142.03
-152.14
-157.27
-157.13
-152.79
-145.68
-136.95
-127.26
-116.99
-105.99
-93.37
-77.50
-56.41
-28.64
6.03
46.27
89.65
133.29
174.45
210.86
240.65
262.50
275.80
280.90
279.06
272.06
261.69
249.41
236.30
223.40
211.89
202.84
196.72
192.92
189.81
185.44
178.64
169.81
160.89
154.61
153.10
156.71
163.81
171.38
176.29
176.55
171.87
163.38
152.93
142.17
132.25
123.84
117.40
113.18
111.09
110.47
110.09
108.54
104.81
98.71
90.84
82.13
73.48
65.56
58.98
54.38
52.23
52.20
52.73
51.22
45.00
32.73
15.56
-3.08
-18.66
-27.30
-26.99
-18.17
-3.49
12.79
25.84
31.36
26.90
12.84
-7.39
-28.32
-44.53
-52.84
-53.72
-51.03
-50.25
-56.14
-70.87
-93.45
-120.42
-147.27
-169.90
-185.67
-193.87
-195.69
-193.78
-191.22
-190.68
-193.93
-201.65
-213.55
-228.68
-245.38
-261.27
-273.19
-277.72
-272.09
-255.26
-228.55
-195.30
-159.78
-125.66
-94.86
-67.36
-41.90
-17.26
6.83
29.52
49.39
65.46
77.94
88.26
98.52
110.57
125.17
141.69
158.25
172.36
181.66
184.51
180.33
169.69
154.07
135.54
116.25
97.98
81.83
68.14
56.73
47.28
39.80
34.99
34.07
38.29
48.32
63.61
82.27
101.50
118.43
130.88
137.81
139.27
135.92
128.57
117.89
104.46
88.93
72.07
54.73
37.70
21.44
6.14
-8.23
-21.74
-34.31
-45.71
-55.56
-63.52
-69.47
-73.69
-76.77
-79.27
-81.33
-82.28
-80.62
-74.45
-62.23
-43.49
-19.23
8.27
36.04
61.30
82.01
97.21
106.84
111.38
111.50
107.88
101.16
92.02
81.23
69.57
57.76
46.31
35.55
25.55
16.33
7.91
0.43
-5.90
-10.85
-14.40
-16.88
-18.98
-21.63
-25.65
-31.42
-38.59
-46.17
-52.87
-57.51
-59.41
-58.49
-55.06
-49.61
-42.57
-34.33
-25.39
-16.34
-7.85
-0.49
5.42
9.87
12.97
14.80
15.29
14.36
12.13
9.06
5.89
3.35
1.77
0.96
0.29
-0.88
-2.81
-5.26
-7.65
-9.41
-10.42
-11.02
-11.98
-14.09
-17.90
-23.50
-30.42
-37.68
-43.92
-47.61
-47.46
-42.72
-33.47
-20.53
-5.23
10.99
26.88
41.51
54.11
64.03
70.66
73.67
73.24
70.16
65.67
61.10
57.41
54.90
53.22
51.62
49.33
45.94
41.50
36.42
31.20
26.25
21.68
17.37
13.11
8.75
4.21
-0.45
-5.08
-9.38
-12.95
-15.26
-15.69
-13.65
-8.78
-1.10
8.91
20.34
32.01
42.68
51.24
56.84
59.00
57.58
52.80
45.18
35.55
24.93
14.45
5.09
-2.52
-8.26
-12.52
-15.92
-19.10
-22.47
-26.18
-30.17
-34.32
-38.52
-42.70
-46.77
-50.60
-54.02
-56.83
-58.76
-59.51
-58.64
-55.65
-50.21
-42.22
-32.05
-20.45
-8.32
3.52
14.48
24.22
32.48
39.06
43.77
46.63
48.01
48.63
49.40
51.06
53.93
57.77
61.87
65.30
67.24
67.14
64.87
60.72
55.27
49.20
43.05
37.00
30.82
23.91
15.59
5.39
-6.77
-20.42
-34.59
-47.90
-58.78
-65.77
-67.90
-65.00
-57.78
-47.59
-36.07
-24.63
-14.27
-5.48
1.52
6.64
9.85
11.25
11.15
10.07
8.52
6.85
4.99
2.51
-1.25
-6.78
-14.12
-22.73
-31.55
-39.25
-44.62
-46.92
-46.09
-42.74
-37.93
-32.89
-28.72
-26.12
-25.22
-25.55
-26.09
-25.51
-22.41
-15.78
-5.29
8.60
24.72
41.47
57.24
70.65
80.77
87.06
89.34
87.66
82.35
74.00
63.43
51.63
39.60
28.21
18.06
9.46
2.39
-3.40
-8.32
-12.77
-17.01
-21.05
-24.68
-27.64
-29.78
-31.25
-32.45
-33.95
-36.19
-39.23
-42.72
-45.89
-47.87
-47.87
-45.41
-40.36
-32.96
-23.71
-13.30
-2.53
7.85
17.21
25.17
31.52
36.15
39.00
39.97
39.04
36.40
32.51
28.03
23.65
19.82
16.74
14.28
12.31
10.75
9.68
9.21
9.27
9.58
9.60
8.74
6.51
2.66
-2.77
-9.52
-17.09
-24.83
-31.94
-37.58
-40.88
-41.22
-38.33
-32.33
-23.82
-13.61
-2.67
8.16
18.18
26.88
33.92
39.05
42.28
43.87
44.44
44.91
46.27
49.29
54.22
60.75
68.04
74.99
80.61
84.21
85.69
85.44
84.22
82.95
82.31
82.49
82.96
82.68
80.43
75.43
67.80
58.66
49.70
42.49
37.68
34.67
31.83
27.21
19.44
8.26
-5.53
-20.65
-35.89
-50.37
-63.24
-73.43
-79.95
-82.71
-83.37
-85.61
-93.86
-111.27
-137.74
-169.39
-199.77
-222.32
-232.69
-229.75
-215.17
-192.00
-163.43
-132.23
-100.81
-71.57
-46.79
-28.34
-17.30
-13.72
-16.73
-24.67
-35.33
-46.21
-54.83
-59.08
-57.53
-49.59
-35.15
-14.36
12.49
44.72
80.80
117.97
152.58
180.97
200.66
211.17
214.02
211.86
207.20
201.48
194.87
186.92
177.33
166.55
155.62
145.56
136.72
128.56
120.00
109.96
97.64
82.69
65.03
44.70
21.93
-2.69
-28.22
-53.51
-77.69
-100.43
-122.10
-143.40
-164.74
-185.81
-205.42
-221.93
-234.00
-241.31
-244.74
-245.98
-246.50
-246.70
-245.51
-240.85
-230.72
-214.31
-192.53
-167.64
-142.29
-118.55
-97.50
-79.44
-64.58
-53.43
-46.74
-45.01
-47.95
-54.42
-62.98
-72.61
-83.23
-95.43
-109.78
-125.92
-142.24
-156.12
-164.86
-166.68
-161.34
-150.31
-136.25
-122.31
-111.38
-105.49
-105.41
-110.49
-118.77
-127.41
-133.55
-135.12
-131.69
-124.50
-115.93
-108.36
-102.86
-98.50
-92.38
-80.77
-60.54
-30.57
7.67
50.37
92.37
128.68
155.88
173.30
183.43
191.52
204.19
227.58
265.66
319.05
384.71
456.43
525.97
584.62
624.93
642.38
636.45
610.66
571.67
527.54
486.13
453.67
433.82
426.93
429.67
435.38
435.38
421.28
387.40
332.35
258.97
172.74
79.85
-14.09
-104.42
-187.01
-258.20
-315.54
-358.78
-390.19
-413.58
-432.41
-448.14
-460.02
-466.03
-464.47
-455.07
-438.96
-417.42
-390.66
-357.24
-314.72
-261.29
-196.43
-121.56
-40.11
42.90
121.91
191.89
249.69
294.03
324.38
340.89
343.42
331.10
302.38
256.41
193.89
118.65
36.73
-45.72
-122.12
-186.93
-236.75
-272.24
-297.46
-319.05
-341.97
-367.69
-394.27
-414.83
-419.97
-401.15
-355.03
-283.91
-194.88
-94.69
17.08
132.67
239.72
327.70
393.75
439.59
475.00
499.68
509.34
499.46
467.17
414.92
344.95
268.19
197.46
143.22
109.33
94.38
92.10
92.91
88.58
74.03
47.76
9.03
-42.21
-104.91
-173.38
-237.17
-283.36
-299.49
-278.33
-220.72
-136.94
-42.95
44.61
114.16
160.58
183.48
185.24
168.99
138.29
96.43
47.06
-6.38
-61.00
-115.28
-168.88
-221.23
-270.39
-312.43
-342.97
-358.88
-359.74
-347.97
-328.09
-305.25
-283.90
-267.06
-256.13
-251.26
-251.55
-255.24
-260.01
-263.52
-264.32
-262.35
-258.97
-256.21
-255.76
-258.15
-262.10
-264.75
-262.28
-250.85
-227.59
-191.32
-142.60
-83.38
-16.45
54.71
125.73
191.07
244.48
280.59
297.15
296.76
286.76
276.81
275.18
285.42
305.31
328.67
348.55
360.18
362.04
354.92
340.10
318.14
289.06
253.47
213.57
173.13
136.39
106.33
83.58
66.45
51.88
36.88
19.61
-0.39
-22.53
-45.91
-69.81
-93.93
-118.19
-142.44
-166.07
-187.91
-206.20
-218.81
-223.68
-219.33
-205.39
-182.93
-154.43
-123.34
-93.43
-67.90
-48.72
-36.34
-29.85
-27.51
-27.51
-28.46
-29.63
-30.66
-31.30
-31.09
-29.51
-26.27
-21.64
-16.54
-12.23
-9.67
-9.07
-9.69
-10.19
-9.20
-5.80
0.14
8.13
17.39
27.13
36.77
45.93
54.31
61.53
67.04
70.12
70.00
66.01
57.87
45.85
30.84
14.25
-2.33
-17.66
-31.25
-43.50
-55.41
-68.06
-82.06
-97.27
-112.90
-127.95
-141.65
-153.60
-163.77
-172.25
-179.16
-184.56
-188.44
-190.59
-190.32
-186.26
-176.53
-159.06
-132.28
-95.60
-49.52
4.56
64.70
128.57
193.40
255.94
312.56
359.83
395.22
417.78
428.26
428.57
420.92
406.81
386.75
360.62
328.72
292.75
256.39
224.77
203.04
194.56
199.57
214.66
233.64
249.01
253.67
242.29
212.17
163.93
101.85
33.67
-30.73
-81.68
-112.69
-122.68
-116.37
-102.54
-90.88
-88.99
-100.65
-125.88
-162.20
-205.83
-252.49
-297.40
-335.40
-361.31
-370.88
-361.85
-334.31
-290.23
-232.60
-164.43
-88.62
-8.41
71.92
146.93
210.59
257.73
285.45
293.70
284.90
262.60
230.22
190.33
144.92
96.09
46.59
-0.38
-41.90
-76.12
-102.64
-122.16
-135.71
-144.08
-147.62
-146.49
-141.09
-132.53
-122.46
-112.86
-105.44
-101.18
-100.15
-101.57
-104.25
-107.04
-109.19
-110.38
-110.58
-109.83
-108.13
-105.49
-102.08
-98.30
-94.60
-91.33
-88.46
-85.65
-82.38
-78.24
-73.21
-67.67
-62.25
-57.54
-53.70
-50.18
-45.61
-38.12
-25.96
-8.23
14.69
41.44
70.53
101.19
133.58
167.97
203.61
237.90
266.93
287.12
297.09
298.55
295.59
292.59
291.99
293.07
292.41
285.60
269.20
241.94
204.71
159.79
109.88
57.41
4.40
-47.53
-97.06
-143.38
-186.50
-227.70
-269.63
-315.45
-367.03
-422.95
-477.37
-520.90
-543.49
-538.25
-504.33
-447.50
-377.86
-306.09
-240.03
-183.30
-136.00
-96.49
-63.13
-34.94
-11.53
7.20
21.19
30.23
34.21
33.68
30.23
26.08
23.31
22.84
24.24
26.36
28.53
31.40
36.66
45.80
58.72
73.32
86.35
94.96
98.08
96.55
92.34
87.11
81.41
74.81
66.88
58.10
50.13
45.18
44.93
49.64
58.00
67.85
77.12
84.62
90.10
93.83
96.12
96.97
96.19
93.67
89.61
84.40
78.60
72.70
67.17
62.42
58.94
57.15
57.22
58.85
61.16
62.86
62.65
59.60
53.56
45.08
35.14
24.76
14.64
5.14
-3.52
-10.99
-16.70
-20.09
-20.91
-19.52
-16.80
-13.77
-11.14
-8.95
-6.77
-3.93
-0.10
4.48
9.03
12.47
13.85
12.69
9.08
3.63
-2.81
-9.41
-15.58
-21.05
-25.84
-30.08
-33.90
-37.34
-40.39
-43.10
-45.73
-48.70
-52.56
-57.67
-63.98
-70.91
-77.49
-82.56
-85.12
-84.41
-79.83
-70.78
-56.75
-37.55
-13.78
12.90
39.88
64.08
82.78
94.28
98.28
95.68
88.23
77.95
66.71
56.08
47.13
40.44
35.98
33.18
31.03
28.40
24.38
18.68
11.74
4.57
-1.57
-5.60
-6.78
-4.92
-0.29
6.25
13.16
18.35
19.65
15.57
5.98
-7.53
-22.08
-34.52
-42.54
-45.37
-43.76
-39.29
-33.48
-27.37
-21.47
-16.15
-11.83
-9.01
-7.90
-8.03
-8.22
-6.98
-3.20
3.21
11.15
18.68
23.83
25.37
23.33
18.80
13.39
8.45
4.53
1.31
-2.07
-6.32
-11.51
-16.97
-21.63
-24.55
-25.36
-24.32
-21.99
-18.88
-15.16
-10.68
-5.36
0.55
6.39
11.36
14.92
17.08
18.35
19.35
20.32
20.93
20.40
17.99
13.51
7.57
1.38
-3.71
-6.76
-7.50
-6.31
-3.98
-1.35
0.79
1.75
0.94
-2.15
-7.65
-15.08
-23.35
-30.85
-35.93
-37.34
-34.53
-27.81
-18.09
-6.63
5.28
16.56
26.50
34.78
41.41
46.62
50.62
53.48
54.95
54.56
51.86
46.74
39.73
31.95
24.91
20.03
18.24
19.83
24.36
30.84
37.85
43.83
47.22
46.87
42.28
33.86
22.81
10.90
-0.15
-9.14
-15.64
-19.88
-22.39
-23.56
-23.38
-21.41
-17.17
-10.51
-1.86
7.73
16.98
24.99
31.62
37.53
43.71
50.84
58.68
66.09
71.48
73.65
72.44
68.94
65.01
62.57
62.79
65.61
69.82
73.48
74.58
71.73
64.50
53.72
41.42
30.55
24.19
24.48
31.32
41.77
50.20
49.59
33.66
-1.09
-54.13
-120.92
-193.88
-264.18
-323.25
-364.04
-381.93
-375.08
-344.40
-292.89
-224.79
-145.03
-59.22
25.71
101.17
157.74
187.53
187.06
159.33
113.24
60.57
11.48
-28.85
-60.70
-87.36
-111.66
-133.91
-152.55
-166.60
-177.81
-190.39
-208.22
-231.39
-254.94
-270.71
-271.77
-256.59
-230.27
-201.93
-179.83
-167.24
-161.15
-154.74
-141.52
-118.39
-86.37
-48.79
-8.87
31.79
72.95
114.53
155.42
193.35
225.55
249.85
265.23
271.80
270.53
262.79
250.24
234.77
218.45
203.32
191.21
183.67
181.74
185.62
194.35
205.55
215.84
221.83
221.28
213.85
201.07
185.44
169.35
154.33
141.05
129.55
119.58
110.79
102.72
94.85
86.69
78.06
69.22
60.79
53.65
48.57
45.96
45.64
46.87
48.54
49.66
49.59
48.39
46.67
45.29
44.98
45.99
47.93
49.80
50.12
47.41
40.82
30.85
19.81
11.50
9.99
17.70
34.00
54.83
74.20
86.54
88.84
81.33
66.73
48.49
29.23
10.23
-8.27
-26.41
-44.37
-62.60
-81.96
-103.35
-127.11
-152.15
-176.00
-195.74
-209.44
-217.12
-220.83
-223.46
-227.31
-232.99
-239.35
-244.29
-245.95
-243.72
-238.54
-232.57
-228.25
-227.35
-230.27
-235.70
-240.87
-242.40
-237.45
-224.81
-205.48
-182.32
-159.17
-139.44
-125.09
-116.20
-111.40
-108.69
-106.09
-102.12
-95.68
-85.96
-72.39
-54.71
-32.84
-6.56
24.87
62.46
106.47
155.23
204.61
248.66
281.73
300.69
306.43
303.31
297.19
292.80
292.10
294.17
296.53
296.73
293.48
286.65
276.65
263.74
247.93
229.32
208.57
187.11
166.84
149.49
135.88
125.64
117.49
109.86
101.55
92.08
81.78
71.60
62.71
56.34
53.36
54.16
58.37
64.88
71.93
77.34
78.85
74.47
62.90
43.92
18.55
-11.19
-42.82
-74.11
-103.54
-130.36
-154.28
-175.06
-192.36
-205.89
-215.73
-222.44
-226.88
-229.80
-231.47
-231.60
-229.61
-225.02
-217.78
-208.27
-197.26
-185.69
-174.47
-164.26
-155.31
-147.35
-139.68
-131.37
-121.56
-109.59
-95.16
-78.35
-59.75
-40.31
-21.16
-3.07
14.15
31.82
52.00
76.38
105.21
136.53
166.53
190.73
205.57
209.51
203.36
189.63
171.33
151.02
130.21
109.56
89.28
69.60
51.03
34.26
20.04
8.84
0.75
-4.50
-7.41
-8.43
-7.84
-5.78
-2.32
2.31
7.52
12.37
15.79
16.93
15.57
12.30
8.46
5.52
4.41
5.06
6.33
6.58
4.50
-0.10
-6.05
-11.13
-12.84
-9.38
-0.24
13.64
30.11
46.43
60.03
69.15
73.00
71.69
65.67
55.20
40.12
20.02
-5.26
-34.99
-67.38
-99.81
-129.39
-153.57
-170.33
-178.30
-176.71
-165.67
-146.53
-121.99
-95.64
-70.82
-49.36
-30.93
-13.38
6.13
29.75
58.11
90.32
124.66
159.32
192.65
223.01
248.54
267.13
276.97
277.24
268.52
252.75
232.59
210.70
189.06
168.72
149.82
132.04
114.93
98.42
82.90
69.27
58.56
51.66
48.99
50.40
55.27
62.65
71.50
80.85
90.08
98.85
107.10
114.67
121.06
125.13
125.26
119.77
107.54
88.47
63.55
34.38
2.56
-30.95
-65.97
-102.94
-142.47
-184.83
-229.71
-276.02
-322.02
-365.52
-404.38
-437.21
-464.21
-487.44
-510.65
-538.10
-572.85
-615.20
-662.02
-707.56
-745.41
-770.81
-782.01
-780.17
-767.94
-747.74
-720.74
-687.02
-646.64
-600.74
-551.79
-502.85
-456.28
-412.76
-371.03
-328.82
-283.99
-235.56
-183.93
-130.49
-76.70
-23.52
28.96
81.35
134.47
188.96
245.09
302.86
362.20
422.82
483.71
542.77
596.65
641.42
673.87
692.75
699.36
697.04
689.86
681.07
672.34
663.91
655.42
646.81
638.57
631.42
625.50
619.83
612.40
600.65
582.17
555.22
519.11
474.40
423.00
368.19
314.42
266.72
229.71
206.39
197.06
198.92
206.47
212.89
211.72
198.56
171.97
133.31
85.87
33.55
-20.17
-72.79
-122.71
-168.92
-210.74
-247.93
-280.91
-310.98
-340.20
-370.87
-404.42
-440.56
-476.84
-509.09
-532.70
-544.08
-541.78
-526.45
-500.32
-466.26
-427.09
-385.17
-342.38
-300.10
-259.18
-220.10
-183.11
-148.50
-116.56
-87.28
-59.90
-32.86
-4.30
26.81
59.88
92.66
122.22
146.32
164.23
176.47
183.70
185.64
180.94
168.03
146.47
117.88
85.84
54.64
27.84
7.21
-7.25
-16.60
-22.06
-24.53
-24.74
-23.67
-22.86
-24.04
-28.42
-35.69
-43.59
-48.56
-47.23
-38.37
-24.33
-10.90
-5.41
-13.75
-37.75
-74.19
-116.19
-156.06
-188.40
-211.55
-227.00
-237.34
-244.21
-247.62
-246.87
-242.02
-234.87
-228.49
-225.49
-226.33
-228.52
-227.56
-219.07
-201.09
-175.24
-146.32
-120.50
-102.86
-95.55
-97.19
-103.79
-110.74
-114.87
-115.67
-115.17
-116.53
-122.32
-133.29
-148.16
-164.54
-180.17
-193.79
-205.34
-215.53
-225.25
-235.04
-244.79
-253.70
-260.38
-263.11
-260.36
-251.21
-235.66
-214.66
-189.70
-162.28
-133.66
-105.01
-77.79
-54.01
-36.02
-25.66
-23.41
-27.75
-35.19
-41.16
-41.30
-32.78
-14.92
10.95
42.45
77.21
113.63
151.26
190.35
231.12
273.06
315.05
356.20
396.77
437.86
480.13
522.92
562.96
594.75
611.87
609.16
584.89
542.21
488.19
431.92
383.21
350.06
336.79
342.01
358.18
373.29
375.32
355.11
308.67
239.47
157.22
75.96
10.51
-26.78
-28.73
6.79
75.66
159.95
236.30
283.28
292.99
273.99
242.68
211.74
187.24
169.09
154.56
142.25
131.47
121.33
109.10
95.35
74.31
44.30
8.11
-29.22
-62.03
-86.91
-102.48
-109.74
-111.39
-111.40
-112.21
-115.45
-122.39
-129.69
-134.40
-133.51
-125.25
-109.93
-90.16
-68.63
-47.69
-28.70
-11.43
5.02
22.18
41.16
61.99
83.17
102.87
118.98
129.46
132.98
128.90
117.96
102.07
83.61
64.33
44.97
24.54
0.62
-29.74
-69.13
-118.50
-176.84
-241.34
-308.11
-372.60
-430.24
-476.83
-508.88
-524.24
-522.40
-504.87
-475.15
-438.24
-399.68
-364.28
-335.02
-312.45
-294.95
-279.57
-263.08
-242.88
-217.35
-185.97
-148.91
-106.99
-61.73
-15.37
29.19
69.14
102.59
128.92
148.56
162.73
172.88
180.29
185.94
190.27
193.36
195.09
195.38
194.00
191.48
189.26
189.35
193.52
201.83
212.72
223.62
231.98
235.29
233.06
226.88
219.44
213.28
208.42
203.34
196.58
187.52
174.87
159.49
144.25
132.96
128.91
130.60
133.61
132.71
122.98
97.66
53.96
-6.20
-76.90
-150.25
-223.39
-296.12
-368.37
-439.78
-513.90
-591.24
-668.19
-737.05
-786.83
-811.66
-808.45
-775.69
-689.06
-542.65
-351.58
-147.93
26.45
170.11
289.61
384.40
449.37
480.56
466.99
408.41
317.64
217.91
135.99
87.66
76.60
96.04
131.77
163.57
177.22
166.65
134.27
88.77
37.43
-12.91
-54.84
-81.84
-91.15
-78.89
-43.05
16.01
95.42
188.19
286.11
382.16
469.60
540.90
592.53
622.63
630.92
617.94
584.25
530.98
460.40
374.52
263.59
131.65
-5.93
-129.53
-226.28
-293.87
-342.85
-382.70
-418.49
-452.22
-482.71
-510.69
-533.70
-555.16
-579.91
-611.20
-647.90
-684.89
-713.51
-721.92
-700.36
-645.83
-564.49
-468.32
-369.64
-277.06
-194.37
-120.93
-52.51
15.88
85.68
153.88
215.59
269.20
316.23
360.00
404.07
451.76
506.84
569.40
635.31
697.21
750.32
790.66
815.09
821.46
810.04
786.20
754.67
717.24
671.29
615.98
549.25
469.40
376.34
254.92
107.22
-51.29
-188.28
-299.76
-391.64
-472.99
-547.81
-616.65
-676.68
-720.14
-740.70
-734.96
-703.19
-633.99
-527.00
-396.80
-269.64
-169.78
-103.53
-61.53
-32.79
-10.51
12.78
36.48
60.46
86.36
119.04
165.78
229.48
305.54
382.50
449.63
494.87
509.81
491.52
443.19
372.34
286.04
188.69
74.26
-50.39
-171.72
-275.11
-352.00
-401.25
-426.95
-436.13
-436.17
-438.53
-441.37
-438.31
-421.57
-385.01
-326.06
-247.03
-154.19
-55.00
44.26
134.20
206.64
257.51
287.48
300.38
300.65
291.72
275.54
260.60
246.66
232.41
217.06
200.77
184.65
170.10
158.46
151.01
145.77
142.74
143.72
150.16
161.58
175.28
186.42
189.76
181.80
162.29
132.67
95.96
54.44
8.23
-40.09
-86.58
-127.01
-157.89
-176.30
-181.70
-175.03
-158.87
-137.40
-114.28
-92.00
-71.23
-55.80
-42.57
-29.39
-15.19
0.04
15.28
30.02
43.91
56.71
68.08
78.13
85.48
87.94
87.72
84.90
79.63
72.19
63.12
53.11
43.37
34.09
24.86
14.93
2.85
-12.05
-29.71
-49.25
-69.36
-88.35
-105.46
-120.80
-135.12
-150.23
-167.96
-189.97
-217.15
-248.78
-281.57
-310.06
-327.52
-327.84
-308.01
-268.73
-214.01
-149.49
-80.61
-11.49
54.65
114.49
163.84
197.81
212.27
205.42
178.45
135.29
81.65
24.17
-30.08
-74.07
-101.84
-109.83
-98.21
-71.12
-35.67
0.26
29.99
49.04
54.87
46.06
21.61
-18.68
-73.22
-137.43
-203.67
-262.55
-305.34
-326.64
-325.81
-306.95
-277.01
-243.08
-210.17
-180.01
-151.87
-124.31
-96.82
-70.24
-45.92
-24.14
-3.37
19.13
45.57
75.97
107.71
136.46
158.20
170.91
175.30
174.09
170.56
167.05
164.25
161.32
156.72
149.08
137.75
122.93
105.57
87.00
68.65
51.63
36.72
24.27
14.25
6.36
0.20
-4.60
-8.22
-10.63
-11.65
-11.25
-9.71
-7.62
-5.78
-4.83
-5.05
-6.42
-8.73
-11.80
-15.49
-19.64
-23.93
-27.73
-30.31
-31.13
-30.04
-27.56
-24.60
-22.28
-21.46
-22.54
-25.36
-29.29
-33.49
-37.12
-39.62
-40.91
-41.46
-42.12
-43.72
-46.77
-51.18
-56.34
-61.35
-65.33
-67.63
-67.91
-65.98
-61.75
-55.24
-46.70
-36.72
-26.19
-16.07
-7.21
-0.07
5.26
8.96
11.24
12.20
11.80
9.95
6.60
1.86
-3.98
-10.47
-17.23
-24.00
-30.81
-37.79
-44.98
-52.14
-58.66
-63.67
-66.40
-66.34
-63.45
-57.95
-50.25
-40.60
-29.09
-15.79
-0.91
14.95
30.79
45.49
58.02
67.72
74.43
78.34
79.88
79.62
78.10
75.88
73.44
71.12
69.04
67.08
64.85
61.79
57.20
50.36
40.70
28.04
12.80
-3.94
-20.63
-35.68
-47.89
-56.69
-62.15
-64.70
-64.85
-63.02
-59.52
-54.59
-48.42
-41.19
-33.06
-24.24
-15.09
-6.16
1.84
8.24
12.61
14.96
15.72
15.68
15.64
16.18
17.42
19.10
20.71
21.85
22.47
22.88
23.60
25.04
27.34
30.27
33.44
36.53
39.35
41.76
43.47
43.93
42.44
38.48
32.10
24.12
15.96
9.28
5.38
4.90
7.61
12.60
18.67
24.71
29.95
34.09
37.18
39.45
41.13
42.33
43.02
43.02
42.06
39.80
35.96
30.45
23.51
15.75
7.98
1.04
-4.51
-8.63
-11.79
-14.86
-18.77
-24.19
-31.27
-39.64
-48.59
-57.29
-65.05
-71.46
-76.44
-80.18
-82.93
-84.97
-86.46
-87.44
-87.92
-87.97
-87.88
-88.32
-90.30
-94.92
-102.83
-113.97
-127.35
-141.28
-153.85
-163.30
-168.34
-168.17
-162.50
-151.72
-137.20
-121.41
-107.55
-98.65
-96.43
-100.44
-108.13
-115.75
-119.93
-119.01
-113.62
-106.35
-100.57
-99.24
-103.96
-114.66
-129.71
-146.38
-161.36
-171.50
-174.61
-170.22
-159.63
-145.19
-129.00
-111.44
-90.71
-63.24
-25.19
26.16
91.44
168.90
254.48
342.09
424.17
492.88
541.80
567.62
571.19
557.07
531.83
501.86
471.70
443.51
417.59
393.22
369.40
345.07
319.19
290.86
259.52
225.11
188.06
148.96
108.52
67.70
27.88
-9.10
-41.35
-67.34
-86.37
-98.41
-103.72
-102.21
-93.18
-75.62
-48.87
-13.37
28.97
75.05
121.28
164.47
202.43
234.04
258.92
277.01
288.11
291.94
288.29
277.28
259.51
235.90
207.44
174.95
139.09
100.64
60.79
21.29
-15.72
-48.23
-74.79
-94.89
-108.95
-117.93
-122.95
-124.91
-124.44
-121.96
-117.77
-112.24
-105.64
-98.23
-90.16
-81.61
-72.88
-64.46
-56.93
-50.82
-46.36
-43.43
-41.63
-40.45
-39.49
-38.53
-37.46
-36.21
-34.74
-33.08
-31.57
-30.88
-31.94
-35.61
-42.31
-51.76
-62.91
-74.20
-83.96
-90.83
-94.07
-93.57
-89.73
-83.28
-75.00
-65.64
-55.86
-46.29
-37.45
-29.81
-23.67
-19.18
-16.25
-14.64
-14.02
-13.99
-14.15
-14.08
-13.38
-11.72
-8.98
-5.36
-1.33
2.41
5.24
6.72
6.77
5.61
3.64
1.25
-1.22
-3.48
-5.25
-6.17
-5.84
-3.89
-0.19
5.12
11.59
18.63
25.55
31.75
36.69
40.00
41.40
40.81
38.35
34.41
29.55
24.43
19.61
15.43
11.99
9.21
6.85
4.62
2.22
-0.60
-4.05
-8.15
-12.72
-17.41
-21.78
-25.53
-28.66
-31.45
-34.37
-37.82
-41.89
-46.26
-50.21
-52.85
-53.38
-51.35
-46.76
-40.13
-32.30
-24.27
-16.94
-10.92
-6.45
-3.46
-1.67
-0.77
-0.54
-0.82
-1.49
-2.43
-3.52
-4.68
-5.92
-7.33
-8.91
-10.61
-12.19
-13.45
-14.25
-14.66
-14.91
-15.31
-16.07
-17.27
-18.89
-20.81
-22.88
-24.85
-26.20
-26.27
-24.33
-19.90
-13.01
-4.27
5.28
14.48
22.41
28.59
33.03
36.07
38.21
39.88
41.50
43.43
45.98
49.25
53.08
56.89
59.83
60.89
59.32
54.83
47.72
38.78
29.03
19.38
10.43
2.31
-5.11
-12.12
-18.94
-25.60
-32.05
-38.19
-43.96
-49.31
-54.10
-57.91
-60.17
-60.34
-58.19
-54.06
-48.77
-43.39
-38.78
-35.37
-33.08
-31.57
-30.46
-29.57
-28.87
-28.32
-27.75
-26.84
-25.27
-22.95
-20.12
-17.31
-15.08
-13.76
-13.32
-13.37
-13.49
-13.39
-13.09
-12.89
-13.16
-14.20
-16.05
-18.50
-21.16
-23.57
-25.25
-25.78
-24.76
-21.97
-17.34
-11.05
-3.57
4.40
11.99
18.38
22.94
25.33
25.53
23.81
20.57
16.31
11.55
6.84
2.70
-0.46
-2.44
-3.29
-3.26
-2.70
-1.90
-0.98
0.05
1.25
2.58
3.89
4.89
5.18
4.40
2.20
-1.56
-6.72
-12.72
-18.59
-23.14
-25.29
-24.44
-20.69
-14.88
-8.26
-2.14
2.47
5.01
5.37
3.69
0.22
-4.76
-10.88
-17.66
-24.51
-30.79
-35.96
-39.78
-42.28
-43.82
-44.87
-45.85
-46.95
-48.08
-48.93
-49.19
-48.84
-48.23
-48.11
-49.36
-52.67
-58.31
-65.98
-74.97
-84.42
-93.57
-101.85
-108.93
-114.62
-118.80
-121.45
-122.62
-122.18
-119.57
-113.57
-102.35
-84.13
-57.85
-23.96
15.40
56.88
96.83
132.29
161.64
184.58
201.75
214.07
222.26
226.73
227.64
225.11
219.33
210.58
199.16
185.33
169.34
151.49
132.19
111.97
91.44
71.21
51.81
33.58
16.67
1.19
-12.70
-24.65
-34.13
-40.52
-43.45
-43.00
-39.85
-35.16
-30.19
-25.88
-22.59
-20.15
-18.11
-16.17
-14.36
-12.99
-12.41
-12.73
-13.68
-14.70
-15.24
-14.93
-13.80
-12.08
-10.19
-8.52
-7.40
-6.98
-7.33
-8.35
-9.82
-11.46
-13.06
-14.55
-16.02
-17.67
-19.65
-21.89
-24.13
-25.86
-26.52
-25.53
-22.42
-16.88
-8.88
1.21
12.63
24.25
34.87
43.53
49.74
53.50
55.10
54.82
52.77
48.92
43.35
36.44
28.94
21.72
15.48
10.41
6.18
2.21
-1.99
-6.58
-11.30
-15.70
-19.46
-22.59
-25.35
-28.12
-31.12
-34.33
-37.57
-40.75
-43.98
-47.57
-51.85
-56.85
-62.19
-67.00
-70.19
-70.77
-68.15
-62.35
-54.01
-44.21
-34.13
-24.78
-16.78
-10.36
-5.53
-2.27
-0.56
-0.35
-1.32
-2.78
-3.73
-3.05
0.12
6.20
15.05
26.06
38.25
50.35
60.86
68.08
70.44
66.89
57.29
42.61
24.79
6.22
-10.93
-25.31
-36.61
-45.27
-52.02
-57.28
-60.94
-62.36
-60.77
-55.57
-46.67
-34.49
-19.87
-3.86
12.41
27.90
41.65
52.86
60.95
65.67
67.20
66.11
63.23
59.43
55.48
51.82
48.66
46.02
43.86
42.11
40.69
39.50
38.35
37.02
35.30
33.02
30.05
26.36
21.98
16.99
11.47
5.44
-1.13
-8.26
-15.77
-23.22
-29.89
-35.01
-37.97
-38.51
-36.85
-33.52
-29.26
-24.85
-20.99
-18.20
-16.78
-16.76
-17.90
-19.83
-22.06
-24.23
-26.07
-27.38
-27.98
-27.67
-26.22
-23.51
-19.54
-14.50
-8.68
-2.46
3.83
9.88
15.47
20.41
24.55
27.69
29.63
30.21
29.35
27.22
24.26
21.10
18.44
16.82
16.47
17.20
18.55
19.99
21.21
22.17
23.06
24.11
25.35
26.50
27.03
26.38
24.28
20.93
16.97
13.26
10.55
9.12
8.71
8.51
7.38
4.09
-2.31
-12.23
-25.21
-39.95
-54.64
-67.48
-77.39
-84.39
-89.57
-94.50
-100.50
-107.99
-116.32
-124.05
-129.50
-131.31
-128.69
-121.58
-110.50
-96.49
-80.91
-65.17
-50.45
-37.45
-26.34
-16.93
-8.95
-2.16
3.58
8.51
13.08
17.90
23.43
29.73
36.28
42.09
46.13
47.73
46.85
44.23
41.15
39.24
40.07
44.72
53.44
65.31
78.31
89.76
97.07
98.46
93.53
83.30
69.80
55.35
41.91
30.53
21.40
14.10
8.13
3.32
-0.06
-1.51
-0.67
2.25
6.42
10.67
13.96
15.83
16.58
16.97
17.82
19.49
21.78
24.02
25.52
25.88
25.10
23.52
21.45
19.00
15.97
12.00
6.80
0.27
-7.35
-15.72
-24.37
-32.91
-40.89
-47.87
-53.34
-56.78
-57.84
-56.41
-52.71
-47.27
-40.94
-34.67
-29.41
-25.86
-24.22
-24.14
-24.83
-25.41
-25.19
-23.96
-21.88
-19.38
-16.76
-14.12
-11.36
-8.39
-5.25
-2.22
0.41
2.42
3.81
4.72
5.36
5.80
5.97
5.68
4.68
2.77
-0.15
-4.03
-8.60
-13.35
-17.54
-20.37
-21.19
-19.70
-16.12
-11.02
-5.21
0.55
5.73
9.99
13.11
14.94
15.34
14.32
12.13
9.31
6.56
4.57
3.76
4.20
5.63
7.59
9.57
11.20
12.23
12.51
12.02
10.73
8.69
6.00
2.77
-0.91
-5.08
-9.82
-15.21
-21.08
-26.92
-31.86
-34.92
-35.29
-32.66
-27.32
-20.03
-11.78
-3.48
4.18
10.76
15.99
19.66
21.61
21.74
20.16
17.25
13.63
10.03
7.09
5.13
4.09
3.59
3.09
2.15
0.59
-1.48
-3.79
-6.08
-8.22
-10.31
-12.58
-15.33
-18.80
-23.00
-27.74
-32.54
-36.75
-39.65
-40.57
-39.07
-35.03
-28.67
-20.49
-11.21
-1.65
7.36
15.07
20.93
24.63
26.15
25.82
24.16
21.79
19.31
17.15
15.62
14.79
14.63
14.93
15.43
15.86
15.95
15.58
14.72
13.48
11.98
10.29
8.38
6.02
2.94
-1.16
-6.41
-12.65
-19.39
-25.84
-30.98
-33.85
-33.74
-30.41
-24.24
-16.11
-7.17
1.45
8.90
14.78
19.00
21.67
22.87
22.68
21.16
18.51
15.17
11.69
8.68
6.52
5.28
4.73
4.48
4.08
3.32
2.17
0.79
-0.62
-1.92
-3.14
-4.45
-6.12
-8.46
-11.68
-15.91
-21.02
-26.67
-32.25
-36.92
-39.76
-40.02
-37.30
-31.74
-23.96
-14.94
-5.73
2.82
10.22
16.28
20.99
24.39
26.45
27.18
26.67
25.19
23.19
21.12
19.32
17.94
16.96
16.30
15.91
15.72
15.67
15.53
15.03
13.88
11.94
9.28
6.09
2.62
-1.03
-4.92
-9.27
-14.30
-20.04
-26.14
-31.86
-36.13
-37.87
-36.28
-31.17
-23.09
-13.20
-2.90
6.55
14.34
20.12
23.95
26.03
26.60
25.86
24.08
21.63
18.94
16.45
14.45
13.04
12.13
11.53
11.07
10.60
10.10
9.52
8.83
7.92
6.68
4.94
2.62
-0.23
-3.41
-6.64
-9.73
-12.66
-15.66
-19.08
-23.10
-27.47
-31.42
-33.81
-33.54
-29.99
-23.32
-14.40
-4.56
4.89
13.01
19.32
23.85
26.81
28.43
28.90
28.38
27.07
25.35
23.65
22.39
21.76
21.64
21.66
21.35
20.35
18.55
16.07
13.16
10.11
7.08
4.12
1.17
-1.83
-4.98
-8.36
-12.09
-16.33
-21.18
-26.58
-32.19
-37.25
-40.76
-41.65
-39.20
-33.32
-24.68
-14.56
-4.42
4.50
11.48
16.35
19.30
20.62
20.55
19.27
17.01
14.19
11.36
9.08
7.72
7.32
7.61
8.15
8.49
8.38
7.72
6.55
4.96
3.00
0.69
-1.97
-4.98
-8.35
-12.11
-16.31
-20.97
-26.09
-31.48
-36.70
-41.01
-43.51
-43.33
-39.91
-33.24
-23.94
-13.12
-2.14
7.79
15.84
21.63
25.14
26.51
25.95
23.67
19.96
15.20
9.92
4.66
-0.01
-3.70
-6.22
-7.61
-8.07
-7.89
-7.37
-6.78
-6.40
-6.50
-7.33
-9.12
-11.96
-15.79
-20.44
-25.65
-31.18
-36.74
-41.99
-46.41
-49.28
-49.80
-47.30
-41.49
-32.68
-21.71
-9.75
1.93
12.33
20.80
27.12
31.38
33.83
34.73
34.31
32.70
30.06
26.61
22.75
18.96
15.75
13.40
11.87
10.82
9.81
8.59
7.24
6.09
5.47
5.38
5.35
4.58
2.23
-2.27
-9.04
-17.78
-27.82
-38.21
-47.70
-54.84
-58.17
-56.63
-50.00
-39.10
-25.66
-11.74
0.92
11.42
19.69
26.28
31.75
36.37
40.06
42.57
43.81
44.00
43.62
43.13
42.70
42.18
41.18
39.37
36.57
32.94
28.77
24.41
20.14
16.16
12.51
9.19
6.05
2.82
-0.85
-5.28
-10.58
-16.54
-22.54
-27.64
-30.76
-30.88
-27.32
-19.91
-9.05
4.33
18.91
33.27
46.13
56.57
64.16
68.96
71.42
72.16
71.77
70.70
69.20
67.41
65.47
63.44
61.24
58.39
53.96
46.69
35.40
19.54
-0.48
-23.36
-47.28
-70.49
-91.76
-110.57
-126.93
-141.03
-152.88
-162.21
-168.49
-171.23
-170.23
-165.73
-158.31
-148.68
-137.30
-124.23
-109.29
-92.35
-73.76
-54.50
-36.10
-20.20
-8.01
0.04
4.39
6.07
6.35
6.35
6.89
8.40
11.02
14.58
18.56
22.15
24.35
24.33
21.83
17.42
12.44
8.57
7.12
8.52
12.13
16.46
19.82
20.78
18.63
13.51
6.44
-0.67
-5.19
-4.23
4.66
22.60
48.85
80.79
114.69
146.78
174.17
195.28
209.69
217.59
219.41
215.72
207.45
196.03
183.31
171.07
160.58
152.23
145.76
140.65
136.48
133.12
130.55
128.50
126.40
123.40
118.79
112.20
103.67
93.54
82.13
69.65
56.18
41.80
26.68
11.13
-4.50
-19.89
-34.75
-48.93
-62.46
-75.75
-89.67
-105.44
-124.26
-146.80
-172.87
-201.28
-230.14
-257.32
-281.01
-300.00
-313.89
-323.00
-328.09
-329.81
-328.23
-322.57
-311.32
-292.94
-266.67
-233.08
-194.07
-152.35
-110.66
-71.27
-35.83
-5.42
19.54
39.30
54.93
68.01
80.13
92.20
104.17
115.13
123.82
129.25
130.95
129.02
123.99
116.72
108.34
100.18
93.52
89.25
87.62
88.22
90.11
92.19
93.48
93.21
90.91
86.40
79.75
71.28
61.34
50.22
38.06
24.91
10.89
-3.62
-17.92
-31.06
-42.08
-50.12
-54.59
-55.19
-51.95
-45.25
-35.89
-25.02
-14.00
-4.20
3.39
8.30
10.67
11.15
10.71
10.29
10.61
11.99
14.33
17.24
20.22
22.95
25.34
27.52
29.75
32.11
34.54
36.76
38.47
39.48
39.76
39.39
38.34
36.42
33.34
28.93
23.48
17.74
12.80
9.71
9.04
10.63
13.73
17.31
20.43
22.57
23.58
23.48
22.25
19.79
16.04
11.18
5.71
0.33
-4.38
-8.24
-11.56
-15.01
-19.14
-24.13
-29.65
-35.05
-39.75
-43.52
-46.56
-49.30
-52.03
-54.73
-56.99
-58.25
-57.97
-55.79
-51.45
-44.76
-35.54
-23.76
-9.73
5.76
21.46
35.98
48.10
57.10
62.83
65.62
66.05
64.53
61.39
56.94
51.55
45.66
39.73
34.20
29.39
25.46
22.23
19.37
16.61
13.89
11.51
9.89
9.37
9.94
11.15
11.86
10.98
8.09
3.77
-0.46
-2.70
-1.27
4.80
15.48
28.84
42.56
55.07
66.21
77.07
88.91
102.33
116.80
130.76
140.09
141.54
134.47
121.52
107.32
95.69
87.83
82.22
75.60
61.32
34.45
-5.99
-57.01
-113.63
-172.36
-232.54
-295.16
-361.33
-434.97
-517.83
-608.05
-699.72
-784.06
-852.29
-896.93
-911.85
-866.05
-742.02
-546.46
-313.16
-86.14
103.15
243.92
340.87
405.24
446.53
466.62
464.09
443.45
408.04
365.23
324.23
293.52
279.39
283.36
301.08
326.25
347.52
359.84
364.57
366.20
367.81
375.20
379.70
368.41
332.45
271.46
194.61
116.29
49.14
-1.24
-33.57
-52.89
-66.19
-78.82
-92.57
-105.21
-112.81
-112.94
-105.93
-94.25
-82.44
-73.96
-70.68
-72.78
-78.88
-87.14
-96.71
-107.53
-119.61
-133.17
-146.87
-158.40
-165.26
-165.16
-157.02
-141.99
-122.13
-99.35
-75.04
-49.58
-23.14
3.65
29.84
53.37
70.43
77.10
70.77
51.06
20.21
-17.78
-58.05
-95.75
-120.29
-124.92
-109.79
-82.79
-55.15
-35.85
-29.29
-35.35
-50.32
-69.71
-90.24
-109.60
-126.49
-140.28
-150.77
-158.39
-166.95
-174.27
-178.56
-180.21
-181.07
-183.40
-188.93
-198.72
-213.86
-234.61
-259.19
-284.53
-306.32
-319.51
-320.17
-307.16
-279.74
-243.01
-204.07
-168.19
-137.81
-112.27
-89.32
-67.23
-45.77
-25.93
-9.08
5.00
18.41
33.41
51.32
72.07
94.48
116.98
138.32
157.37
173.80
187.84
199.85
210.29
219.72
228.71
237.77
247.26
257.05
266.83
276.09
283.77
288.30
287.70
280.03
263.92
239.16
206.94
169.92
131.62
95.64
64.70
40.14
21.86
8.86
-0.01
-5.37
-6.97
-3.91
4.92
20.34
42.63
71.57
106.38
145.80
188.05
230.89
271.93
309.20
341.47
368.28
389.54
404.85
413.23
413.27
403.91
385.16
358.55
326.71
292.50
257.97
223.95
190.26
156.40
122.26
88.41
55.82
25.37
-2.49
-27.83
-51.00
-72.38
-92.32
-111.22
-129.63
-148.07
-166.80
-185.38
-202.64
-216.96
-226.86
-231.62
-231.51
-227.52
-220.87
-212.55
-203.09
-192.81
-182.11
-171.68
-162.34
-154.60
-148.29
-142.60
-136.37
-128.82
-119.92
-110.45
-101.64
-94.54
-89.70
-87.11
-86.46
-87.32
-89.28
-91.76
-93.89
-94.52
-92.42
-86.70
-77.04
-63.84
-48.12
-31.24
-14.63
0.44
13.09
22.83
29.68
33.97
36.21
36.89
36.32
34.66
32.05
28.68
24.92
21.21
17.93
15.30
13.22
11.38
9.34
6.72
3.32
-0.87
-5.69
-10.88
-16.21
-21.50
-26.65
-31.74
-36.95
-42.66
-49.21
-56.85
-65.40
-74.15
-81.86
-86.98
-88.08
-84.25
-75.39
-62.25
-46.22
-28.99
-12.19
2.97
15.83
26.27
34.60
41.31
46.89
51.70
55.96
59.78
63.28
66.60
69.83
72.96
75.89
78.46
80.60
82.31
83.62
84.49
84.68
83.87
81.68
77.92
72.65
66.16
58.81
50.89
42.53
33.66
24.12
13.75
2.59
-8.97
-20.07
-29.43
-35.65
-37.56
-34.66
-27.38
-16.95
-5.07
6.55
16.68
24.69
30.44
34.10
35.91
36.10
34.88
32.57
29.56
26.33
23.28
20.68
18.54
16.77
15.24
13.86
12.57
11.38
10.24
9.00
7.46
5.39
2.69
-0.64
-4.44
-8.48
-12.57
-16.67
-20.99
-25.85
-31.54
-38.03
-44.75
-50.61
-54.17
-54.09
-49.66
-41.01
-29.16
-15.69
-2.30
9.65
19.32
26.48
31.22
33.88
34.78
34.26
32.66
30.37
27.80
25.34
23.23
21.58
20.29
19.19
18.10
16.85
15.32
13.41
11.04
8.15
4.72
0.84
-3.32
-7.55
-11.67
-15.59
-19.35
-23.14
-27.27
-32.07
-37.77
-44.26
-50.95
-56.81
-60.46
-60.63
-56.53
-48.18
-36.45
-22.85
-9.03
3.62
14.29
22.74
29.11
33.71
36.82
38.56
39.01
38.21
36.37
33.78
30.86
27.98
25.37
23.07
20.91
18.61
15.87
12.47
8.39
3.72
-1.30
-6.39
-11.30
-15.87
-20.07
-24.02
-27.88
-31.85
-36.03
-40.50
-45.20
-49.99
-54.49
-58.02
-59.68
-58.48
-53.72
-45.29
-33.82
-20.58
-7.11
5.20
15.42
23.21
28.63
31.97
33.51
33.45
32.00
29.45
26.25
22.93
19.99
17.77
16.32
15.42
14.71
13.81
12.50
10.73
8.58
6.15
3.48
0.58
-2.65
-6.24
-10.22
-14.58
-19.33
-24.45
-29.91
-35.52
-40.84
-45.16
-47.60
-47.26
-43.53
-36.33
-26.18
-14.19
-1.73
9.87
19.57
26.85
31.60
34.03
34.48
33.33
30.99
27.90
24.58
21.56
19.25
17.86
17.25
17.04
16.70
15.74
13.91
11.22
7.93
4.40
0.87
-2.63
-6.25
-10.25
-14.82
-20.02
-25.82
-32.11
-38.71
-45.34
-51.46
-56.17
-58.34
-56.93
-51.36
-41.85
-29.47
-15.85
-2.67
8.78
17.86
24.51
29.00
31.67
32.70
32.18
30.27
27.35
23.96
20.71
18.08
16.22
14.91
13.73
12.24
10.15
7.47
4.39
1.20
-1.88
-4.82
-7.74
-10.91
-14.61
-19.04
-24.32
-30.44
-37.22
-44.30
-51.04
-56.53
-59.68
-59.46
-55.26
-47.16
-35.98
-23.15
-10.21
1.53
11.31
18.93
24.54
28.41
30.71
31.54
30.96
29.20
26.67
23.90
21.41
19.57
18.47
17.96
17.73
17.42
16.77
15.64
14.05
12.13
9.96
7.55
4.80
1.54
-2.42
-7.21
-12.87
-19.37
-26.54
-33.96
-40.90
-46.36
-49.18
-48.35
-43.37
-34.50
-22.73
-9.59
3.29
14.57
23.46
29.73
33.54
35.26
35.29
33.98
31.66
28.69
25.48
22.47
20.00
18.23
17.11
16.37
15.60
14.46
12.72
10.39
7.68
4.85
2.11
-0.49
-3.10
-6.00
-9.47
-13.74
-18.91
-24.95
-31.58
-38.23
-43.97
-47.61
-47.96
-44.23
-36.33
-25.01
-11.71
1.83
14.08
23.98
31.07
35.36
37.15
36.87
35.01
32.14
28.83
25.66
23.06
21.20
20.03
19.31
18.71
17.93
16.74
14.97
12.57
9.59
6.20
2.66
-0.77
-4.01
-7.17
-10.55
-14.60
-19.63
-25.67
-32.38
-38.96
-44.37
-47.48
-47.37
-43.55
-36.18
-25.98
-14.19
-2.22
8.65
17.49
23.86
27.77
29.53
29.52
28.13
25.72
22.68
19.46
16.48
14.15
12.66
11.93
11.67
11.45
10.89
9.70
7.76
5.07
1.64
-2.44
-7.11
-12.25
-17.72
-23.39
-29.14
-34.91
-40.54
-45.73
-49.90
-52.23
-51.86
-48.14
-40.94
-30.79
-18.84
-6.58
4.64
13.88
20.79
25.55
28.58
30.31
30.98
30.69
29.54
27.77
25.78
23.97
22.64
21.74
20.93
19.73
17.73
14.84
11.29
7.53
3.95
0.68
-2.46
-5.90
-10.07
-15.24
-21.43
-28.39
-35.62
-42.42
-47.90
-51.05
-50.97
-47.11
-39.53
-28.90
-16.43
-3.55
8.43
18.53
26.21
31.32
33.98
34.45
33.10
30.36
26.73
22.79
19.08
16.07
13.99
12.81
12.21
11.73
10.96
9.64
7.84
5.76
3.63
1.49
-0.82
-3.67
-7.39
-12.22
-18.10
-24.77
-31.74
-38.32
-43.72
-47.01
-47.35
-44.17
-37.40
-27.58
-15.81
-3.52
7.95
17.56
24.80
29.58
32.12
32.69
31.60
29.13
25.64
21.67
17.86
14.79
12.78
11.75
11.25
10.65
9.40
7.27
4.36
1.03
-2.33
-5.43
-8.27
-11.05
-14.14
-17.92
-22.62
-28.21
-34.30
-40.12
-44.64
-46.77
-45.64
-40.88
-32.73
-22.02
-10.02
1.92
12.61
21.22
27.36
30.97
32.20
31.34
28.74
24.91
20.45
16.05
12.34
9.72
8.21
7.47
6.91
5.93
4.22
1.77
-1.14
-4.12
-6.93
-9.56
-12.22
-15.20
-18.82
-23.31
-28.76
-35.08
-41.85
-48.30
-53.27
-55.46
-53.75
-47.69
-37.72
-25.08
-11.46
1.53
12.75
21.74
28.49
33.16
35.85
36.54
35.30
32.49
28.80
25.09
22.11
20.23
19.30
18.80
18.09
16.74
14.68
12.13
9.46
6.95
4.61
2.16
-0.82
-4.70
-9.70
-15.80
-22.77
-30.17
-37.32
-43.32
-47.04
-47.41
-43.69
-35.84
-24.65
-11.55
1.76
13.81
23.70
31.08
36.06
38.88
39.81
39.08
36.98
33.92
30.49
27.28
24.75
23.05
22.02
21.28
20.40
19.12
17.41
15.46
13.45
11.50
9.50
7.16
4.19
0.34
-4.51
-10.40
-17.20
-24.61
-32.05
-38.53
-42.80
-43.61
-40.11
-32.24
-20.83
-7.46
6.03
18.07
27.70
34.70
39.35
42.14
43.45
43.54
42.53
40.67
38.32
35.96
33.93
32.36
31.07
29.67
27.81
25.28
22.09
18.46
14.62
10.77
6.99
3.22
-0.68
-4.88
-9.59
-14.92
-20.93
-27.45
-34.07
-40.10
-44.56
-46.41
-44.85
-39.60
-31.06
-20.22
-8.41
3.06
13.13
21.11
26.57
29.35
29.47
27.20
23.15
18.20
13.32
9.35
6.71
5.41
5.05
5.06
4.92
4.25
2.92
1.00
-1.38
-4.08
-7.03
-10.25
-13.82
-17.80
-22.23
-27.10
-32.32
-37.66
-42.67
-46.60
-48.50
-47.45
-42.86
-34.81
-24.06
-11.91
0.17
10.94
19.65
25.99
29.99
31.80
31.58
29.58
26.21
22.11
18.05
14.72
12.54
11.52
11.29
11.31
11.03
10.10
8.40
6.01
3.12
-0.10
-3.53
-7.15
-11.02
-15.32
-20.30
-26.14
-32.82
-39.94
-46.62
-51.69
-53.97
-52.66
-47.59
-39.28
-28.79
-17.32
-5.95
4.55
13.71
21.20
26.76
30.12
31.13
29.89
26.82
22.60
18.05
13.86
10.43
7.83
5.85
4.15
2.41
0.38
-2.09
-5.04
-8.45
-12.20
-16.12
-20.04
-23.88
-27.73
-31.82
-36.46
-41.81
-47.76
-53.76
-58.86
-61.86
-61.56
-57.18
-48.55
-36.25
-21.57
-6.07
8.77
21.91
32.83
41.46
47.90
52.22
54.45
54.72
53.36
50.95
48.21
45.76
43.93
42.75
41.98
41.26
40.23
38.60
36.15
32.78
28.54
23.68
18.60
13.72
9.23
5.05
0.83
-4.00
-9.93
-17.20
-25.64
-34.63
-43.10
-49.71
-53.13
-52.28
-46.72
-36.82
-23.76
-9.27
4.84
17.10
26.72
33.58
38.07
40.77
42.15
42.50
41.94
40.63
38.81
36.78
34.80
32.93
31.03
28.90
26.41
23.64
20.85
18.30
16.11
14.11
11.92
9.11
5.48
1.11
-3.68
-8.55
-13.34
-18.19
-23.45
-29.44
-36.09
-42.77
-48.28
-51.22
-50.42
-45.33
-36.22
-24.03
-10.16
3.99
17.20
28.55
37.49
43.77
47.37
48.47
47.37
44.49
40.30
35.34
30.15
25.25
21.03
17.71
15.23
13.30
11.45
9.21
6.24
2.43
-2.05
-6.86
-11.68
-16.35
-20.92
-25.62
-30.61
-35.90
-41.23
-46.27
-50.72
-54.38
-57.06
-58.36
-57.65
-54.12
-47.15
-36.71
-23.61
-9.31
4.43
16.08
24.75
30.22
32.83
33.13
31.69
28.97
25.40
21.44
17.57
14.29
11.95
10.71
10.43
10.69
10.93
10.56
9.15
6.57
3.03
-1.02
-5.10
-8.85
-12.16
-15.20
-18.31
-21.82
-25.97
-30.85
-36.33
-42.12
-47.64
-52.07
-54.38
-53.52
-48.77
-40.07
-28.13
-14.35
-0.37
12.39
23.00
31.23
37.24
41.36
43.81
44.64
43.89
41.68
38.40
34.61
30.92
27.80
25.51
24.00
23.06
22.37
21.58
20.38
18.54
15.91
12.44
8.19
3.36
-1.83
-7.15
-12.43
-17.65
-22.93
-28.44
-34.33
-40.52
-46.55
-51.55
-54.41
-54.04
-49.76
-41.62
-30.41
-17.48
-4.39
7.54
17.48
25.14
30.62
34.20
36.14
36.61
35.82
34.04
31.69
29.20
26.97
25.18
23.85
22.85
21.97
21.01
19.78
18.15
16.06
13.52
10.60
7.42
4.07
0.58
-3.11
-7.10
-11.48
-16.30
-21.54
-27.07
-32.58
-37.46
-40.80
-41.59
-38.98
-32.64
-22.96
-10.97
1.89
14.15
24.73
33.03
38.95
42.69
44.54
44.77
43.61
41.29
38.12
34.48
30.79
27.42
24.52
22.02
19.61
16.90
13.57
9.48
4.73
-0.38
-5.55
-10.56
-15.31
-19.86
-24.31
-28.77
-33.33
-38.04
-42.89
-47.74
-52.15
-55.39
-56.53
-54.72
-49.55
-41.25
-30.72
-19.24
-8.16
1.46
9.04
14.37
17.53
18.66
17.94
15.65
12.22
8.29
4.57
1.73
0.17
-0.11
0.54
1.56
2.32
2.40
1.62
0.08
-1.99
-4.31
-6.71
-9.18
-11.79
-14.71
-18.10
-22.05
-26.54
-31.41
-36.27
-40.51
-43.33
-43.88
-41.46
-35.83
-27.32
-16.87
-5.78
4.64
13.38
19.93
24.25
26.69
27.63
27.44
26.40
24.69
22.54
20.21
17.99
16.13
14.76
13.81
13.06
12.14
10.74
8.64
5.86
2.59
-0.93
-4.54
-8.23
-12.14
-16.51
-21.51
-27.18
-33.37
-39.84
-46.20
-51.94
-56.39
-58.73
-58.20
-54.29
-47.04
-37.14
-25.75
-14.23
-3.73
5.04
11.92
17.08
20.79
23.31
24.77
25.38
25.40
25.25
25.39
26.09
27.43
29.13
30.79
31.97
32.39
31.95
30.72
28.83
26.43
23.58
20.30
16.58
12.41
7.74
2.52
-3.35
-9.89
-16.96
-24.06
-30.37
-34.77
-36.16
-33.80
-27.59
-18.22
-6.93
4.74
15.52
24.61
31.79
37.26
41.34
44.23
45.97
46.50
45.81
44.11
41.78
39.28
36.96
34.97
33.24
31.57
29.76
27.61
24.99
21.82
18.13
14.01
9.66
5.21
0.67
-4.15
-9.52
-15.70
-22.72
-30.29
-37.83
-44.58
-49.72
-52.50
-52.37
-49.12
-42.98
-34.70
-25.42
-16.40
-8.73
-3.02
0.56
2.21
2.24
0.95
-1.49
-4.87
-8.86
-13.02
-16.81
-19.84
-21.99
-23.50
-24.83
-26.45
-28.66
-31.46
-34.69
-38.10
-41.61
-45.28
-49.27
-53.68
-58.55
-63.80
-69.28
-74.78
-79.96
-84.30
-87.03
-87.26
-84.23
-77.60
-67.52
-54.67
-39.99
-24.42
-8.68
6.73
21.46
35.14
47.26
57.17
64.30
68.39
69.72
69.12
67.79
66.85
66.91
67.82
68.81
68.79
66.95
63.02
57.39
50.81
44.08
37.74
32.01
26.91
22.31
18.02
13.74
9.14
3.97
-1.57
-6.69
-10.01
-10.00
-5.52
3.72
16.96
32.66
49.02
64.60
78.61
90.93
101.91
111.95
121.19
129.42
136.09
140.58
142.42
141.59
138.51
134.00
128.82
123.47
117.90
111.65
104.23
95.47
85.70
75.66
65.99
56.85
47.67
37.35
24.71
9.03
-9.53
-29.88
-50.23
-68.54
-83.05
-92.66
-97.05
-96.89
-93.69
-89.58
-86.86
-87.56
-92.96
-103.36
-118.11
-135.70
-154.49
-173.02
-190.28
-205.54
-218.18
-227.41
-232.32
-232.06
-225.75
-213.19
-194.87
-171.61
-144.28
-113.58
-80.21
-45.16
-9.96
24.31
56.38
85.42
111.36
134.84
156.71
177.33
196.40
212.76
226.48
237.51
245.92
251.54
253.60
250.71
241.12
223.44
196.54
163.26
128.21
96.41
70.75
51.37
37.20
27.83
24.07
20.08
16.63
14.95
16.22
21.92
33.95
53.78
80.98
117.69
159.81
201.62
236.14
257.89
264.44
256.77
238.33
213.53
186.38
159.00
133.64
111.34
92.48
76.97
64.42
54.05
44.87
35.90
25.88
15.04
4.00
-6.44
-15.76
-24.04
-31.96
-40.51
-50.49
-62.50
-75.91
-89.64
-102.58
-114.09
-124.27
-133.94
-144.13
-155.59
-168.62
-182.63
-196.77
-210.31
-223.06
-235.46
-248.34
-262.66
-279.35
-299.34
-323.28
-351.01
-380.84
-409.31
-431.77
-443.87
-443.31
-430.71
-409.21
-382.76
-354.34
-324.96
-294.20
-261.60
-227.97
-195.64
-167.62
-146.13
-131.67
-122.93
-117.68
-113.85
-110.23
-106.62
-103.28
-100.49
-98.16
-95.90
-93.38
-90.72
-88.84
-89.41
-94.33
-104.83
-120.87
-140.95
-162.68
-183.80
-202.92
-219.79
-234.62
-247.36
-256.78
-260.77
-257.25
-245.21
-225.30
-199.58
-170.69
-140.91
-111.66
-83.00
-54.34
-25.13
4.87
35.63
67.18
99.76
133.55
168.38
204.35
241.20
277.79
312.44
343.43
370.18
394.17
418.30
445.07
475.89
508.29
534.83
545.68
531.68
488.04
416.65
325.67
227.26
137.15
70.61
38.39
45.79
91.20
167.21
263.70
370.81
466.02
528.06
543.59
513.00
450.34
373.26
294.53
221.06
155.84
99.48
53.54
26.01
14.21
14.15
21.31
30.31
36.17
34.96
24.19
5.13
-18.43
-42.46
-66.34
-88.23
-107.54
-124.30
-138.61
-150.34
-158.00
-160.26
-157.09
-149.48
-139.94
-131.86
-127.35
-126.62
-128.70
-131.99
-136.19
-141.39
-147.74
-155.61
-165.26
-175.78
-185.71
-194.16
-201.44
-209.35
-217.51
-223.15
-221.96
-209.30
-180.50
-132.37
-64.55
20.10
115.85
218.27
323.45
419.14
485.71
505.29
472.61
398.57
314.45
234.13
162.86
100.98
45.23
-11.28
-71.96
-135.99
-198.98
-256.16
-304.80
-344.31
-377.40
-400.60
-415.66
-426.39
-434.73
-437.62
-440.33
-437.67
-423.45
-394.14
-349.73
-289.08
-215.73
-133.52
-44.76
47.75
138.88
218.91
278.94
326.36
366.56
404.33
437.17
466.56
494.52
523.03
553.51
587.02
622.86
654.87
674.33
673.15
647.08
595.84
523.20
436.25
343.72
252.81
165.38
80.13
-5.12
-91.36
-178.91
-268.44
-359.20
-448.17
-530.39
-601.35
-657.01
-694.99
-715.03
-718.81
-710.42
-691.76
-661.56
-616.75
-555.29
-477.08
-384.87
-283.83
-170.10
-50.65
61.61
153.72
218.86
257.86
276.45
284.92
288.17
288.78
287.00
284.95
285.66
291.13
297.96
302.72
301.92
292.85
274.89
247.71
213.75
176.51
138.36
100.43
63.15
26.37
-8.32
-36.79
-62.26
-87.57
-110.57
-129.45
-142.72
-149.13
-148.51
-141.95
-131.47
-120.07
-109.15
-98.70
-88.18
-76.40
-62.09
-44.94
-26.12
-7.97
6.43
15.45
18.80
16.91
10.80
1.58
-10.12
-24.11
-40.19
-57.67
-74.62
-88.51
-97.42
-100.22
-96.79
-87.94
-74.88
-58.92
-41.24
-22.56
-3.48
15.21
32.66
48.02
60.51
69.59
75.00
76.84
75.66
72.42
68.23
64.22
61.32
59.99
60.15
61.25
62.39
62.66
61.33
58.01
52.65
45.53
37.02
27.53
17.41
7.01
-3.29
-13.01
-21.54
-28.29
-32.83
-35.04
-35.18
-33.77
-31.44
-28.68
-25.71
-22.54
-19.11
-15.53
-12.12
-9.47
-8.24
-9.05
-12.01
-16.49
-21.12
-24.20
-24.11
-19.81
-11.06
1.52
16.47
32.06
46.67
59.27
69.57
77.89
84.98
91.48
97.70
103.12
106.98
108.80
108.69
107.20
104.83
101.78
97.79
92.45
84.87
75.20
65.02
56.94
53.09
53.71
56.87
59.11
56.88
46.57
27.78
4.25
-17.29
-30.10
-30.71
-19.94
-2.47
15.25
24.76
20.85
3.34
-23.63
-54.96
-88.09
-123.30
-163.04
-209.90
-268.27
-339.21
-418.70
-497.73
-564.66
-608.53
-619.76
-593.92
-510.49
-367.90
-188.64
-13.07
122.44
204.00
240.35
250.82
252.06
249.87
238.71
211.70
166.60
107.08
41.36
-25.29
-84.98
-133.63
-170.05
-198.45
-223.82
-247.79
-266.09
-270.56
-262.63
-236.79
-192.87
-135.90
-75.04
-18.35
30.93
74.93
118.75
164.06
210.69
253.59
286.15
302.72
301.76
286.54
263.36
238.36
214.73
193.78
173.30
150.48
123.65
93.54
63.07
36.18
16.16
4.24
0.18
0.99
2.74
2.23
-1.89
-8.88
-16.75
-23.68
-29.15
-33.83
-39.95
-49.88
-64.94
-84.71
-107.04
-128.72
-146.43
-157.71
-161.42
-158.34
-150.78
-141.59
-132.97
-125.21
-116.32
-102.57
-79.71
-44.14
6.00
70.32
145.60
225.63
301.51
362.99
400.76
409.22
388.15
342.85
282.04
214.85
148.03
84.80
25.04
-33.21
-92.03
-152.31
-212.98
-270.99
-321.93
-361.05
-384.50
-390.29
-378.66
-351.79
-313.17
-266.89
-217.06
-167.52
-121.34
-80.31
-44.26
-10.94
23.45
63.16
111.65
170.75
240.29
318.20
400.33
480.83
552.45
607.52
639.24
643.40
619.75
572.39
509.05
438.93
370.35
308.82
256.42
212.64
175.81
144.45
117.81
95.49
76.77
60.44
45.03
29.40
12.82
-5.58
-27.32
-54.45
-88.47
-128.85
-172.25
-213.32
-246.65
-269.05
-280.55
-283.76
-282.21
-278.59
-274.18
-269.29
-264.17
-259.39
-255.37
-251.70
-246.74
-238.11
-223.80
-203.15
-177.26
-148.66
-120.35
-94.87
-73.63
-56.76
-43.43
-32.49
-23.06
-14.79
-7.95
-3.10
-0.61
-0.31
-1.46
-3.07
-4.44
-5.51
-6.82
-9.16
-13.16
-19.00
-26.47
-35.05
-44.27
-53.91
-63.96
-74.29
-84.72
-94.92
-104.38
-112.44
-118.14
-120.53
-118.97
-113.45
-104.12
-91.73
-77.54
-63.05
-49.70
-38.34
-29.20
-22.08
-16.51
-10.57
-2.25
9.80
25.59
43.50
61.24
76.34
86.90
91.98
93.96
96.23
101.72
111.36
123.62
136.26
147.29
155.95
162.97
173.04
191.23
220.86
262.00
311.38
365.44
421.33
477.81
517.43
526.05
497.02
436.21
359.42
282.93
217.70
166.21
124.71
86.48
47.99
8.94
-28.59
-58.32
-81.00
-98.09
-112.29
-126.64
-143.84
-163.21
-182.15
-198.55
-212.05
-225.41
-238.20
-251.27
-265.68
-282.07
-298.81
-312.59
-320.75
-321.47
-314.18
-298.05
-273.02
-239.46
-198.71
-156.07
-111.71
-66.93
-23.97
14.68
47.64
74.05
93.55
105.87
111.01
109.95
103.66
94.20
84.45
77.57
75.56
78.49
84.05
88.18
87.05
77.60
59.22
33.87
5.33
-22.27
-45.52
-62.51
-73.04
-78.11
-80.09
-81.63
-84.89
-90.96
-99.87
-110.78
-122.57
-134.12
-144.29
-151.99
-155.66
-153.22
-142.66
-122.83
-94.32
-59.60
-22.55
12.74
42.97
66.42
82.93
93.44
99.35
102.26
103.96
106.47
111.78
121.16
134.37
149.33
162.70
171.15
172.71
167.61
157.84
146.06
134.26
123.04
111.86
99.97
87.25
74.49
62.97
53.63
46.58
41.09
36.08
30.71
24.70
18.12
11.09
3.39
-5.48
-16.08
-28.60
-42.64
-57.24
-71.16
-83.21
-92.65
-99.29
-103.54
-106.23
-108.36
-110.75
-113.77
-117.22
-120.45
-122.75
-123.70
-123.43
-122.43
-121.31
-120.38
-119.39
-117.67
-114.38
-108.83
-100.69
-90.03
-77.22
-62.90
-47.94
-33.36
-20.24
-9.54
-1.95
2.28
3.26
1.41
-2.55
-7.66
-12.78
-16.79
-18.90
-18.93
-17.42
-15.42
-13.97
-13.60
-14.06
-14.56
-14.24
-12.76
-10.61
-8.99
-9.33
-12.70
-19.42
-28.80
-39.44
-49.59
-57.62
-62.46
-63.72
-61.73
-57.33
-51.73
-46.20
-41.98
-39.97
-40.52
-43.36
-47.65
-52.26
-56.17
-58.75
-59.89
-59.83
-58.83
-57.08
-54.52
-51.07
-46.66
-41.29
-34.98
-27.63
-18.97
-8.63
3.65
17.58
32.10
45.49
55.88
62.18
64.66
65.04
65.82
69.13
75.82
85.21
95.62
105.31
113.13
118.68
121.88
122.52
120.17
114.40
105.33
93.83
81.42
69.68
59.80
52.13
46.24
41.17
35.86
29.60
22.22
14.13
6.03
-1.43
-7.91
-13.48
-18.40
-22.98
-27.32
-31.47
-35.38
-38.99
-42.10
-44.28
-44.82
-42.90
-37.96
-29.96
-19.56
-7.96
3.59
14.07
22.94
30.17
35.94
40.47
43.83
45.99
46.94
46.80
45.84
44.40
42.72
40.96
39.16
37.35
35.62
34.11
32.93
31.99
31.00
29.43
26.68
22.23
15.82
7.61
-1.75
-11.23
-19.52
-25.36
-27.73
-26.14
-20.64
-11.76
-0.39
12.38
25.40
37.55
47.85
55.56
60.21
61.66
60.07
55.89
49.79
42.66
35.43
28.95
23.74
19.94
17.32
15.34
13.41
11.05
8.06
4.57
0.98
-2.13
-4.26
-5.16
-4.96
-4.11
-3.14
-2.35
-1.46
0.39
4.50
12.07
23.82
39.64
58.62
79.24
99.93
119.48
137.36
153.69
168.99
183.81
198.41
212.55
225.51
236.06
242.50
242.71
234.67
217.23
191.04
159.06
126.03
96.95
75.17
61.08
52.31
45.31
37.42
28.18
19.01
11.58
6.16
1.00
-6.62
-18.53
-34.25
-51.09
-65.78
-76.56
-84.17
-91.24
-100.51
-112.83
-126.72
-139.44
-148.78
-154.64
-159.16
-165.36
-175.01
-187.31
-198.97
-205.81
-204.72
-194.95
-178.49
-159.04
-140.41
-124.92
-112.92
-103.58
-96.14
-90.98
-89.05
-91.56
-99.02
-110.98
-125.65
-140.71
-154.19
-165.03
-172.96
-177.22
-176.92
-171.43
-161.39
-147.78
-131.72
-113.98
-94.65
-73.35
-48.49
-18.78
15.98
53.75
92.09
128.34
160.26
186.72
202.10
203.89
195.06
183.78
177.54
179.64
187.50
195.67
199.94
199.25
195.91
192.04
191.88
189.16
176.77
150.58
111.37
64.57
17.91
-21.03
-47.89
-62.67
-69.61
-73.08
-75.79
-77.96
-77.93
-73.29
-61.76
-42.62
-17.44
9.45
33.25
49.52
55.15
49.09
32.57
8.96
-17.19
-41.26
-59.96
-71.17
-74.60
-71.79
-65.46
-58.56
-53.22
-50.23
-49.05
-48.49
-46.95
-43.09
-36.25
-26.36
-13.90
0.13
14.27
26.87
36.47
42.50
45.56
47.18
49.11
52.50
57.32
62.37
66.09
67.39
66.21
63.39
59.91
56.22
51.82
45.49
35.87
22.13
4.33
-16.65
-39.37
-62.25
-83.76
-102.50
-117.11
-126.39
-129.43
-125.95
-116.43
-102.15
-84.77
-65.85
-46.23
-25.89
-4.19
19.37
44.42
69.43
91.95
109.48
120.34
124.33
122.77
118.04
112.71
108.78
107.10
107.29
108.00
107.58
104.64
98.51
89.22
77.26
63.13
47.10
29.31
10.10
-9.72
-28.79
-45.58
-58.85
-68.10
-73.69
-76.62
-78.08
-79.09
-80.22
-81.60
-83.10
-84.48
-85.56
-86.22
-86.38
-86.00
-85.00
-83.35
-81.08
-78.32
-75.29
-72.24
-69.29
-66.31
-62.91
-58.50
-52.55
-44.75
-35.15
-24.13
-12.25
-0.11
11.75
22.87
32.74
40.73
46.10
48.13
46.34
40.74
31.86
20.76
8.71
-3.09
-13.72
-22.70
-29.95
-35.81
-40.85
-45.68
-50.67
-55.96
-61.40
-66.61
-71.05
-74.30
-76.18
-76.77
-76.44
-75.67
-74.90
-74.61
-74.92
-75.52
-75.70
-74.59
-71.45
-65.96
-58.33
-49.33
-40.55
-33.35
-28.42
-25.66
-24.50
-24.26
-24.42
-24.90
-26.10
-29.81
-37.20
-48.24
-61.71
-75.77
-88.65
-99.02
-106.31
-110.62
-114.50
-119.65
-126.43
-133.88
-140.67
-145.75
-148.66
-149.71
-149.29
-150.14
-152.58
-154.68
-152.95
-144.12
-126.25
-98.67
-61.94
-4.17
77.59
177.47
281.11
372.68
441.27
482.35
496.40
486.04
460.63
422.14
373.72
319.97
265.85
215.08
169.31
128.27
88.18
46.22
-2.29
-59.13
-123.27
-191.38
-258.74
-320.40
-359.08
-363.76
-334.79
-284.76
-228.02
-173.70
-124.54
-80.39
-41.73
-14.17
0.27
1.10
-9.56
-25.51
-39.45
-46.50
-46.11
-41.63
-36.35
-35.68
-43.62
-60.26
-80.69
-97.10
-101.84
-90.23
-61.91
-20.71
25.97
70.05
105.70
130.69
145.65
152.52
153.20
149.14
141.51
131.10
118.85
106.13
94.47
84.84
77.20
70.69
64.13
56.71
48.09
38.47
28.47
18.84
10.03
2.16
-4.76
-10.53
-14.60
-16.29
-15.05
-10.74
-3.86
4.59
13.33
21.17
27.19
30.92
32.31
31.65
29.56
26.77
23.97
21.64
19.99
18.92
18.19
17.49
16.61
15.52
14.30
13.09
11.96
10.89
9.73
8.23
6.18
3.40
-0.17
-4.51
-9.52
-15.00
-20.67
-26.05
-30.43
-32.99
-32.94
-29.78
-23.53
-14.75
-4.42
6.31
16.38
25.03
31.83
36.64
39.59
40.97
41.21
40.82
40.22
39.71
39.46
39.47
39.74
40.31
41.24
42.54
44.10
45.68
46.98
47.76
47.91
47.41
46.25
44.28
41.29
37.10
31.64
25.01
17.20
8.01
-3.02
-16.30
-31.73
-48.38
-64.58
-78.31
-88.04
-93.12
-93.95
-91.57
-87.13
-81.49
-75.20
-68.67
-62.38
-56.92
-52.70
-49.72
-47.41
-44.86
-41.12
-35.51
-27.85
-18.47
-8.08
2.47
12.37
21.03
28.23
34.11
39.19
44.17
49.67
56.04
63.24
70.83
78.19
84.74
90.16
94.54
98.30
102.05
106.38
111.62
117.72
124.28
130.59
135.73
138.73
138.73
135.14
127.83
117.23
104.23
90.04
75.90
62.87
51.70
42.76
36.04
31.15
27.29
23.40
18.40
11.38
1.88
-10.15
-24.40
-40.51
-58.16
-77.09
-97.01
-117.37
-137.24
-155.32
-170.10
-180.14
-184.44
-182.67
-175.31
-163.49
-148.67
-132.25
-115.34
-98.59
-82.35
-66.87
-52.52
-39.84
-29.40
-21.67
-16.66
-13.91
-12.53
-11.51
-10.05
-7.79
-4.87
-1.66
1.56
4.85
8.61
13.44
19.72
27.41
35.96
44.46
51.86
57.22
59.78
59.05
54.89
47.41
37.06
24.56
10.70
-3.69
-17.94
-31.40
-43.52
-53.69
-61.33
-66.07
-67.90
-67.31
-65.08
-61.92
-58.03
-52.83
-45.24
-34.25
-19.68
-2.60
14.91
30.51
42.45
50.07
53.61
53.52
49.76
41.43
27.04
5.15
-24.80
-61.85
-103.23
-144.30
-179.04
-200.91
-204.28
-186.12
-147.35
-93.14
-31.80
27.50
77.33
113.85
137.17
150.24
156.99
160.48
162.01
161.29
157.26
149.07
136.62
120.67
102.47
83.45
64.99
48.43
35.08
26.02
21.87
22.43
26.42
31.76
35.98
37.09
34.15
27.59
18.95
10.26
3.25
-1.18
-3.02
-2.80
-1.09
1.97
6.79
14.00
23.99
36.57
50.83
65.40
78.93
90.53
99.97
107.55
113.80
119.11
123.62
127.20
129.73
131.24
131.96
132.22
132.22
131.99
131.41
130.44
129.05
126.99
123.42
116.93
105.85
88.99
66.32
38.97
8.73
-22.84
-55.17
-88.66
-123.94
-160.84
-197.70
-231.61
-259.26
-278.09
-287.09
-286.99
-279.79
-268.09
-254.30
-240.17
-226.42
-212.81
-198.38
-181.92
-162.47
-139.78
-114.43
-87.68
-61.05
-35.83
-12.76
7.95
26.52
43.52
59.92
77.10
96.65
119.86
147.04
176.87
206.34
231.43
248.33
254.45
248.97
232.44
206.14
171.53
130.42
85.36
39.99
-1.40
-34.98
-58.74
-73.03
-80.20
-83.24
-84.57
-85.45
-86.31
-87.64
-90.35
-95.27
-101.95
-107.93
-109.26
-102.31
-85.89
-62.34
-36.67
-14.23
1.64
10.60
14.37
14.69
11.64
3.40
-12.42
-36.81
-67.96
-101.14
-129.96
-148.38
-152.36
-141.03
-116.69
-84.16
-49.28
-17.34
8.20
26.18
37.36
43.51
46.40
47.35
47.27
46.98
47.30
48.79
51.54
54.74
56.80
55.83
50.39
40.11
26.10
10.58
-3.81
-14.93
-21.88
-25.12
-26.06
-26.24
-26.64
-27.40
-27.91
-27.40
-25.34
-21.72
-16.93
-11.52
-5.97
-0.65
4.11
7.94
10.42
11.11
9.79
6.45
1.37
-4.96
-11.96
-18.98
-25.34
-30.29
-33.12
-33.26
-30.53
-25.33
-18.55
-11.51
-5.50
-1.51
0.04
-0.67
-3.03
-6.29
-9.83
-13.25
-16.37
-19.04
-21.13
-22.49
-23.02
-22.80
-21.96
-20.65
-18.85
-16.42
-13.15
-8.97
-3.96
1.58
7.33
13.06
18.69
24.24
29.64
34.68
38.98
42.07
43.66
43.75
42.69
41.08
39.51
38.32
37.46
36.48
34.79
31.88
27.59
22.10
15.86
9.42
3.27
-2.18
-6.59
-9.68
-11.26
-11.31
-9.92
-7.23
-3.29
2.00
8.78
17.16
26.96
37.68
48.52
58.62
67.18
73.69
77.92
79.84
79.50
76.93
72.13
65.21
56.47
46.49
36.05
25.94
16.82
9.04
2.66
-2.47
-6.57
-9.88
-12.64
-15.12
-17.57
-20.28
-23.50
-27.39
-32.02
-37.29
-42.96
-48.66
-53.96
-58.59
-62.44
-65.62
-68.35
-70.85
-73.22
-75.41
-77.30
-78.69
-79.39
-79.24
-78.11
-75.99
-72.99
-69.26
-65.02
-60.41
-55.56
-50.70
-46.14
-42.29
-39.30
-36.85
-34.06
-29.72
-22.83
-13.12
-1.20
11.72
24.44
36.27
47.23
57.78
68.41
79.18
89.74
99.43
107.64
113.99
118.32
120.65
121.00
119.45
116.18
111.57
106.22
100.94
96.64
94.14
93.97
96.09
99.84
103.95
106.92
107.38
104.49
97.99
88.03
74.76
58.20
38.33
15.54
-8.99
-33.36
-55.32
-72.98
-85.25
-91.92
-93.30
-89.88
-82.17
-70.74
-56.44
-40.33
-23.39
-6.18
11.31
29.44
48.60
68.79
89.44
109.32
126.66
139.34
145.27
143.04
132.41
114.44
91.05
64.23
35.36
5.20
-25.37
-54.37
-78.27
-92.59
-93.53
-79.71
-53.23
-19.38
14.95
43.29
61.30
67.30
61.80
46.11
21.41
-11.79
-53.37
-102.94
-159.50
-221.65
-288.21
-358.29
-430.37
-500.71
-562.02
-603.87
-615.34
-589.24
-526.09
-435.57
-334.20
-239.97
-166.36
-118.29
-91.70
-76.67
-62.15
-40.35
-8.91
29.47
69.19
104.44
131.24
148.34
156.82
159.11
157.82
154.99
151.89
149.29
147.73
147.62
148.91
150.74
151.89
150.91
146.67
139.08
129.24
119.20
111.05
105.85
103.02
101.33
98.78
93.29
83.55
69.78
54.14
40.08
30.80
27.70
30.97
38.61
47.17
53.30
55.29
54.08
52.79
55.00
63.10
79.40
104.53
137.51
176.14
217.46
258.56
296.84
329.98
344.47
330.40
285.46
217.91
142.87
74.30
20.39
-17.16
-40.93
-55.49
-63.84
-67.14
-67.14
-65.32
-63.31
-62.12
-62.82
-66.20
-72.65
-80.66
-88.37
-94.63
-98.37
-100.00
-100.06
-100.03
-101.07
-103.75
-106.96
-108.94
-108.04
-103.13
-94.28
-81.94
-69.03
-59.42
-56.84
-63.27
-78.83
-102.25
-131.50
-165.02
-195.06
-215.51
-222.56
-215.94
-198.18
-173.45
-146.74
-122.86
-108.87
-102.71
-100.56
-98.03
-92.07
-82.54
-72.63
-67.66
-71.50
-86.70
-111.27
-140.48
-166.67
-180.77
-174.43
-142.58
-85.56
-9.94
72.42
148.33
205.69
238.03
246.27
237.54
221.70
207.29
198.58
194.93
192.93
187.93
176.78
158.90
135.96
110.57
85.32
62.29
43.05
29.16
21.67
21.09
27.03
38.06
51.93
66.19
78.85
88.80
96.07
101.36
105.65
109.66
113.65
117.47
120.85
123.75
126.58
130.10
135.01
141.22
147.38
151.07
149.76
142.28
130.04
117.00
108.36
108.24
117.73
134.27
152.85
168.24
177.06
178.62
174.30
166.27
156.17
144.64
131.40
115.51
95.57
69.88
36.84
-4.54
-53.84
-108.90
-166.23
-222.10
-273.91
-321.03
-364.66
-406.91
-449.35
-491.89
-532.17
-565.81
-587.23
-591.07
-573.76
-534.79
-477.34
-407.71
-333.95
-264.03
-204.26
-158.45
-127.76
-111.05
-105.16
-105.38
-106.09
-101.89
-88.96
-66.18
-35.39
-0.46
34.24
65.22
90.51
109.52
122.59
130.67
135.32
138.85
144.07
153.56
168.71
189.05
212.22
234.71
253.04
264.80
269.23
266.88
258.74
245.41
226.76
202.47
172.97
140.21
107.60
78.94
56.90
42.05
32.98
27.57
24.35
23.37
25.77
32.68
44.10
58.59
73.79
87.34
97.80
104.78
108.70
110.22
109.84
107.79
104.17
99.13
93.01
86.30
79.43
72.43
64.62
54.61
40.76
21.96
-1.61
-28.35
-55.77
-81.67
-105.08
-126.55
-147.47
-168.99
-191.35
-214.03
-236.51
-258.73
-280.75
-301.59
-318.31
-326.47
-322.00
-303.45
-273.22
-236.57
-199.26
-164.95
-134.43
-106.75
-81.33
-59.41
-43.49
-35.47
-34.65
-37.39
-38.56
-33.95
-22.06
-4.17
17.11
39.75
63.47
89.43
118.84
151.61
185.81
218.37
246.50
268.91
285.92
298.68
307.93
313.46
314.51
310.96
304.21
297.01
292.27
291.49
293.92
296.98
297.71
294.22
286.30
274.99
261.61
246.86
230.60
212.31
191.59
168.56
143.63
117.13
89.04
59.06
27.19
-5.80
-38.06
-67.16
-90.91
-108.32
-120.02
-127.94
-134.29
-140.55
-146.85
-152.26
-155.50
-155.76
-152.98
-147.70
-140.54
-131.92
-122.02
-111.10
-99.70
-88.74
-79.26
-72.02
-67.25
-64.55
-63.07
-61.87
-60.16
-57.58
-54.18
-50.19
-45.85
-41.18
-36.06
-30.44
-24.69
-19.60
-16.19
-15.26
-16.97
-20.77
-25.59
-30.38
-34.48
-37.83
-40.68
-43.35
-45.96
-48.43
-50.58
-52.25
-53.34
-53.68
-53.05
-51.12
-47.69
-42.80
-36.83
-30.33
-23.81
-17.61
-11.80
-6.31
-1.13
3.59
7.51
10.27
11.72
11.98
11.43
10.51
9.52
8.43
7.00
4.97
2.25
-0.89
-3.97
-6.45
-7.95
-8.49
-8.40
-8.22
-8.44
-9.30
-10.76
-12.57
-14.44
-16.20
-17.83
-19.35
-20.84
-22.27
-23.61
-24.93
-26.39
-28.12
-30.10
-31.89
-32.70
-31.60
-27.96
-21.67
-13.19
-3.33
6.61
15.79
24.18
32.28
40.67
49.67
58.90
67.90
76.43
83.95
90.22
95.43
100.28
105.56
112.23
120.76
131.48
144.53
158.43
171.65
183.58
194.84
206.62
220.64
237.38
256.97
279.03
298.82
311.86
316.30
313.36
305.54
295.98
284.05
268.63
249.10
217.85
169.76
105.86
32.87
-41.77
-110.93
-175.76
-237.79
-296.54
-362.09
-441.71
-534.60
-632.35
-725.47
-803.88
-869.58
-925.19
-971.35
-1023.32
-1092.93
-1180.00
-1272.06
-1353.34
-1407.35
-1435.31
-1442.24
-1334.34
-1063.71
-654.29
-193.59
227.81
523.61
722.68
856.83
947.61
1007.37
1034.42
1021.82
972.80
902.51
829.11
771.16
729.21
700.05
680.78
657.06
617.24
560.10
494.56
432.46
386.31
355.06
334.82
321.71
304.51
273.36
225.14
163.77
96.06
30.49
-32.13
-92.05
-149.43
-208.13
-271.80
-341.12
-413.97
-487.80
-559.81
-630.39
-698.26
-758.75
-805.57
-831.74
-831.70
-803.96
-752.41
-684.65
-610.24
-536.53
-467.18
-402.89
-343.44
-289.06
-240.68
-199.30
-164.88
-136.10
-110.86
-87.37
-64.86
-43.63
-24.75
-9.05
3.43
13.71
23.41
34.14
46.73
60.90
75.36
88.20
97.66
102.60
102.71
98.40
90.43
79.52
66.13
50.48
32.75
13.35
-6.87
-26.69
-44.68
-59.48
-70.07
-75.94
-77.09
-73.89
-66.95
-56.98
-44.71
-30.89
-16.24
-1.53
12.54
25.37
36.52
45.78
53.11
58.70
62.85
66.00
68.63
71.24
74.35
78.40
83.83
91.01
100.25
111.73
125.54
141.62
159.74
179.51
200.36
221.56
242.25
261.47
278.22
291.54
300.57
304.65
303.36
296.60
284.58
267.79
246.97
223.00
196.86
169.50
141.80
114.53
88.32
63.66
40.92
20.34
2.04
-14.00
-27.88
-39.82
-50.02
-58.65
-65.78
-71.37
-75.35
-77.65
-78.30
-77.45
-75.31
-72.11
-67.88
-62.49
-55.60
-46.79
-35.67
-22.08
-6.10
11.92
31.58
52.55
74.76
98.39
123.76
151.15
180.55
211.68
243.91
276.41
308.45
339.52
369.59
399.31
430.04
463.42
500.58
541.04
582.18
619.34
647.02
660.26
655.96
633.47
594.35
541.63
479.00
410.31
339.33
269.43
203.08
141.30
83.35
26.97
-30.50
-91.06
-155.08
-221.36
-287.89
-353.10
-416.66
-479.17
-540.83
-600.33
-654.65
-699.98
-733.25
-753.17
-759.95
-754.34
-736.44
-705.76
-661.96
-606.08
-541.08
-471.09
-399.91
-329.75
-260.88
-192.26
-122.82
-52.48
17.26
83.68
143.67
194.97
237.56
274.13
308.85
345.21
383.68
420.68
449.90
465.20
463.50
445.94
416.90
381.52
343.74
305.84
269.35
236.15
208.70
189.09
177.97
174.45
177.11
185.46
200.79
225.63
262.08
310.34
367.84
429.69
489.67
541.29
578.70
597.38
594.78
571.25
529.52
473.97
409.39
339.92
268.19
195.19
120.65
43.83
-35.07
-114.66
-192.11
-263.49
-324.68
-372.76
-407.10
-429.61
-443.53
-450.61
-451.18
-444.37
-429.33
-406.50
-378.08
-347.41
-317.65
-290.85
-265.30
-240.97
-221.43
-212.95
-220.82
-245.68
-282.47
-322.72
-358.20
-377.61
-375.80
-353.84
-316.07
-265.80
-203.35
-127.71
-39.65
57.17
167.07
290.97
425.14
562.09
694.58
818.75
934.33
1042.48
1143.77
1249.62
1363.55
1477.39
1573.29
1632.47
1644.01
1608.52
1536.14
1361.60
1066.11
678.34
263.00
-117.36
-429.89
-670.38
-848.17
-975.19
-1061.67
-1103.37
-1100.54
-1062.03
-1003.61
-940.86
-884.67
-837.01
-796.40
-761.11
-720.60
-669.20
-608.22
-544.63
-485.98
-436.34
-395.80
-363.20
-337.75
-313.42
-287.08
-259.25
-233.21
-211.90
-195.63
-182.32
-169.77
-156.89
-140.93
-121.15
-98.84
-76.58
-56.65
-40.05
-26.70
-16.48
-9.54
-5.04
-2.21
-0.34
1.19
3.12
6.19
10.84
16.74
23.13
29.24
34.91
40.90
48.58
59.22
73.20
89.47
105.65
118.93
127.30
130.49
130.18
129.29
130.49
134.69
140.33
143.63
139.97
125.41
97.73
56.94
4.92
-54.95
-118.09
-178.61
-230.53
-269.32
-293.93
-307.45
-315.39
-321.92
-326.35
-322.60
-302.31
-260.84
-201.91
-138.24
-87.01
-62.96
-72.84
-113.75
-175.54
-244.95
-309.22
-357.96
-383.99
-384.28
-360.77
-320.33
-272.84
-227.79
-191.31
-165.00
-147.01
-134.39
-124.76
-115.86
-104.49
-86.03
-55.87
-12.30
41.29
96.77
144.26
176.20
190.48
190.56
183.06
174.08
166.76
160.84
154.48
146.70
138.91
134.63
137.45
148.72
166.33
185.30
199.82
205.60
201.19
187.94
168.90
147.12
124.71
102.67
81.26
60.54
40.78
22.55
6.64
-6.16
-15.31
-20.71
-22.85
-22.53
-20.39
-16.49
-10.08
-0.14
13.92
31.55
50.98
69.83
86.09
98.84
108.37
115.68
121.68
126.56
129.67
129.86
126.04
117.61
104.46
86.78
64.78
38.71
9.14
-22.66
-54.64
-84.40
-109.85
-129.91
-144.70
-155.04
-161.70
-164.67
-163.14
-156.01
-142.67
-123.56
-99.99
-73.59
-45.53
-16.22
14.46
46.53
79.29
110.96
138.96
160.57
173.76
177.97
174.32
165.48
154.83
145.57
139.77
137.96
139.21
141.80
143.96
144.53
143.08
139.61
133.97
125.36
112.35
93.19
66.44
31.53
-11.02
-59.60
-111.72
-164.21
-213.41
-255.35
-286.14
-302.50
-302.54
-286.31
-255.99
-215.57
-169.95
-123.88
-80.95
-43.20
-11.13
15.59
37.46
54.55
66.46
72.65
72.94
67.84
58.61
46.80
33.83
20.56
7.25
-6.21
-20.01
-34.04
-47.80
-60.41
-70.77
-77.79
-80.63
-78.87
-72.61
-62.40
-49.12
-33.80
-17.44
-0.99
14.65
28.61
40.16
48.76
54.27
56.93
57.21
55.60
52.41
47.76
41.73
34.63
27.09
19.94
13.93
9.46
6.39
4.23
2.39
0.50
-1.47
-3.28
-4.61
-5.34
-5.60
-5.74
-6.17
-7.25
-9.18
-11.97
-15.49
-19.43
-23.33
-26.56
-28.43
-28.30
-25.72
-20.67
-13.56
-5.23
3.23
10.75
16.54
20.24
21.90
21.85
20.50
18.18
15.14
11.62
7.92
4.42
1.51
-0.60
-1.96
-2.93
-3.97
-5.49
-7.68
-10.46
-13.58
-16.72
-19.63
-22.30
-24.93
-27.95
-31.87
-37.03
-43.33
-50.10
-56.18
-60.27
-61.35
-59.22
-54.59
-48.93
-43.92
-40.91
-40.43
-42.16
-45.16
-48.37
-51.17
-53.55
-56.20
-60.22
-66.89
-77.27
-91.76
-109.42
-127.49
-141.31
-145.11
-133.67
-104.19
-57.61
1.32
65.39
126.98
179.91
220.19
245.88
256.31
251.79
233.81
205.63
172.44
140.51
115.47
100.59
95.86
98.49
104.36
109.87
113.02
113.36
111.19
106.49
98.62
86.81
70.96
52.22
32.80
15.06
0.51
-10.70
-19.46
-26.76
-32.97
-37.60
-39.82
-39.30
-36.60
-33.06
-29.94
-27.59
-25.20
-21.27
-14.55
-4.91
6.36
17.06
24.97
28.86
28.89
26.34
22.88
19.74
17.28
15.11
12.46
8.68
3.39
-3.55
-12.22
-22.78
-35.35
-49.85
-65.79
-82.28
-98.17
-112.25
-123.38
-130.50
-132.59
-128.73
-118.26
-101.02
-77.53
-49.10
-17.80
13.73
42.57
66.02
82.16
90.19
90.52
84.44
73.55
59.34
43.00
25.51
7.82
-8.98
-23.90
-36.20
-45.70
-52.72
-57.89
-61.90
-65.32
-68.64
-72.26
-76.52
-81.59
-87.30
-92.96
-97.44
-99.31
-97.21
-90.35
-78.89
-64.16
-48.38
-33.90
-22.30
-13.81
-7.29
-0.88
7.09
17.27
29.16
41.40
52.48
61.28
67.26
70.43
71.12
69.81
67.16
63.96
61.02
59.06
58.46
59.20
60.87
62.77
64.14
64.40
63.27
60.85
57.51
53.69
49.72
45.70
41.52
36.98
31.96
26.50
20.86
15.44
10.59
6.60
3.51
1.22
-0.53
-2.09
-3.81
-5.92
-8.50
-11.43
-14.47
-17.31
-19.71
-21.55
-22.78
-23.30
-22.94
-21.44
-18.59
-14.39
-9.23
-3.91
0.59
3.37
4.01
2.76
0.53
-1.30
-1.37
1.32
7.03
15.34
25.20
35.21
43.84
49.58
51.11
47.61
39.07
26.59
12.38
-0.61
-9.50
-12.32
-8.59
0.55
12.84
25.54
36.17
42.87
44.47
40.35
30.49
15.54
-2.94
-22.61
-40.73
-54.96
-64.09
-68.31
-69.03
-68.14
-67.22
-67.01
-67.41
-67.74
-67.14
-64.78
-59.90
-51.82
-40.12
-24.92
-7.12
11.54
28.80
42.42
50.74
53.04
49.70
42.01
31.88
21.46
12.73
7.11
5.15
6.48
9.95
14.04
17.37
19.15
19.34
18.64
18.16
19.10
22.45
28.74
37.99
49.71
62.90
76.09
87.52
95.38
98.12
94.72
84.96
69.39
49.19
25.92
1.23
-23.34
-46.43
-66.83
-83.48
-95.54
-102.48
-104.33
-101.66
-95.50
-87.05
-77.35
-67.11
-56.61
-45.90
-35.06
-24.36
-14.39
-5.84
0.63
4.63
6.13
5.47
3.22
0.01
-3.57
-7.09
-10.20
-12.69
-14.36
-15.15
-15.10
-14.51
-13.78
-13.35
-13.47
-14.07
-14.70
-14.74
-13.58
-10.94
-6.93
-2.05
3.15
8.23
13.10
17.93
22.93
28.10
33.04
36.98
38.94
38.05
33.83
26.44
16.68
5.94
-4.04
-11.56
-15.34
-14.78
-10.09
-2.30
7.03
16.08
23.18
27.16
27.60
24.95
20.41
15.67
12.32
11.40
13.07
16.56
20.51
23.33
23.76
21.15
15.66
8.11
-0.22
-7.96
-13.99
-17.74
-19.31
-19.41
-19.07
-19.26
-20.57
-22.98
-25.95
-28.61
-30.06
-29.65
-27.10
-22.57
-16.58
-9.85
-3.11
3.15
8.82
14.16
19.68
25.85
32.80
40.16
47.17
52.89
56.59
57.89
56.79
53.51
48.29
41.36
32.97
23.58
13.91
4.84
-2.77
-8.36
-11.78
-13.33
-13.57
-13.19
-12.75
-12.69
-13.21
-14.25
-15.52
-16.53
-16.76
-15.79
-13.51
-10.21
-6.51
-3.22
-1.09
-0.52
-1.49
-3.49
-5.81
-7.70
-8.64
-8.45
-7.26
-5.36
-3.11
-0.83
1.17
2.56
3.13
2.83
1.86
0.70
-0.08
-0.03
0.97
2.72
4.86
7.07
9.25
11.44
13.66
15.70
17.08
17.05
14.83
9.82
1.72
-9.32
-22.69
-37.30
-51.74
-64.49
-74.20
-79.99
-81.61
-79.36
-73.84
-65.72
-55.57
-43.87
-31.12
-17.96
-5.18
6.39
16.09
23.52
28.59
31.41
32.19
31.19
28.73
25.17
20.99
16.64
12.50
8.77
5.51
2.71
0.34
-1.63
-3.20
-4.48
-5.63
-6.79
-7.91
-8.75
-8.88
-7.89
-5.59
-2.07
2.34
7.24
12.36
17.53
22.61
27.29
31.02
33.08
32.83
29.94
24.63
17.64
10.09
3.21
-1.96
-4.76
-4.99
-2.87
1.14
6.40
12.23
17.98
23.02
26.82
28.87
28.79
26.27
21.20
13.79
4.74
-4.75
-13.12
-18.75
-20.43
-17.74
-11.03
-1.38
9.83
21.23
31.64
40.10
45.87
48.33
47.09
41.97
33.12
21.02
6.45
-9.63
-26.13
-41.92
-55.96
-67.25
-74.95
-78.39
-77.22
-71.48
-61.73
-49.02
-34.78
-20.57
-7.86
2.20
8.92
12.12
12.17
9.83
6.18
2.39
-0.55
-1.99
-1.75
-0.08
2.43
5.11
7.34
8.68
8.97
8.31
6.95
5.25
3.54
1.99
0.61
-0.76
-2.36
-4.39
-6.93
-9.90
-13.08
-16.17
-18.87
-20.92
-22.15
-22.53
-22.15
-21.25
-20.11
-18.99
-18.05
-17.26
-16.44
-15.30
-13.53
-10.97
-7.67
-3.89
-0.09
3.27
5.86
7.56
8.48
8.89
9.05
9.16
9.32
9.58
9.94
10.44
11.05
11.71
12.33
12.79
13.01
13.02
12.94
12.97
13.32
14.08
15.20
16.48
17.64
18.41
18.59
18.07
16.81
14.85
12.24
9.18
6.00
3.12
0.86
-0.67
-1.64
-2.45
-3.44
-4.76
-6.28
-7.69
-8.77
-9.47
-9.96
-10.48
-11.16
-11.92
-12.52
-12.72
-12.44
-11.77
-10.94
-10.18
-9.53
-8.92
-8.12
-7.00
-5.60
-4.16
-3.03
-2.53
-2.78
-3.62
-4.70
-5.58
-5.87
-5.39
-4.24
-2.82
-1.71
-1.61
-3.11
-6.40
-11.22
-16.85
-22.38
-27.00
-30.28
-32.27
-33.25
-33.53
-33.19
-32.08
-29.97
-26.74
-22.59
-17.94
-13.35
-9.27
-5.96
-3.48
-1.81
-0.90
-0.68
-1.11
-2.04
-3.28
-4.65
-5.99
-7.27
-8.53
-9.84
-11.20
-12.45
-13.32
-13.48
-12.72
-11.03
-8.57
-5.65
-2.63
0.22
2.78
5.01
6.99
8.72
10.18
11.26
11.86
11.92
11.53
10.91
10.40
10.34
10.96
12.30
14.19
16.29
18.20
19.59
20.24
20.09
19.21
17.81
16.17
14.56
13.19
12.12
11.27
10.41
9.34
7.91
6.18
4.37
2.81
1.86
1.74
2.50
4.04
6.13
8.47
10.75
12.68
14.06
14.84
15.09
14.99
14.75
14.56
14.47
14.49
14.55
14.60
14.66
14.75
14.88
14.99
15.02
14.87
14.48
13.88
13.08
12.12
11.02
9.78
8.42
6.98
5.51
4.01
2.46
0.78
-1.06
-3.02
-4.98
-6.79
-8.24
-9.18
-9.47
-8.98
-7.67
-5.56
-2.84
0.18
3.11
5.60
7.46
8.63
9.19
9.24
8.90
8.27
7.51
6.77
6.21
5.94
5.92
6.02
6.09
6.04
5.83
5.56
5.28
5.04
4.83
4.62
4.39
4.12
3.79
3.34
2.66
1.66
0.32
-1.29
-3.01
-4.63
-5.99
-6.94
-7.47
-7.55
-7.17
-6.30
-4.96
-3.21
-1.20
0.87
2.81
4.50
5.91
7.00
7.71
7.98
7.77
7.18
6.42
5.76
5.45
5.54
5.92
6.33
6.53
6.38
5.87
5.08
4.14
3.15
2.18
1.26
0.42
-0.37
-1.18
-2.09
-3.17
-4.38
-5.65
-6.85
-7.96
-9.08
-10.38
-12.04
-14.06
-16.24
-18.19
-19.42
-19.60
-18.61
-16.61
-13.98
-11.15
-8.48
-6.16
-4.19
-2.46
-0.81
0.87
2.62
4.40
6.12
7.66
8.88
9.63
9.74
9.04
7.48
5.12
2.17
-1.08
-4.34
-7.37
-10.03
-12.18
-13.69
-14.38
-14.03
-12.52
-9.85
-6.21
-2.06
2.08
5.63
8.23
9.72
10.28
10.27
10.19
10.42
11.18
12.46
14.06
15.70
17.14
18.24
18.98
19.39
19.48
19.22
18.53
17.35
15.71
13.78
11.79
10.02
8.86
8.75
10.25
13.85
19.72
27.49
36.10
44.06
49.87
52.51
51.77
48.20
42.75
36.37
29.75
23.34
17.53
12.74
9.45
7.91
8.02
9.21
10.66
11.62
11.64
10.64
8.79
6.37
3.54
0.35
-3.20
-7.04
-11.06
-15.06
-18.85
-22.25
-25.12
-27.30
-28.62
-28.94
-28.22
-26.58
-24.26
-21.60
-18.92
-16.47
-14.33
-12.47
-10.80
-9.23
-7.80
-6.71
-6.33
-7.07
-9.21
-12.81
-17.58
-22.92
-28.01
-31.98
-34.10
-33.97
-31.53
-27.17
-21.57
-15.58
-10.12
-5.98
-3.76
-3.79
-6.14
-10.61
-16.71
-23.70
-30.77
-37.08
-41.95
-44.94
-45.90
-44.94
-42.38
-38.70
-34.44
-30.07
-25.93
-22.21
-18.93
-15.97
-13.20
-10.50
-7.74
-4.86
-1.82
1.29
4.27
6.80
8.52
9.14
8.57
6.90
4.44
1.64
-0.96
-2.86
-3.69
-3.28
-1.79
0.39
2.68
4.57
5.77
6.28
6.36
6.40
6.73
7.43
8.37
9.22
9.65
9.50
8.86
8.06
7.47
7.34
7.60
7.89
7.76
6.93
5.56
4.22
3.74
4.91
8.30
14.07
21.90
30.94
39.89
47.34
52.22
54.23
53.93
52.42
50.67
49.01
47.04
44.16
40.36
36.67
34.86
36.48
41.79
49.31
56.40
60.52
60.72
58.19
55.80
56.90
63.81
76.87
94.31
112.87
128.40
136.68
134.34
120.14
96.47
70.22
52.06
53.66
83.35
142.06
221.84
307.88
383.48
435.73
459.11
455.67
432.14
396.00
352.69
305.02
254.22
201.47
148.54
97.27
48.67
2.32
-43.20
-89.13
-135.61
-181.25
-223.97
-261.94
-294.70
-323.72
-352.24
-384.42
-423.73
-471.17
-523.95
-575.65
-618.00
-643.69
-649.26
-636.32
-610.74
-579.98
-550.03
-523.30
-498.65
-472.82
-442.58
-406.16
-363.28
-314.29
-259.18
-197.38
-128.60
-54.00
22.85
96.10
158.72
204.80
231.62
240.84
238.14
231.38
227.83
231.68
242.73
256.88
268.30
272.01
265.99
251.56
232.30
212.10
193.58
177.58
163.72
151.49
140.68
131.40
123.43
115.84
107.21
96.37
83.18
68.76
55.07
44.01
36.70
33.11
32.28
32.70
32.73
31.04
26.85
20.10
11.37
1.65
-8.10
-17.29
-25.72
-33.49
-40.62
-46.96
-52.22
-56.28
-59.39
-62.13
-65.10
-68.40
-71.53
-73.49
-73.29
-70.54
-65.66
-59.72
-53.91
-48.91
-44.51
-39.71
-33.23
-24.29
-13.06
-0.75
10.90
20.36
26.78
30.14
30.86
29.45
26.37
22.26
18.36
16.48
18.51
25.49
36.87
50.40
62.88
71.53
74.98
73.73
69.47
64.09
58.73
53.55
48.01
41.55
33.88
25.02
15.05
4.02
-7.88
-19.95
-30.84
-38.80
-42.30
-40.68
-34.39
-24.80
-13.62
-2.37
7.95
16.87
24.22
29.95
34.02
36.32
36.73
35.28
32.16
27.81
22.85
17.89
13.38
9.42
5.85
2.49
-0.61
-3.03
-4.09
-3.21
-0.21
4.51
10.10
15.48
19.77
22.44
23.49
23.36
22.74
22.37
22.75
23.98
25.75
27.53
28.80
29.40
29.68
30.40
32.56
36.98
44.12
53.88
65.73
78.87
92.43
105.56
117.59
128.02
136.66
143.60
149.12
153.55
157.10
159.81
161.79
163.32
164.75
166.16
167.03
166.32
163.03
156.90
148.75
139.91
131.08
121.45
108.70
90.18
64.34
31.56
-6.44
-48.13
-93.22
-142.61
-196.69
-253.53
-308.08
-353.52
-384.05
-397.43
-395.85
-384.53
-368.98
-352.62
-335.97
-317.75
-296.87
-273.99
-251.80
-233.69
-221.97
-216.45
-214.60
-212.94
-208.97
-202.36
-194.53
-187.06
-179.84
-170.37
-154.84
-130.33
-96.97
-58.50
-20.90
10.25
32.34
46.55
56.88
67.88
82.35
100.16
118.60
133.86
142.95
145.07
141.80
136.09
130.47
125.59
119.91
110.81
96.59
78.11
58.75
42.75
32.77
28.35
26.38
23.42
18.26
12.76
10.24
12.39
16.95
18.22
10.35
-8.52
-33.98
-56.96
-68.35
-63.95
-46.83
-25.52
-9.36
-3.64
-7.54
-15.58
-21.51
-21.97
-18.02
-13.82
-13.81
-20.33
-32.66
-48.12
-63.82
-78.13
-90.92
-102.70
-113.41
-121.72
-125.34
-122.26
-111.94
-95.88
-77.33
-59.96
-46.61
-38.42
-34.86
-34.47
-35.76
-37.76
-40.10
-42.87
-46.15
-49.69
-52.87
-54.87
-55.03
-53.13
-49.46
-44.66
-39.78
-35.79
-33.35
-32.65
-33.18
-33.73
-32.37
-26.49
-13.28
8.92
39.85
76.85
115.27
149.92
176.99
194.50
201.86
200.64
193.72
184.34
174.87
166.23
158.60
151.94
146.02
140.22
135.42
130.31
123.79
115.85
107.26
99.04
91.76
85.16
78.57
71.84
65.53
59.56
55.15
53.22
53.59
54.88
54.96
51.89
44.84
34.00
20.77
7.24
-4.90
-14.90
-23.13
-30.91
-39.85
-51.05
-64.72
-79.76
-94.15
-106.11
-114.90
-121.16
-126.62
-133.18
-141.82
-151.86
-160.38
-162.52
-152.71
-126.28
-81.03
-18.42
56.29
134.93
208.12
267.60
308.21
328.70
331.49
321.33
303.63
282.97
262.39
243.26
226.05
211.01
198.40
188.37
180.67
174.59
169.16
163.58
156.90
148.89
139.97
130.91
122.05
112.82
101.72
87.03
67.70
42.88
13.56
-17.81
-48.12
-75.29
-98.94
-119.92
-139.06
-156.07
-171.25
-184.02
-193.38
-198.26
-198.82
-196.43
-193.31
-191.68
-193.22
-201.31
-217.96
-242.76
-272.15
-301.57
-326.94
-346.38
-360.51
-356.62
-328.74
-278.63
-215.68
-150.89
-92.36
-43.20
-3.61
27.33
50.56
64.67
69.15
61.71
47.34
31.65
19.00
11.02
7.45
6.67
4.73
-1.64
-13.90
-30.89
-51.47
-72.01
-92.15
-113.50
-139.18
-173.70
-219.90
-276.80
-338.03
-394.02
-434.43
-452.05
-444.64
-415.46
-372.04
-322.46
-272.44
-223.90
-176.59
-129.61
-83.27
-38.70
3.11
42.15
80.18
120.12
165.02
216.35
273.32
332.62
389.43
438.62
475.94
499.07
507.97
504.66
492.13
473.37
450.32
423.95
394.49
362.20
327.74
292.26
257.00
222.82
189.99
158.23
127.21
96.95
67.99
41.36
18.15
-0.97
-15.99
-27.75
-37.60
-47.04
-57.17
-68.36
-80.17
-91.52
-101.06
-107.68
-110.80
-110.49
-107.31
-102.02
-95.30
-87.57
-79.08
-70.04
-60.78
-51.74
-43.38
-35.99
-29.61
-23.98
-18.76
-13.62
-8.39
-3.09
2.08
6.88
11.07
14.52
17.24
19.27
20.64
21.28
21.02
19.66
17.13
13.54
9.27
4.90
1.11
-1.39
-2.04
-0.53
3.15
8.65
15.28
22.18
28.52
33.60
37.04
38.72
38.75
37.34
34.72
31.20
27.09
22.75
18.54
14.73
11.43
8.55
5.87
3.13
0.16
-3.04
-6.33
-9.51
-12.44
-15.14
-17.79
-20.68
-24.08
-28.14
-32.81
-37.80
-42.60
-46.50
-48.75
-48.68
-45.86
-40.33
-32.60
-23.56
-14.19
-5.35
2.43
8.93
14.10
17.94
20.39
21.40
21.05
19.66
17.75
15.89
14.54
13.86
13.71
13.77
13.68
13.24
12.39
11.23
9.88
8.41
6.78
4.86
2.49
-0.46
-4.09
-8.40
-13.27
-18.39
-23.13
-26.66
-28.06
-26.65
-22.19
-15.08
-6.19
3.39
12.75
21.29
28.81
35.32
40.81
45.16
48.17
49.71
49.87
48.99
47.61
46.24
45.21
44.59
44.21
43.80
43.13
42.06
40.57
38.73
36.60
34.22
31.62
28.80
25.76
22.49
19.00
15.25
11.27
7.17
3.24
-0.04
-2.11
-2.39
-0.51
3.55
9.41
16.41
23.68
30.44
36.12
40.47
43.55
45.53
46.62
46.91
46.38
45.01
42.85
40.06
36.88
33.52
30.03
26.37
22.40
18.03
13.28
8.33
3.43
-1.16
-5.26
-8.86
-12.12
-15.33
-18.76
-22.56
-26.60
-30.48
-33.62
-35.57
-36.20
-35.79
-34.87
-33.88
-32.77
-30.86
-26.97
-19.95
-9.26
4.51
19.70
33.98
45.17
52.02
54.53
53.89
51.85
50.12
49.75
50.85
52.32
51.73
45.64
30.48
4.07
-32.96
-76.41
-119.21
-153.44
-172.88
-175.08
-161.91
-138.61
-111.72
-87.08
-68.52
-57.70
-54.66
-58.59
-68.45
-83.15
-101.44
-121.73
-142.13
-160.69
-176.00
-187.68
-196.56
-204.19
-212.09
-220.90
-230.04
-238.04
-243.46
-245.81
-245.84
-245.17
-245.25
-246.49
-247.86
-247.46
-243.46
-234.96
-222.26
-206.39
-188.37
-168.66
-147.08
-123.22
-96.74
-67.36
-34.63
2.28
44.15
90.90
140.77
190.20
234.72
270.41
295.27
309.67
315.72
315.90
311.91
304.32
293.14
278.86
263.36
250.14
243.85
249.06
268.80
303.32
349.38
400.63
448.96
486.48
507.35
508.81
491.00
456.03
406.95
347.21
280.72
212.17
146.84
89.72
44.08
10.41
-13.69
-32.33
-49.67
-68.27
-88.61
-109.60
-129.70
-147.96
-164.38
-179.53
-193.80
-206.88
-217.63
-224.50
-226.23
-222.27
-212.98
-199.40
-182.98
-165.20
-147.32
-130.34
-114.93
-101.54
-90.47
-81.82
-75.42
-70.81
-67.23
-63.78
-59.72
-54.67
-48.62
-41.86
-34.69
-27.34
-19.85
-12.28
-4.75
2.45
8.98
14.62
19.30
23.08
26.09
28.34
29.72
30.01
28.97
26.46
22.53
17.44
11.63
5.75
0.44
-3.70
-6.31
-7.33
-6.98
-5.69
-4.00
-2.42
-1.38
-1.23
-2.16
-4.33
-7.82
-12.68
-18.89
-26.33
-34.67
-43.33
-51.54
-58.53
-63.73
-67.03
-68.78
-69.58
-69.97
-70.06
-69.42
-67.16
-62.12
-53.20
-39.46
-20.19
4.99
35.93
71.71
110.55
149.94
187.11
219.58
245.44
263.34
272.32
271.74
261.36
241.71
214.26
181.31
145.55
109.45
74.85
42.87
14.09
-11.15
-32.66
-50.45
-64.80
-76.22
-85.26
-92.28
-97.34
-100.27
-100.93
-99.46
-96.46
-92.88
-89.97
-88.93
-90.60
-95.27
-102.52
-111.34
-120.46
-128.76
-135.68
-141.27
-145.97
-150.12
-153.41
-154.71
-152.46
-145.36
-133.11
-116.68
-97.97
-79.13
-61.83
-46.91
-34.36
-23.34
-12.45
0.14
16.22
36.88
61.92
89.57
116.89
140.74
158.81
170.22
175.22
174.40
167.83
154.87
134.73
107.44
74.58
39.31
5.39
-24.03
-47.55
-65.64
-80.03
-92.54
-104.01
-113.94
-120.89
-123.38
-120.69
-113.31
-102.63
-90.35
-77.89
-65.98
-54.73
-43.87
-33.13
-22.52
-12.39
-3.30
4.32
10.43
15.59
20.68
26.37
32.75
39.11
44.32
47.42
48.10
46.72
44.03
40.55
36.25
30.69
23.40
14.36
4.08
-6.59
-16.97
-26.80
-36.31
-45.83
-55.45
-64.80
-73.17
-79.76
-84.07
-85.97
-85.60
-83.10
-78.32
-70.76
-59.78
-45.02
-26.86
-6.57
13.90
32.52
47.71
58.80
66.01
70.05
71.58
70.92
67.94
62.40
54.31
44.25
33.20
22.32
12.70
5.40
1.68
2.95
10.56
25.15
46.00
70.86
96.44
119.27
136.60
146.85
149.35
143.95
130.65
109.76
82.27
50.27
16.84
-14.53
-40.77
-60.04
-71.92
-77.23
-77.54
-74.52
-69.53
-63.54
-57.23
-51.23
-46.28
-43.16
-42.51
-44.44
-48.35
-53.10
-57.40
-60.27
-61.42
-61.15
-60.07
-58.71
-57.24
-55.52
-53.41
-51.08
-49.11
-48.25
-49.13
-51.91
-56.23
-61.35
-66.35
-70.50
-73.32
-74.54
-74.00
-71.60
-67.38
-61.63
-54.70
-46.87
-38.27
-28.89
-18.66
-7.76
3.30
13.77
22.70
29.73
35.33
40.56
46.83
55.33
66.53
79.80
93.38
104.48
110.91
111.84
108.03
101.73
95.86
92.69
93.00
95.42
96.67
94.20
87.32
77.32
67.35
61.52
63.64
76.80
102.26
139.01
182.51
225.99
260.61
278.34
275.43
253.34
217.69
179.13
139.40
97.93
54.27
8.57
-38.23
-85.03
-130.63
-171.23
-203.25
-225.00
-235.85
-236.87
-230.39
-218.42
-201.81
-184.94
-166.97
-147.82
-129.46
-114.03
-103.22
-97.79
-97.31
-98.33
-98.31
-94.71
-87.09
-76.88
-65.79
-55.33
-46.30
-38.68
-31.88
-25.66
-19.63
-14.39
-10.86
-9.07
-7.93
-5.67
-0.51
8.44
20.56
34.36
47.43
57.44
63.06
64.17
61.61
56.74
50.82
44.55
38.35
32.16
25.84
19.39
13.03
7.08
1.76
-2.90
-7.02
-10.58
-13.42
-15.19
-15.57
-14.44
-12.06
-8.93
-5.58
-2.38
0.65
3.63
6.70
9.74
12.38
14.13
14.56
13.41
10.56
5.91
-0.65
-9.12
-19.21
-30.19
-40.85
-49.76
-55.59
-57.51
-55.37
-49.75
-41.91
-33.46
-26.06
-20.97
-18.75
-19.09
-20.95
-22.91
-23.47
-21.44
-16.19
-7.77
2.98
14.49
24.72
31.52
33.29
29.38
20.33
7.67
-6.55
-20.31
-32.06
-40.82
-46.03
-47.38
-44.61
-37.50
-25.98
-10.25
9.11
31.20
54.84
78.62
100.91
119.95
134.04
141.96
143.33
138.83
129.90
118.20
104.99
90.81
75.67
59.48
42.56
25.68
9.70
-4.95
-18.63
-32.41
-47.40
-64.03
-81.53
-97.92
-110.51
-116.74
-114.93
-104.87
-87.92
-66.75
-44.62
-24.45
-8.10
4.10
13.16
20.86
28.85
37.98
48.06
58.03
66.61
72.78
76.22
77.23
76.75
76.14
76.89
80.24
86.58
95.39
105.20
114.17
120.54
123.12
121.33
114.96
103.99
88.32
68.43
45.34
20.91
-2.75
-23.90
-41.56
-55.72
-67.07
-76.95
-86.14
-94.97
-102.92
-109.03
-112.38
-112.17
-108.34
-101.43
-93.03
-83.98
-74.52
-63.45
-48.83
-28.85
-2.14
31.36
70.65
113.34
158.01
200.04
234.89
258.49
268.40
265.17
250.96
234.19
215.59
193.95
167.99
138.27
106.33
71.82
35.87
-0.52
-36.63
-71.88
-103.28
-131.29
-156.70
-177.70
-193.13
-202.17
-205.04
-202.76
-197.56
-191.22
-185.34
-180.29
-175.62
-170.72
-164.59
-156.53
-146.31
-134.59
-121.95
-109.11
-96.10
-82.75
-69.21
-55.71
-42.76
-31.03
-21.23
-13.62
-8.11
-4.10
-0.85
2.00
4.57
6.77
8.47
9.63
10.50
11.35
12.47
13.81
14.95
15.41
14.92
13.67
12.16
10.90
10.07
9.42
8.46
6.75
4.32
1.73
-0.07
-0.25
1.64
5.45
10.56
16.22
21.80
26.95
31.57
35.66
39.23
42.25
44.73
46.73
48.35
49.70
50.82
51.72
52.54
53.45
54.61
56.02
57.36
58.06
57.53
55.43
51.67
46.26
38.95
29.17
16.12
-0.69
-20.98
-43.68
-67.17
-89.83
-110.35
-127.82
-141.38
-150.11
-153.22
-150.46
-142.65
-131.71
-120.17
-110.29
-103.33
-99.14
-96.51
-93.92
-90.25
-85.19
-79.20
-73.06
-67.29
-61.77
-55.72
-48.05
-37.95
-25.52
-11.97
0.65
10.17
15.07
15.05
11.04
4.72
-2.21
-8.51
-13.53
-16.99
-18.57
-17.76
-14.11
-7.51
1.42
11.34
20.57
27.54
31.15
30.94
26.86
19.15
8.22
-5.15
-19.66
-33.33
-43.75
-48.61
-46.27
-36.25
-19.20
3.54
30.61
61.27
95.62
134.36
177.95
225.84
275.95
324.86
368.52
403.20
426.19
435.93
431.78
413.68
382.02
337.92
283.59
222.49
158.91
97.26
41.22
-6.52
-44.21
-70.71
-85.43
-88.56
-81.45
-66.66
-47.54
-27.48
-9.13
5.83
16.52
22.47
23.36
19.08
9.92
-3.23
-19.04
-36.12
-53.32
-69.90
-85.50
-100.03
-113.59
-126.43
-138.82
-150.85
-162.27
-172.58
-181.09
-187.30
-190.94
-191.92
-190.13
-185.37
-177.54
-166.96
-154.55
-141.67
-129.67
-119.36
-110.75
-103.23
-95.98
-88.31
-79.86
-70.46
-59.98
-48.32
-35.62
-22.51
-10.10
0.28
7.62
11.67
13.06
12.86
12.06
11.06
9.55
6.86
2.55
-3.17
-9.31
-14.55
-17.71
-18.22
-16.20
-12.24
-6.91
-0.52
6.98
15.81
26.04
37.47
49.68
62.45
76.01
91.10
108.68
129.49
153.51
179.88
206.93
232.60
254.83
271.92
282.64
286.19
282.02
269.81
249.60
222.00
188.36
150.74
111.68
73.69
38.91
8.86
-15.56
-33.99
-46.47
-53.53
-56.32
-56.73
-57.09
-59.60
-65.55
-74.97
-86.67
-98.92
-110.16
-119.43
-126.45
-131.33
-134.24
-135.35
-134.96
-133.70
-132.55
-132.50
-134.11
-137.25
-141.14
-144.77
-147.34
-148.56
-148.44
-146.99
-143.99
-138.89
-131.21
-120.89
-108.48
-95.15
-82.25
-70.94
-61.84
-55.10
-50.53
-47.94
-47.22
-48.25
-50.76
-54.20
-57.72
-60.46
-61.57
-60.21
-55.33
-45.51
-29.13
-4.98
27.00
65.25
106.69
147.57
184.54
215.59
240.27
259.18
273.05
282.08
285.68
282.93
273.18
256.60
234.25
207.75
178.71
148.33
117.24
85.68
53.85
22.13
-8.81
-38.14
-65.13
-89.33
-110.65
-129.15
-144.85
-157.50
-166.49
-171.06
-170.55
-164.83
-154.34
-140.05
-123.18
-104.83
-85.83
-66.73
-48.03
-30.32
-14.33
-0.73
10.11
18.27
24.24
28.66
32.09
34.82
36.86
38.04
38.11
36.86
34.22
30.26
25.29
19.82
14.44
9.67
5.73
2.46
-0.65
-4.24
-8.79
-14.43
-20.77
-27.06
-32.39
-36.04
-37.67
-37.46
-35.89
-33.67
-31.38
-29.41
-27.87
-26.74
-25.90
-25.24
-24.72
-24.34
-24.19
-24.39
-25.09
-26.42
-28.47
-31.25
-34.69
-38.59
-42.67
-46.59
-50.11
-53.15
-55.80
-58.18
-60.22
-61.42
-60.88
-57.56
-50.76
-40.50
-27.62
-13.48
0.53
13.52
25.20
35.83
45.75
55.09
63.62
70.84
76.21
79.37
80.29
79.21
76.54
72.73
68.17
63.13
57.87
52.65
47.90
44.04
41.40
39.93
39.12
38.19
36.40
33.40
29.42
25.11
21.16
17.96
15.45
13.22
10.87
8.28
5.70
3.63
2.56
2.78
4.29
6.93
10.44
14.64
19.43
24.67
30.12
35.39
39.92
43.14
44.56
43.94
41.34
37.13
31.86
26.12
20.39
14.88
9.58
4.34
-1.01
-6.51
-12.08
-17.52
-22.57
-27.02
-30.79
-33.95
-36.72
-39.39
-42.23
-45.41
-48.91
-52.55
-56.10
-59.31
-61.95
-63.80
-64.71
-64.57
-63.36
-61.09
-57.58
-52.31
-44.46
-33.26
-18.48
-0.93
17.53
34.48
47.69
55.92
59.09
58.09
54.09
48.07
40.60
32.03
22.80
13.60
5.19
-1.84
-7.33
-11.59
-15.14
-18.43
-21.62
-24.53
-26.87
-28.42
-29.17
-29.29
-28.94
-28.20
-26.95
-24.99
-22.12
-18.28
-13.54
-8.18
-2.56
2.88
7.67
11.46
14.04
15.41
15.75
15.29
14.21
12.63
10.56
8.12
5.56
3.20
1.35
0.16
-0.37
-0.29
0.42
1.97
4.65
8.59
13.65
19.28
24.71
29.26
32.51
34.42
35.22
35.26
34.87
34.27
33.61
32.93
32.19
31.33
30.28
29.06
27.76
26.53
25.42
24.34
23.03
21.20
18.78
16.00
13.40
11.62
11.05
11.72
13.29
15.20
16.96
18.29
19.15
19.61
19.70
19.32
18.27
16.33
13.45
9.75
5.56
1.31
-2.55
-5.63
-7.66
-8.53
-8.32
-7.30
-5.91
-4.70
-4.16
-4.62
-6.16
-8.55
-11.36
-14.05
-16.12
-17.27
-17.38
-16.58
-15.20
-13.63
-12.25
-11.28
-10.75
-10.53
-10.42
-10.28
-10.09
-9.94
-10.03
-10.55
-11.71
-13.65
-16.43
-19.98
-24.03
-28.15
-31.73
-34.24
-35.38
-35.17
-33.96
-32.23
-30.39
-28.64
-27.00
-25.38
-23.77
-22.33
-21.31
-20.95
-21.34
-22.35
-23.69
-25.04
-26.21
-27.15
-27.93
-28.61
-29.16
-29.46
-29.35
-28.76
-27.77
-26.62
-25.61
-24.97
-24.85
-25.18
-25.80
-26.41
-26.71
-26.44
-25.41
-23.53
-20.82
-17.37
-13.39
-9.13
-4.91
-1.04
2.20
4.60
6.05
6.56
6.25
5.39
4.28
3.24
2.42
1.83
1.28
0.58
-0.42
-1.67
-3.02
-4.28
-5.40
-6.57
-8.12
-10.35
-13.35
-16.93
-20.54
-23.49
-25.14
-25.09
-23.27
-20.03
-15.88
-11.37
-6.87
-2.55
1.60
5.59
9.32
12.60
15.15
16.77
17.39
17.11
16.19
14.95
13.72
12.76
12.25
12.28
12.80
13.65
14.56
15.16
15.11
14.11
12.04
8.93
5.00
0.61
-3.76
-7.60
-10.42
-11.80
-11.49
-9.49
-6.05
-1.65
3.16
7.87
12.14
15.79
18.81
21.17
22.84
23.73
23.83
23.20
22.00
20.49
18.85
17.22
15.61
14.00
12.43
10.98
9.77
8.88
8.26
7.75
7.07
5.99
4.36
2.17
-0.44
-3.28
-6.05
-8.44
-10.08
-10.62
-9.82
-7.60
-4.11
0.29
5.12
9.88
14.17
17.74
20.49
22.43
23.59
24.04
23.85
23.13
21.99
20.56
18.95
17.25
15.46
13.56
11.46
9.10
6.41
3.39
0.13
-3.12
-6.06
-8.45
-10.20
-11.45
-12.45
-13.43
-14.44
-15.21
-15.34
-14.43
-12.26
-8.93
-4.77
-0.18
4.48
9.05
13.43
17.49
21.00
23.66
25.16
25.34
24.33
22.46
20.22
18.05
16.23
14.81
13.71
12.77
11.83
10.83
9.82
8.86
8.02
7.28
6.54
5.56
4.14
2.17
-0.25
-2.89
-5.47
-7.76
-9.67
-11.17
-12.22
-12.68
-12.35
-11.04
-8.71
-5.47
-1.60
2.53
6.54
10.14
13.05
15.05
15.95
15.67
14.38
12.69
11.63
12.36
15.77
21.93
29.91
37.98
44.15
46.90
45.69
40.97
33.88
25.71
17.50
9.84
3.01
-2.92
-7.92
-11.95
-15.00
-17.06
-18.12
-18.11
-16.96
-14.62
-11.14
-6.67
-1.45
4.23
10.14
16.12
22.01
27.56
32.45
36.24
38.62
39.50
39.15
38.13
37.10
36.58
36.73
37.34
37.91
37.91
37.03
35.31
33.09
30.84
28.87
27.17
25.32
22.70
18.55
12.16
2.91
-9.67
-25.78
-45.00
-66.12
-87.04
-105.27
-118.66
-126.12
-128.03
-126.05
-122.37
-118.98
-116.97
-116.51
-117.06
-117.81
-117.91
-116.32
-111.51
-101.24
-82.87
-54.20
-14.60
34.09
87.52
139.75
184.86
218.55
239.01
246.68
243.19
230.22
208.82
179.62
143.62
102.88
60.68
20.98
-12.65
-37.80
-53.72
-60.97
-60.86
-54.87
-44.42
-30.94
-16.01
-1.46
10.94
19.80
24.52
25.33
23.10
18.88
13.59
7.78
1.72
-4.51
-10.83
-17.09
-23.14
-28.82
-34.04
-38.68
-42.62
-45.73
-47.95
-49.36
-50.30
-51.23
-52.60
-54.58
-57.02
-59.52
-61.57
-62.84
-63.26
-62.95
-62.05
-60.62
-58.51
-55.56
-51.68
-47.00
-41.82
-36.51
-31.32
-26.34
-21.59
-17.14
-13.17
-9.97
-7.78
-6.64
-6.29
-6.24
-5.92
-4.88
-2.96
-0.30
2.75
5.76
8.36
10.33
11.54
12.02
11.89
11.26
10.27
8.95
7.31
5.37
3.17
0.82
-1.52
-3.75
-5.78
-7.53
-8.85
-9.53
-9.34
-8.15
-6.06
-3.43
-0.73
1.55
3.12
3.88
3.93
3.43
2.57
1.57
0.64
0.00
-0.20
0.10
0.81
1.70
2.50
2.99
3.02
2.55
1.64
0.34
-1.27
-3.14
-5.21
-7.44
-9.76
-12.12
-14.49
-16.81
-19.03
-21.01
-22.56
-23.46
-23.55
-22.69
-20.84
-18.07
-14.49
-10.36
-6.00
-1.76
2.07
5.29
7.85
9.81
11.26
12.32
13.07
13.59
13.93
14.14
14.30
14.52
14.99
16.02
17.95
20.96
25.00
29.63
34.19
37.96
40.39
41.28
40.78
39.26
37.12
34.64
31.92
28.98
25.91
22.94
20.45
18.77
18.08
18.25
18.97
19.84
20.60
21.16
21.56
21.84
21.94
21.72
21.04
19.92
18.47
16.86
15.20
13.47
11.54
9.34
6.89
4.37
2.01
-0.06
-1.87
-3.61
-5.55
-7.89
-10.70
-13.81
-16.83
-19.19
-20.27
-19.65
-17.27
-13.56
-9.28
-5.26
-2.01
0.42
2.33
4.07
5.73
7.06
7.60
7.07
5.53
3.37
1.10
-1.00
-2.94
-4.99
-7.35
-9.97
-12.53
-14.53
-15.60
-15.67
-15.01
-14.07
-13.27
-12.80
-12.59
-12.42
-12.07
-11.51
-10.89
-10.48
-10.52
-11.18
-12.43
-14.19
-16.25
-18.34
-20.08
-21.08
-20.98
-19.56
-16.86
-13.12
-8.73
-4.11
0.36
4.34
7.56
9.73
10.66
10.33
8.98
7.02
4.92
3.03
1.52
0.33
-0.63
-1.43
-2.12
-2.71
-3.30
-4.05
-5.16
-6.70
-8.61
-10.69
-12.70
-14.53
-16.19
-17.82
-19.52
-21.20
-22.60
-23.34
-23.11
-21.75
-19.34
-16.13
-12.42
-8.44
-4.35
-0.30
3.49
6.74
9.10
10.34
10.48
9.82
8.88
8.17
8.05
8.62
9.70
10.96
12.06
12.73
12.82
12.32
11.29
9.88
8.28
6.67
5.18
3.80
2.42
0.90
-0.86
-2.82
-4.76
-6.39
-7.41
-7.62
-6.97
-5.55
-3.61
-1.49
0.41
1.75
2.28
1.98
1.04
-0.23
-1.49
-2.51
-3.20
-3.51
-3.47
-3.06
-2.29
-1.26
-0.18
0.70
1.14
1.08
0.65
0.12
-0.12
0.18
1.08
2.35
3.56
4.15
3.72
2.24
0.15
-1.72
-2.48
-1.48
1.32
5.38
9.81
13.76
16.75
18.82
20.42
22.09
24.29
27.10
30.26
33.13
34.90
34.82
32.56
28.31
22.78
16.75
10.53
3.69
-4.94
-16.78
-32.97
-53.86
-78.89
-106.55
-134.60
-160.20
-180.39
-192.60
-195.39
-188.81
-174.25
-153.79
-129.22
-101.37
-70.17
-35.15
3.80
45.96
89.88
133.70
175.64
214.16
248.00
276.18
298.05
313.40
322.44
325.59
322.93
313.87
297.08
270.98
234.54
188.08
133.58
74.52
15.18
-40.18
-88.11
-126.35
-153.97
-171.24
-179.33
-179.96
-174.99
-165.99
-154.05
-139.70
-123.18
-104.77
-85.19
-65.65
-47.69
-32.81
-22.03
-15.61
-13.05
-13.41
-15.70
-19.16
-23.39
-28.26
-33.61
-39.18
-44.52
-49.17
-52.84
-55.46
-57.19
-58.26
-58.81
-58.82
-58.23
-56.99
-55.21
-53.16
-51.17
-49.53
-48.33
-47.45
-46.59
-45.42
-43.66
-41.16
-37.90
-33.90
-29.21
-23.86
-17.91
-11.48
-4.75
2.03
8.59
14.63
19.85
24.02
26.99
28.75
29.51
29.55
29.21
28.68
28.05
27.26
26.27
25.11
23.87
22.64
21.40
19.93
17.92
15.13
11.52
7.30
2.81
-1.59
-5.72
-9.57
-13.15
-16.39
-18.95
-20.33
-19.99
-17.68
-13.57
-8.30
-2.75
2.19
5.90
8.16
9.11
9.02
8.20
6.85
5.14
3.22
1.33
-0.25
-1.29
-1.69
-1.54
-1.04
-0.42
0.11
0.44
0.51
0.29
-0.24
-1.09
-2.24
-3.67
-5.30
-7.04
-8.82
-10.54
-12.07
-13.24
-13.82
-13.55
-12.20
-9.67
-5.97
-1.36
3.73
8.76
13.12
16.31
17.98
18.02
16.57
14.03
11.01
8.11
5.87
4.62
4.41
5.08
6.37
7.96
9.56
10.84
11.56
11.61
11.07
10.24
9.46
8.94
8.53
7.77
6.08
3.12
-0.96
-5.45
-9.32
-11.64
-11.91
-10.19
-6.97
-2.90
1.44
5.68
9.61
13.11
15.99
18.05
19.06
18.94
17.78
15.88
13.66
11.56
9.84
8.56
7.61
6.79
5.98
5.20
4.60
4.38
4.55
4.97
5.29
5.13
4.21
2.45
-0.01
-2.94
-6.07
-9.15
-11.95
-14.22
-15.64
-15.95
-14.98
-12.76
-9.50
-5.59
-1.44
2.58
6.16
9.12
11.33
12.77
13.52
13.76
13.71
13.53
13.29
12.93
12.36
11.52
10.43
9.19
7.93
6.73
5.62
4.54
3.40
2.11
0.58
-1.31
-3.68
-6.61
-10.11
-14.07
-18.23
-22.24
-25.69
-28.24
-29.68
-29.90
-28.97
-27.05
-24.40
-21.37
-18.31
-15.53
-13.27
-11.60
-10.52
-10.01
-10.07
-10.72
-11.93
-13.57
-15.41
-17.19
-18.72
-19.92
-20.80
-21.39
-21.74
-21.93
-22.13
-22.61
-23.63
-25.37
-27.83
-30.86
-34.32
-38.19
-42.65
-47.93
-54.08
-60.78
-67.26
-72.48
-75.45
-75.61
-73.06
-68.53
-63.14
-57.91
-53.48
-49.89
-46.62
-42.77
-37.21
-28.73
-16.15
1.46
24.40
52.08
83.01
115.31
147.29
177.97
206.84
233.36
256.29
273.39
281.77
278.78
262.98
234.64
195.79
149.53
99.36
48.62
0.00
-44.55
-83.83
-117.02
-143.46
-162.27
-172.77
-174.92
-169.22
-156.99
-140.34
-121.64
-102.90
-85.30
-68.60
-51.80
-33.60
-12.16
14.01
45.04
79.39
114.14
145.80
172.08
191.71
204.71
213.38
221.18
231.27
245.63
264.45
285.90
307.06
323.19
328.51
319.10
293.49
252.72
200.12
140.63
75.77
11.63
-41.52
-81.11
-108.20
-124.69
-133.24
-136.66
-137.27
-136.76
-135.61
-134.84
-136.54
-141.96
-151.51
-164.71
-180.26
-196.47
-211.97
-225.45
-236.55
-245.36
-250.63
-250.32
-242.77
-227.74
-206.94
-183.53
-160.69
-141.02
-125.91
-114.90
-106.46
-99.05
-91.57
-83.39
-74.06
-63.06
-50.05
-35.13
-18.51
-0.69
17.56
35.30
51.64
65.85
77.49
86.41
92.60
96.30
97.78
97.22
94.62
89.91
83.04
74.14
63.60
52.07
40.35
29.18
19.04
10.14
2.38
-4.42
-10.49
-15.99
-20.99
-25.47
-29.36
-32.55
-34.82
-35.92
-35.55
-33.44
-29.48
-23.77
-16.74
-9.07
-1.52
5.21
10.67
14.74
17.56
19.42
20.60
21.31
21.59
21.42
20.70
19.28
16.96
13.64
9.36
4.54
-0.10
-3.74
-5.72
-5.87
-4.58
-2.64
-0.97
-0.27
-0.85
-2.63
-5.29
-8.42
-11.74
-15.09
-18.51
-22.10
-25.91
-29.77
-33.19
-35.42
-35.65
-33.32
-28.36
-21.23
-12.85
-4.23
3.78
10.69
16.33
20.77
24.23
26.94
29.09
30.76
31.85
32.04
30.79
27.53
21.87
13.92
4.35
-5.61
-14.50
-21.05
-24.50
-24.82
-22.57
-18.63
-13.88
-8.99
-4.40
-0.48
2.33
3.48
2.46
-0.90
-6.25
-12.76
-19.38
-25.15
-29.43
-31.77
-31.60
-28.01
-19.84
-6.26
12.57
35.03
58.28
78.96
94.35
103.19
105.86
103.98
99.43
93.58
86.87
79.03
69.58
58.39
46.02
33.61
22.51
13.85
8.19
5.49
5.28
6.94
9.93
13.85
18.35
22.97
27.15
30.37
32.27
32.92
32.80
32.53
32.63
33.14
33.68
33.55
32.10
29.05
24.50
18.84
12.50
5.75
-1.26
-8.39
-15.37
-21.78
-27.18
-31.34
-34.35
-36.59
-38.50
-40.41
-42.35
-44.17
-45.62
-46.57
-47.04
-47.17
-47.20
-47.38
-47.88
-48.85
-50.20
-51.65
-52.72
-52.78
-51.32
-48.04
-43.04
-36.73
-29.77
-22.92
-16.81
-11.82
-8.04
-5.22
-2.95
-0.81
1.44
3.80
6.08
8.04
9.48
10.30
10.48
10.02
8.97
7.45
5.66
3.91
2.48
1.52
1.01
0.75
0.51
0.10
-0.61
-1.65
-3.05
-4.81
-6.84
-8.96
-10.80
-11.88
-11.80
-10.28
-7.39
-3.47
0.92
5.18
8.79
11.44
13.00
13.53
13.15
12.03
10.32
8.16
5.68
3.07
0.52
-1.77
-3.61
-4.94
-5.80
-6.32
-6.66
-6.97
-7.34
-7.83
-8.46
-9.26
-10.18
-11.15
-12.03
-12.65
-12.86
-12.53
-11.52
-9.70
-6.92
-3.16
1.43
6.51
11.63
16.35
20.42
23.73
26.27
27.99
28.77
28.45
27.04
24.77
22.15
19.77
18.11
17.32
17.22
17.38
17.35
16.85
15.82
14.43
12.90
11.33
9.59
7.36
4.17
-0.42
-6.66
-14.44
-23.22
-32.11
-40.05
-46.07
-49.51
-50.14
-48.19
-44.17
-38.79
-32.77
-26.72
-21.04
-15.92
-11.31
-7.06
-3.07
0.60
3.69
5.85
6.84
6.66
5.56
3.98
2.39
1.14
0.43
0.27
0.54
1.06
1.68
2.34
3.12
4.18
5.74
7.84
10.33
12.83
14.82
15.91
15.94
15.13
13.94
12.87
12.27
12.22
12.49
12.76
12.74
12.29
11.44
10.32
9.06
7.71
6.32
4.97
3.86
3.23
3.26
3.91
4.87
5.66
5.85
5.22
3.96
2.48
1.25
0.50
0.11
-0.37
-1.44
-3.43
-6.34
-9.84
-13.47
-16.76
-19.33
-20.92
-21.31
-20.37
-18.11
-14.83
-11.13
-7.88
-6.03
-6.32
-9.11
-14.24
-21.12
-28.83
-36.31
-42.48
-46.33
-47.03
-44.14
-37.66
-28.17
-16.71
-4.59
6.86
16.57
23.89
28.57
30.75
30.73
28.90
25.59
21.10
15.72
9.73
3.47
-2.73
-8.62
-14.04
-18.81
-22.44
-23.93
-21.91
-15.13
-3.14
13.19
31.76
49.78
64.77
75.20
80.77
81.99
79.66
74.38
66.55
56.62
45.36
33.85
23.26
14.44
7.60
2.30
-2.35
-7.29
-13.16
-20.08
-27.66
-35.29
-42.47
-48.91
-54.67
-59.87
-64.51
-68.32
-70.86
-71.74
-70.77
-68.07
-63.97
-58.84
-53.00
-46.70
-40.11
-33.38
-26.55
-19.57
-12.24
-4.29
4.50
14.22
24.79
36.03
47.81
60.01
72.54
85.27
98.02
110.37
121.66
131.02
137.42
139.97
138.02
131.41
120.47
106.06
89.45
72.07
55.30
40.17
27.30
16.79
8.49
2.22
-2.05
-4.27
-4.59
-3.51
-1.91
-0.59
-0.15
-0.67
-1.75
-2.62
-2.76
-2.31
-2.22
-3.92
-8.63
-17.28
-30.17
-46.76
-65.34
-83.56
-98.98
-109.29
-112.68
-107.58
-93.53
-71.36
-42.68
-8.80
29.43
71.38
116.31
162.28
206.30
243.31
267.07
272.07
256.03
220.26
168.82
107.21
38.47
-31.15
-94.26
-144.55
-182.33
-210.29
-230.84
-246.07
-255.09
-258.53
-257.34
-253.18
-247.79
-242.29
-236.10
-227.79
-215.90
-199.64
-179.38
-155.72
-129.77
-102.78
-75.70
-48.52
-20.98
6.87
34.45
60.38
83.40
102.07
114.95
120.92
119.73
111.85
98.32
80.58
60.14
38.80
18.26
0.05
-14.57
-24.56
-29.43
-29.36
-25.17
-18.13
-9.57
-0.69
7.41
13.85
18.05
19.83
19.47
17.71
15.67
14.63
15.75
19.63
26.36
35.41
45.89
56.69
66.76
75.11
80.77
82.79
79.97
71.54
57.41
38.65
17.58
-2.54
-18.20
-26.61
-26.26
-17.81
-3.16
15.05
34.30
52.91
70.38
87.22
104.48
123.51
144.63
168.17
194.04
221.83
250.70
279.26
305.47
326.82
341.09
345.59
339.11
321.40
292.85
254.00
205.06
146.12
75.58
-0.73
-79.75
-156.31
-224.71
-280.03
-319.11
-340.97
-346.69
-338.84
-320.55
-296.20
-269.44
-243.32
-219.81
-199.66
-182.60
-167.69
-153.98
-140.41
-126.92
-113.14
-98.68
-83.26
-66.79
-49.60
-32.39
-16.05
-1.23
11.36
21.79
30.49
37.98
44.59
50.34
54.98
58.23
60.11
60.74
60.58
60.08
59.46
58.66
57.51
55.87
53.76
51.31
48.42
44.78
39.87
33.23
24.77
14.90
4.34
-6.16
-16.24
-25.92
-35.54
-45.44
-55.78
-66.58
-77.73
-89.19
-100.76
-112.07
-122.41
-130.86
-136.57
-138.98
-138.03
-134.02
-127.45
-118.80
-108.51
-97.04
-85.04
-73.29
-62.61
-53.58
-46.32
-40.44
-35.19
-29.81
-23.84
-17.41
-11.13
-5.81
-2.08
-0.16
0.13
-0.81
-2.60
-4.97
-7.77
-10.84
-14.00
-17.12
-20.13
-22.95
-25.42
-27.16
-27.61
-26.28
-22.91
-17.64
-10.87
-3.03
5.61
14.90
24.60
34.20
42.86
49.67
54.01
55.75
55.33
53.44
50.78
47.78
44.63
41.28
37.67
33.82
29.84
25.97
22.51
19.75
17.88
16.90
16.52
16.29
15.68
14.33
12.16
9.36
6.29
3.30
0.59
-1.77
-3.73
-5.17
-5.85
-5.56
-4.23
-2.04
0.61
3.29
5.63
7.41
8.55
8.94
8.39
6.70
3.71
-0.50
-5.59
-11.02
-16.24
-20.85
-24.66
-27.67
-29.98
-31.60
-32.31
-31.55
-28.47
-22.20
-12.23
1.22
17.02
33.37
48.37
60.59
69.57
75.77
80.28
84.34
88.95
94.64
101.46
109.00
116.48
122.88
127.14
128.37
126.04
119.96
110.09
96.39
78.94
58.05
34.47
9.35
-16.07
-40.76
-64.19
-86.14
-106.48
-124.85
-140.65
-153.24
-162.20
-167.54
-169.63
-169.02
-166.17
-161.37
-154.60
-145.68
-134.35
-120.41
-103.76
-84.39
-62.26
-37.24
-9.20
21.75
54.78
88.24
119.66
146.34
166.15
178.09
182.47
180.50
173.72
163.47
150.96
137.50
124.73
114.65
109.10
109.13
114.53
123.91
135.21
146.51
156.76
165.82
174.11
181.90
188.76
193.44
194.21
189.51
178.58
161.70
140.03
115.14
88.59
61.62
35.08
9.51
-14.69
-37.15
-57.44
-75.09
-89.76
-101.43
-110.48
-117.68
-123.80
-129.37
-134.36
-138.38
-140.94
-141.88
-141.39
-139.85
-137.48
-134.17
-129.70
-124.08
-117.80
-111.70
-106.50
-102.32
-98.43
-93.54
-86.27
-75.82
-62.29
-46.82
-31.23
-17.56
-7.44
-1.61
0.24
-0.71
-3.00
-5.46
-7.55
-9.27
-10.76
-11.94
-12.37
-11.61
-9.64
-7.14
-5.25
-5.06
-7.13
-11.25
-16.76
-22.98
-29.67
-36.95
-45.07
-53.90
-62.79
-70.59
-76.06
-78.24
-76.78
-71.99
-64.64
-55.56
-45.25
-33.71
-20.48
-5.10
12.39
31.18
49.70
66.19
79.18
87.91
92.31
92.62
89.18
82.32
72.61
61.11
49.40
39.15
31.57
26.97
24.61
23.09
20.93
17.07
11.15
3.51
-5.08
-13.85
-22.27
-30.27
-38.09
-46.00
-53.97
-61.70
-68.80
-75.33
-82.02
-90.14
-100.76
-113.96
-128.36
-141.30
-149.83
-151.78
-146.38
-134.10
-115.84
-92.15
-62.91
-27.81
13.08
58.71
106.96
155.10
200.34
240.20
272.50
295.26
306.54
304.76
289.06
259.99
220.03
173.73
127.29
87.48
59.95
47.66
50.01
63.10
81.08
97.90
108.74
110.48
101.62
81.84
52.04
14.62
-26.27
-65.10
-96.18
-115.38
-121.45
-116.27
-103.94
-89.15
-75.71
-65.90
-60.59
-59.92
-63.85
-72.16
-84.19
-98.38
-112.26
-122.85
-127.46
-124.42
-113.62
-96.46
-75.48
-53.68
-33.90
-18.28
-7.98
-3.14
-3.03
-6.36
-11.61
-17.36
-22.49
-26.34
-28.73
-30.01
-30.81
-31.82
-33.42
-35.46
-37.21
-37.63
-35.70
-30.85
-23.24
-13.77
-3.80
5.16
11.95
15.95
17.22
16.33
14.18
11.81
10.26
10.36
12.54
16.67
22.01
