1675172265.00
64.000000
-0.00
-0.00
-0.00
-0.00
-0.00
-0.00
-0.00
-0.00
-0.00
-0.00
0.00
0.01
0.01
-0.00
-0.03
-0.05
-0.05
0.00
0.13
0.36
0.66
1.01
1.37
1.72
2.06
2.40
2.79
3.24
3.80
4.42
5.06
5.66
6.20
6.68
7.15
7.68
8.31
9.14
10.09
11.04
11.88
12.56
13.14
13.76
14.65
15.96
17.91
20.32
22.90
25.38
27.58
29.57
31.68
34.32
37.81
42.54
48.15
54.10
59.83
64.97
69.58
74.14
79.34
85.71
93.76
103.00
112.62
121.73
129.77
136.75
143.30
150.75
157.77
166.64
177.95
191.79
206.97
220.57
228.25
225.36
208.53
176.87
132.76
80.05
23.07
-34.94
-92.44
-149.16
-205.23
-260.37
-313.74
-363.87
-409.83
-450.91
-486.50
-515.74
-537.23
-549.22
-549.96
-538.37
-514.21
-478.67
-433.88
-382.45
-327.02
-269.84
-212.63
-156.66
-102.95
-52.37
-5.90
35.58
71.43
101.35
125.50
144.38
158.69
169.15
176.37
180.75
182.57
182.07
179.51
175.23
169.65
163.18
156.15
148.81
141.30
133.69
126.02
118.33
110.69
103.16
95.80
88.68
81.83
75.25
68.95
62.95
57.25
51.86
46.78
42.03
37.59
33.45
29.61
26.07
22.81
19.83
17.11
14.67
12.48
10.54
8.83
7.35
6.07
4.97
4.05
3.27
2.62
2.09
1.65
1.30
1.01
0.79
0.61
0.48
0.37
0.29
0.24
0.20
0.18
0.17
0.17
0.19
0.21
0.23
0.27
0.30
0.34
0.39
0.43
0.48
0.53
0.57
0.62
0.68
0.74
0.80
0.87
0.94
1.03
1.11
1.22
1.33
1.45
1.60
1.75
1.93
2.13
2.35
2.59
2.86
3.15
3.48
3.84
4.23
4.65
5.11
5.61
6.15
6.73
7.35
8.01
8.71
9.46
10.25
11.09
11.98
12.91
13.89
14.93
16.03
17.20
18.43
19.70
20.97
22.21
23.33
24.23
24.79
24.91
24.46
23.34
21.52
18.98
15.77
11.97
7.75
3.28
-1.20
-5.50
-9.42
-12.79
-15.51
-17.50
-18.75
-19.29
-19.21
-18.58
-17.52
-16.13
-14.52
-12.78
-10.99
-9.19
-7.40
-5.63
-3.88
-2.13
-0.36
1.45
3.28
5.11
6.96
8.89
10.83
12.81
14.86
17.01
19.27
21.61
24.00
26.49
29.21
32.07
35.12
38.45
42.09
45.99
50.00
53.93
57.70
61.49
65.09
68.68
72.44
76.52
80.79
84.94
88.57
91.43
93.66
95.00
95.66
95.92
95.71
94.46
91.02
83.71
70.36
53.63
34.61
14.44
-5.82
-25.50
-44.49
-63.15
-82.20
-102.48
-124.74
-150.06
-178.49
-208.57
-237.22
-260.24
-273.47
-274.27
-262.55
-240.74
-213.42
-185.02
-158.62
-135.52
-115.56
-98.10
-82.60
-68.95
-57.09
-47.04
-38.37
-30.40
-22.59
-14.79
-7.31
-0.76
4.32
7.83
9.96
11.35
12.73
14.65
17.19
20.02
22.58
24.35
25.16
25.15
24.75
24.47
24.61
25.23
26.10
26.86
27.21
27.06
26.54
25.97
25.67
25.86
26.52
27.39
28.14
28.48
28.28
27.64
26.74
25.78
24.81
23.73
22.42
20.77
18.85
16.83
14.94
13.32
12.04
10.99
10.08
9.27
8.60
8.17
8.05
8.19
8.42
8.49
8.26
7.78
7.22
6.83
6.74
6.90
7.08
7.00
6.45
5.45
4.16
2.86
1.77
1.02
0.60
0.48
0.58
0.86
1.25
1.70
2.14
2.50
2.76
2.92
3.06
3.26
3.62
4.18
4.88
5.54
5.94
5.90
5.34
4.37
3.22
2.13
1.25
0.64
0.22
-0.02
-0.11
-0.02
0.25
0.67
1.20
1.76
2.38
3.06
3.81
4.57
5.26
5.74
5.90
5.70
5.14
4.36
3.49
2.66
1.98
1.44
1.07
0.84
0.82
0.98
1.36
1.84
2.27
2.51
2.54
2.41
2.26
2.18
2.12
2.01
1.72
1.24
0.67
0.17
-0.12
-0.10
0.21
0.72
1.36
1.99
2.51
2.84
2.93
2.82
2.60
2.38
2.22
2.13
2.07
2.00
1.85
1.56
1.15
0.67
0.21
-0.10
-0.10
0.28
1.04
1.99
2.92
3.55
3.73
3.45
2.86
2.22
1.74
1.57
1.70
1.98
2.20
2.17
1.78
1.03
0.04
-1.03
-2.02
-2.77
-3.20
-3.26
-3.03
-2.59
-2.13
-1.82
-1.80
-2.10
-2.63
-3.15
-3.44
-3.30
-2.67
-1.67
-0.55
0.41
1.00
1.19
1.09
0.98
1.09
1.49
2.06
2.58
2.86
2.86
2.70
2.53
2.48
2.47
2.39
2.13
1.72
1.33
1.11
1.12
1.28
1.39
1.36
1.12
0.80
0.55
0.49
0.62
0.89
1.16
1.36
1.37
1.19
0.88
0.50
0.13
-0.19
-0.43
-0.60
-0.71
-0.78
-0.83
-0.93
-1.16
-1.56
-2.09
-2.66
-3.08
-3.23
-3.09
-2.74
-2.29
-1.86
-1.54
-1.33
-1.23
-1.18
-1.06
-0.72
-0.03
0.97
2.16
3.26
4.09
4.52
4.63
4.60
4.60
4.71
4.94
5.22
5.50
5.74
5.92
5.99
5.85
5.47
4.87
4.12
3.32
2.60
1.98
1.39
0.74
-0.02
-0.88
-1.74
-2.45
-2.91
-3.09
-3.02
-2.77
-2.38
-1.88
-1.33
-0.83
-0.49
-0.45
-0.72
-1.17
-1.64
-1.97
-2.16
-2.29
-2.52
-2.89
-3.38
-3.89
-4.38
-4.82
-5.25
-5.65
-5.87
-5.67
-4.93
-3.64
-2.04
-0.50
0.70
1.43
1.79
1.98
2.15
2.35
2.47
2.39
2.03
1.43
0.76
0.23
-0.05
-0.04
0.13
0.37
0.60
0.81
1.04
1.29
1.49
1.54
1.33
0.88
0.35
-0.04
-0.06
0.39
1.24
2.24
3.10
3.59
3.60
3.18
2.53
1.90
1.52
1.47
1.69
2.01
2.22
2.20
1.98
1.62
1.27
0.97
0.74
0.56
0.49
0.67
1.24
2.21
3.40
4.50
5.17
5.26
4.85
4.24
3.79
3.74
4.14
4.73
5.14
4.99
4.13
2.63
0.82
-0.90
-2.24
-3.07
-3.49
-3.69
-3.82
-3.97
-4.11
-4.23
-4.31
-4.39
-4.47
-4.54
-4.56
-4.57
-4.69
-5.09
-5.89
-7.04
-8.38
-9.56
-10.30
-10.48
-10.17
-9.58
-8.99
-8.56
-8.33
-8.26
-8.20
-8.05
-7.77
-7.40
-7.00
-6.64
-6.42
-6.42
-6.77
-7.54
-8.77
-10.30
-11.87
-13.09
-13.60
-13.22
-11.97
-10.10
-7.94
-5.84
-4.01
-2.50
-1.31
-0.33
0.58
1.57
2.78
4.33
6.29
8.57
10.97
13.13
14.73
15.53
15.51
14.80
13.64
12.17
10.49
8.61
6.53
4.38
2.45
1.15
0.86
1.86
4.17
7.52
11.45
15.39
18.84
21.42
22.90
23.24
22.49
20.81
18.48
15.93
13.69
12.28
12.00
12.88
14.57
16.54
18.17
18.95
18.45
16.48
12.98
8.16
2.50
-3.29
-8.47
-12.42
-14.83
-15.75
-15.52
-14.50
-12.99
-11.09
-8.87
-6.46
-4.18
-2.46
-1.77
-2.37
-4.24
-7.04
-10.26
-13.35
-15.89
-17.65
-18.62
-18.95
-18.84
-18.52
-18.09
-17.61
-17.17
-16.85
-16.78
-17.05
-17.60
-18.23
-18.65
-18.57
-17.86
-16.48
-14.40
-11.54
-7.72
-2.72
3.49
10.63
18.04
24.85
30.23
33.67
35.19
35.29
34.74
34.31
34.62
36.07
38.90
43.18
48.83
55.41
62.19
68.29
72.92
75.66
76.54
75.83
73.80
70.59
66.24
60.86
54.71
48.20
41.78
35.81
30.51
26.12
22.89
21.07
20.75
21.84
23.95
26.60
29.31
31.68
33.32
33.86
32.96
30.49
26.64
21.90
16.89
12.06
7.59
3.36
-0.83
-5.09
-9.47
-13.98
-18.71
-23.70
-28.85
-33.79
-38.01
-41.22
-43.65
-45.99
-48.99
-52.89
-57.07
-60.26
-61.09
-58.86
-53.91
-47.45
-41.05
-36.00
-32.86
-31.49
-31.32
-31.61
-31.67
-31.02
-29.36
-26.64
-23.12
-19.24
-15.49
-12.17
-9.34
-6.86
-4.60
-2.71
-1.64
-2.04
-4.44
-9.08
-15.73
-23.87
-32.89
-42.19
-51.22
-59.40
-66.05
-70.62
-72.84
-72.89
-71.28
-68.68
-65.50
-61.73
-57.10
-51.23
-44.04
-35.78
-27.02
-18.42
-10.54
-3.79
1.61
5.58
8.12
9.40
9.75
9.64
9.62
10.23
11.88
14.72
18.62
23.05
27.29
30.63
32.56
33.05
32.44
31.28
30.10
29.14
28.45
28.02
28.02
28.79
30.89
34.75
40.48
47.65
55.39
62.53
68.05
71.34
72.44
72.05
71.30
71.34
72.95
76.32
80.98
86.13
90.96
94.89
97.69
99.24
99.37
97.76
94.04
87.83
78.79
66.37
49.86
28.65
2.76
-26.61
-56.91
-84.82
-107.30
-122.75
-131.47
-135.26
-136.37
-136.42
-135.76
-133.68
-129.08
-121.10
-109.56
-94.81
-77.39
-57.87
-36.89
-15.36
5.39
23.69
37.92
47.16
51.60
52.64
52.39
52.86
55.05
58.38
60.74
59.21
51.14
35.23
12.26
-15.06
-42.88
-67.41
-86.12
-98.33
-104.92
-107.71
-108.44
-108.12
-107.04
-105.05
-102.13
-98.59
-95.08
-92.15
-90.01
-88.43
-86.94
-85.06
-82.49
-79.09
-74.79
-69.44
-62.87
-55.03
-46.12
-36.57
-27.03
-18.09
-10.19
-3.56
1.71
5.66
8.44
10.33
11.73
13.08
14.74
16.88
19.33
21.72
23.69
25.00
25.70
26.04
26.31
26.69
27.17
27.59
27.73
27.41
26.61
25.45
24.15
22.93
22.00
21.45
21.28
21.40
21.64
21.83
21.79
21.43
20.71
19.70
18.49
17.18
15.83
14.41
12.86
11.14
9.21
7.17
5.10
3.13
1.36
-0.12
-1.19
-1.74
-1.67
-0.98
0.27
1.88
3.55
5.01
6.10
6.74
7.02
7.08
7.11
7.25
7.62
8.28
9.22
10.40
11.72
13.04
14.19
14.97
15.22
14.84
13.83
12.31
10.47
8.61
7.02
5.94
5.48
5.62
6.22
7.08
8.00
8.85
9.55
10.07
10.33
10.24
9.73
8.75
7.38
5.76
4.13
2.65
1.42
0.45
-0.33
-0.98
-1.56
-2.11
-2.66
-3.18
-3.65
-3.96
-3.98
-3.64
-2.94
-2.02
-1.06
-0.25
0.35
0.81
1.29
1.95
2.85
3.97
5.19
6.37
7.37
8.07
8.39
8.27
7.71
6.85
5.90
5.11
4.62
4.42
4.33
4.15
3.75
3.18
2.62
2.28
2.28
2.57
2.99
3.36
3.57
3.59
3.52
3.44
3.40
3.39
3.35
3.26
3.12
2.91
2.63
2.28
1.85
1.36
0.87
0.42
0.00
-0.42
-0.89
-1.39
-1.88
-2.24
-2.43
-2.42
-2.34
-2.32
-2.40
-2.53
-2.57
-2.32
-1.71
-0.82
0.16
1.01
1.64
2.06
2.42
2.86
3.43
4.05
4.61
5.09
5.50
6.01
6.68
7.43
7.99
8.10
7.60
6.55
5.25
4.07
3.26
2.86
2.70
2.59
2.36
1.99
1.60
1.30
1.20
1.34
1.70
2.25
2.91
3.60
4.25
4.76
5.15
5.49
5.90
6.47
7.18
7.85
8.19
7.89
6.80
4.98
2.71
0.38
-1.62
-3.05
-3.86
-4.14
-4.08
-3.83
-3.58
-3.40
-3.35
-3.35
-3.27
-2.98
-2.38
-1.52
-0.57
0.25
0.76
0.93
0.84
0.63
0.40
0.17
-0.09
-0.41
-0.81
-1.34
-2.01
-2.84
-3.79
-4.69
-5.27
-5.24
-4.41
-2.81
-0.71
1.49
3.39
4.68
5.29
5.30
4.83
4.10
3.33
2.75
2.57
2.97
3.96
5.35
6.78
7.78
7.97
7.21
5.68
3.87
2.29
1.35
1.11
1.36
1.68
1.70
1.19
0.17
-1.18
-2.66
-4.04
-5.15
-5.86
-6.09
-5.77
-4.93
-3.70
-2.31
-1.01
-0.01
0.59
0.87
0.99
1.17
1.55
2.06
2.50
2.57
2.13
1.25
0.21
-0.63
-1.03
-0.99
-0.75
-0.59
-0.77
-1.35
-2.27
-3.32
-4.34
-5.20
-5.79
-6.04
-5.90
-5.37
-4.52
-3.40
-2.12
-0.81
0.40
1.34
1.90
2.03
1.84
1.51
1.26
1.26
1.59
2.19
2.91
3.59
4.06
4.22
4.05
3.60
2.98
2.32
1.72
1.23
0.91
0.78
0.85
1.09
1.44
1.78
2.02
2.12
2.11
2.07
2.03
1.93
1.66
1.12
0.31
-0.59
-1.37
-1.83
-1.90
-1.64
-1.17
-0.61
-0.05
0.48
0.96
1.44
1.96
2.58
3.31
4.13
4.87
5.33
5.34
4.84
3.89
2.66
1.33
0.11
-0.88
-1.57
-1.89
-1.84
-1.47
-0.91
-0.32
0.16
0.45
0.55
0.57
0.60
0.77
1.11
1.60
2.14
2.57
2.76
2.65
2.29
1.80
1.33
0.94
0.64
0.38
0.13
-0.09
-0.27
-0.40
-0.50
-0.64
-0.88
-1.23
-1.56
-1.72
-1.60
-1.16
-0.51
0.13
0.61
0.86
0.98
1.19
1.72
2.62
3.78
4.91
5.69
5.98
5.76
5.21
4.58
4.10
3.88
3.89
4.02
4.06
3.79
3.12
2.06
0.80
-0.44
-1.42
-1.96
-2.01
-1.60
-0.82
0.16
1.16
1.98
2.47
2.55
2.24
1.66
0.93
0.16
-0.57
-1.25
-1.84
-2.33
-2.69
-2.98
-3.26
-3.55
-3.86
-4.18
-4.48
-4.72
-4.93
-5.11
-5.29
-5.40
-5.38
-5.14
-4.67
-3.97
-3.12
-2.19
-1.18
-0.12
0.95
1.90
2.53
2.70
2.38
1.73
1.06
0.69
0.77
1.26
1.87
2.30
2.30
1.82
0.97
-0.08
-1.15
-2.13
-2.91
-3.40
-3.46
-3.05
-2.26
-1.33
-0.54
-0.10
-0.00
-0.02
0.12
0.61
1.43
2.43
3.40
4.19
4.79
5.28
5.71
6.09
6.42
6.66
6.81
6.94
7.05
7.14
7.13
6.95
6.54
5.90
5.04
3.96
2.73
1.43
0.17
-0.90
-1.65
-2.02
-2.09
-1.98
-1.88
-1.94
-2.20
-2.57
-2.88
-2.99
-2.77
-2.28
-1.64
-1.06
-0.70
-0.62
-0.76
-0.99
-1.15
-1.13
-0.94
-0.60
-0.22
0.13
0.38
0.57
0.75
0.98
1.26
1.59
1.91
2.19
2.37
2.37
2.13
1.57
0.72
-0.33
-1.39
-2.29
-2.94
-3.37
-3.65
-3.88
-4.12
-4.40
-4.65
-4.83
-4.89
-4.74
-4.35
-3.71
-2.91
-2.10
-1.41
-0.92
-0.58
-0.31
0.03
0.48
0.96
1.35
1.52
1.42
1.08
0.57
-0.04
-0.68
-1.34
-2.00
-2.69
-3.37
-3.97
-4.42
-4.66
-4.68
-4.52
-4.26
-3.99
-3.76
-3.59
-3.46
-3.39
-3.40
-3.54
-3.83
-4.31
-4.98
-5.89
-7.05
-8.49
-10.19
-12.08
-14.03
-15.89
-17.54
-18.87
-19.82
-20.37
-20.64
-20.85
-21.26
-22.11
-23.48
-25.23
-27.10
-28.85
-30.44
-32.13
-34.33
-37.44
-41.63
-46.74
-52.27
-57.57
-61.93
-64.86
-66.26
-66.51
-66.55
-67.70
-71.31
-78.28
-88.46
-100.55
-112.24
-120.97
-124.91
-123.84
-119.39
-114.42
-111.81
-113.02
-117.36
-122.00
-123.04
-116.82
-101.03
-75.23
-40.79
-0.68
41.13
80.09
111.97
133.90
145.14
147.31
143.60
137.54
131.65
126.95
123.24
119.91
116.61
113.29
109.89
105.90
100.42
92.64
82.50
70.99
59.74
50.40
43.80
39.66
36.83
33.93
30.03
25.00
19.43
14.15
9.75
6.20
2.97
-0.64
-5.07
-10.18
-15.29
-19.55
-22.27
-23.22
-22.65
-21.08
-19.07
-17.02
-15.11
-13.32
-11.55
-9.55
-6.98
-3.37
1.72
8.59
17.16
26.98
37.28
47.18
55.85
62.73
67.51
70.18
70.92
70.09
68.07
65.25
62.02
58.66
55.47
52.64
50.29
48.40
46.83
45.30
43.54
41.36
38.77
35.97
33.26
30.94
29.14
27.80
26.75
25.75
24.66
23.43
22.07
20.61
18.99
17.13
14.93
12.31
9.30
5.97
2.50
-0.94
-4.19
-7.15
-9.77
-12.12
-14.24
-16.10
-17.54
-18.29
-18.14
-17.06
-15.25
-13.12
-11.12
-9.47
-8.23
-7.26
-6.39
-5.59
-4.92
-4.51
-4.43
-4.62
-4.89
-5.00
-4.77
-4.10
-3.05
-1.78
-0.57
0.30
0.65
0.44
-0.17
-0.93
-1.58
-2.02
-2.30
-2.57
-2.98
-3.59
-4.32
-5.04
-5.63
-6.08
-6.40
-6.65
-6.84
-6.95
-6.88
-6.56
-5.94
-5.08
-4.09
-3.12
-2.32
-1.79
-1.57
-1.60
-1.82
-2.09
-2.31
-2.41
-2.39
-2.31
-2.23
-2.22
-2.29
-2.47
-2.71
-2.96
-3.08
-2.90
-2.24
-1.01
0.69
2.57
4.24
5.38
5.86
5.74
5.18
4.35
3.39
2.36
1.40
0.72
0.53
0.94
1.83
2.90
3.71
3.95
3.51
2.52
1.24
-0.03
-1.08
-1.85
-2.38
-2.83
-3.35
-4.07
-4.97
-5.91
-6.65
-6.98
-6.84
-6.27
-5.54
-4.87
-4.43
-4.21
-4.08
-3.86
-3.42
-2.79
-2.03
-1.24
-0.54
0.00
0.28
0.17
-0.40
-1.41
-2.65
-3.77
-4.34
-4.01
-2.72
-0.69
1.65
3.69
5.00
5.37
4.87
3.84
2.69
1.80
1.41
1.58
2.15
2.85
3.29
3.12
2.07
-0.02
-3.10
-6.92
-11.03
-14.84
-17.81
-19.52
-19.91
-19.20
-17.85
-16.28
-14.84
-13.57
-12.42
-11.17
-9.76
-8.19
-6.50
-4.76
-2.95
-1.01
1.06
3.17
5.13
6.60
7.24
6.87
5.52
3.51
1.24
-0.89
-2.63
-3.90
-4.73
-5.19
-5.31
-5.12
-4.72
-4.22
-3.73
-3.28
-2.82
-2.27
-1.64
-1.03
-0.62
-0.48
-0.49
-0.40
0.04
0.98
2.28
3.72
5.03
6.10
7.01
7.87
8.81
9.83
10.85
11.74
12.40
12.81
12.99
13.07
13.17
13.33
13.55
13.68
13.50
12.85
11.71
10.24
8.74
7.60
7.11
7.35
8.19
9.24
10.03
10.18
9.57
8.44
7.36
7.03
7.99
10.29
13.48
16.75
19.32
20.76
21.14
21.01
21.01
21.61
22.80
24.10
24.82
24.28
22.26
19.04
15.45
12.54
11.34
12.51
16.01
21.06
25.99
28.57
26.51
18.30
3.98
-14.42
-33.23
-48.21
-56.04
-55.59
-48.21
-37.08
-25.82
-17.14
-12.09
-10.18
-10.15
-10.76
-11.33
-11.69
-11.88
-11.84
-11.32
-10.09
-8.19
-6.13
-4.74
-4.85
-6.77
-10.16
-14.03
-17.17
-18.69
-18.33
-16.54
-14.21
-12.18
-10.95
-10.57
-10.66
-10.83
-10.72
-10.32
-9.72
-9.12
-8.73
-8.62
-8.78
-9.08
-9.37
-9.51
-9.40
-9.13
-8.79
-8.57
-8.49
-8.46
-8.26
-7.68
-6.69
-5.40
-4.05
-2.89
-2.00
-1.29
-0.63
0.12
0.95
1.75
2.38
2.73
2.83
2.76
2.61
2.42
2.15
1.75
1.18
0.46
-0.33
-1.10
-1.70
-2.04
-2.02
-1.64
-0.98
-0.14
0.75
1.64
2.55
3.51
4.54
5.57
6.45
7.01
7.14
6.92
6.50
6.10
5.91
5.98
6.25
6.54
6.60
6.13
4.84
2.57
-0.60
-4.32
-7.99
-10.90
-12.49
-12.56
-11.37
-9.52
-7.66
-6.29
-5.53
-5.18
-4.87
-4.28
-3.27
-1.95
-0.57
0.57
1.17
1.01
-0.05
-1.93
-4.34
-6.75
-8.55
-9.20
-8.56
-6.83
-4.58
-2.45
-0.91
-0.04
0.33
0.50
0.68
0.88
0.93
0.65
-0.03
-1.00
-2.03
-2.90
-3.47
-3.75
-3.87
-3.95
-4.00
-3.97
-3.77
-3.36
-2.85
-2.40
-2.14
-2.08
-2.10
-1.98
-1.56
-0.80
0.18
1.13
1.83
2.16
2.09
1.72
1.19
0.63
0.12
-0.29
-0.59
-0.82
-1.06
-1.39
-1.85
-2.41
-3.00
-3.48
-3.76
-3.79
-3.60
-3.27
-2.86
-2.50
-2.30
-2.34
-2.67
-3.29
-4.07
-4.89
-5.58
-6.06
-6.31
-6.40
-6.40
-6.35
-6.29
-6.22
-6.18
-6.22
-6.39
-6.66
-7.01
-7.39
-7.81
-8.31
-8.95
-9.78
-10.79
-11.93
-13.10
-14.18
-15.07
-15.71
-16.09
-16.24
-16.24
-16.17
-16.19
-16.37
-16.79
-17.40
-17.97
-18.16
-17.53
-15.68
-12.47
-7.97
-2.58
3.10
8.40
12.72
15.65
17.06
17.13
16.25
14.88
13.41
12.09
10.94
9.92
8.95
8.08
7.40
7.04
7.11
7.63
8.58
9.94
11.70
13.85
16.36
19.11
21.87
24.34
26.23
27.38
27.77
27.53
26.86
25.90
24.67
23.06
21.01
18.52
15.83
13.29
11.25
9.92
9.29
9.17
9.28
9.40
9.38
9.11
8.54
7.61
6.28
4.65
2.92
1.35
0.13
-0.66
-1.12
-1.48
-1.94
-2.65
-3.62
-4.75
-5.87
-6.85
-7.60
-8.18
-8.73
-9.36
-10.17
-11.09
-11.97
-12.64
-12.99
-13.00
-12.71
-12.12
-11.18
-9.86
-8.21
-6.43
-4.78
-3.48
-2.63
-2.17
-1.93
-1.80
-1.76
-1.91
-2.39
-3.29
-4.55
-5.98
-7.32
-8.34
-8.91
-9.02
-8.79
-8.39
-7.95
-7.53
-7.12
-6.71
-6.30
-5.92
-5.65
-5.51
-5.48
-5.57
-5.78
-6.17
-6.76
-7.50
-8.23
-8.73
-8.94
-8.90
-8.78
-8.80
-9.07
-9.59
-10.27
-11.06
-11.94
-12.90
-13.87
-14.70
-15.27
-15.55
-15.67
-15.89
-16.45
-17.31
-18.05
-18.00
-16.38
-12.72
-7.00
0.30
8.41
16.51
23.94
30.23
35.05
38.08
38.98
37.45
33.39
27.00
18.81
9.56
0.07
-8.87
-16.61
-22.64
-26.62
-28.34
-27.81
-25.21
-20.95
-15.56
-9.69
-4.00
0.86
4.45
6.53
7.15
6.61
5.40
3.96
2.58
1.33
0.09
-1.22
-2.60
-3.80
-4.48
-4.27
-3.02
-0.78
2.20
5.59
9.12
12.55
15.69
18.32
20.25
21.29
21.38
20.59
19.18
17.47
15.69
13.96
12.24
10.42
8.45
6.43
4.55
3.02
1.95
1.30
0.90
0.60
0.33
0.10
-0.00
0.05
0.26
0.57
0.88
1.14
1.28
1.28
1.11
0.80
0.39
-0.04
-0.42
-0.70
-0.83
-0.76
-0.36
0.43
1.60
2.94
4.16
4.96
5.14
4.75
4.02
3.26
2.68
2.36
2.23
2.21
2.29
2.47
2.80
3.24
3.68
3.94
3.86
3.36
2.53
1.49
0.45
-0.44
-1.07
-1.45
-1.57
-1.48
-1.19
-0.75
-0.21
0.33
0.74
0.90
0.78
0.46
0.11
-0.08
0.06
0.56
1.35
2.30
3.23
4.00
4.56
4.89
5.05
5.10
5.14
5.20
5.31
5.44
5.50
5.38
4.92
4.07
2.85
1.41
-0.03
-1.26
-2.13
-2.54
-2.44
-1.79
-0.62
1.00
2.84
4.65
6.18
7.35
8.25
9.06
9.83
10.40
10.36
9.26
6.83
3.16
-1.27
-5.84
-9.92
-13.15
-15.44
-16.89
-17.71
-18.04
-17.93
-17.38
-16.44
-15.22
-13.95
-12.92
-12.39
-12.46
-13.06
-13.97
-14.92
-15.70
-16.25
-16.63
-16.98
-17.43
-18.10
-19.06
-20.34
-21.91
-23.62
-25.19
-26.37
-27.11
-27.68
-28.71
-30.93
-34.77
-40.11
-46.27
-52.15
-56.68
-59.17
-59.42
-57.72
-54.74
-51.41
-48.71
-47.41
-47.61
-48.58
-48.80
-46.56
-40.91
-32.36
-22.97
-15.65
-12.91
-15.74
-23.20
-32.86
-41.93
-48.33
-51.33
-51.27
-48.94
-44.96
-39.36
-31.97
-22.78
-12.45
-2.36
5.65
9.89
9.30
3.79
-5.49
-16.13
-24.71
-27.36
-20.70
-2.99
25.00
59.90
96.57
129.60
154.67
169.43
173.37
167.27
152.57
131.16
105.54
78.82
54.44
35.36
23.20
17.86
17.82
20.97
25.55
30.64
36.18
42.62
50.27
59.04
68.22
76.63
82.88
85.79
84.68
79.64
71.66
62.40
53.78
47.33
43.79
42.85
43.37
43.91
43.34
41.27
38.10
34.73
32.10
30.84
30.98
32.10
33.49
34.53
34.81
34.29
33.33
32.50
32.31
32.84
33.58
33.46
31.16
25.66
16.65
4.66
-9.18
-23.51
-37.17
-49.48
-60.01
-68.53
-74.77
-78.48
-79.61
-78.45
-75.67
-72.11
-68.51
-65.32
-62.64
-60.32
-58.18
-56.15
-54.26
-52.57
-50.99
-49.24
-46.80
-43.05
-37.46
-29.81
-20.38
-9.99
0.12
8.64
14.56
17.48
17.67
15.91
13.22
10.46
8.15
6.46
5.24
4.25
3.22
2.01
0.59
-0.95
-2.42
-3.63
-4.49
-5.10
-5.70
-6.60
-8.10
-10.28
-13.01
-15.95
-18.68
-20.79
-22.10
-22.62
-22.63
-22.57
-22.89
-23.84
-25.47
-27.62
-29.98
-32.31
-34.46
-36.46
-38.45
-40.58
-42.91
-45.28
-47.28
-48.24
-47.37
-43.96
-37.66
-28.71
-17.94
-6.65
3.77
12.25
18.24
21.80
23.42
23.84
23.81
23.85
24.26
25.14
26.37
27.73
28.93
29.74
29.93
29.41
28.24
26.60
24.80
23.11
21.70
20.55
19.43
18.05
16.16
13.72
10.95
8.21
5.88
4.14
2.95
2.08
1.26
0.29
-0.89
-2.16
-3.32
-4.18
-4.61
-4.69
-4.65
-4.89
-5.87
-7.87
-10.84
-14.28
-17.24
-18.67
-17.71
-14.10
-8.30
-1.35
5.49
11.16
15.05
17.07
17.53
16.91
15.65
14.13
12.59
11.26
10.27
9.69
9.49
9.50
9.51
9.27
8.61
7.53
6.18
4.83
3.76
3.13
2.86
2.64
2.13
1.04
-0.63
-2.63
-4.60
-6.24
-7.41
-8.19
-8.73
-9.12
-9.38
-9.47
-9.37
-9.15
-8.95
-8.96
-9.38
-10.33
-11.89
-13.95
-16.16
-17.99
-18.76
-17.88
-15.09
-10.55
-4.80
1.37
7.15
11.91
15.26
17.05
17.37
16.44
14.61
12.22
9.61
7.05
4.74
2.86
1.55
0.94
1.07
1.84
2.98
4.12
4.94
5.24
4.99
4.34
3.49
2.68
2.11
1.91
2.10
2.60
3.21
3.71
3.90
3.65
3.03
2.17
1.21
0.21
-0.91
-2.34
-4.26
-6.82
-10.08
-13.95
-18.22
-22.42
-25.85
-27.63
-26.96
-23.41
-17.23
-9.34
-1.12
6.01
11.13
14.01
15.09
15.13
14.80
14.48
14.15
13.63
12.74
11.53
10.24
9.20
8.63
8.56
8.85
9.24
9.53
9.64
9.59
9.46
9.31
9.07
8.61
7.78
6.57
5.13
3.71
2.49
1.48
0.43
-0.98
-2.90
-5.29
-7.78
-10.02
-11.73
-12.95
-14.01
-15.31
-17.21
-19.77
-22.73
-25.56
-27.54
-27.94
-26.18
-22.08
-15.92
-8.42
-0.55
6.72
12.71
17.11
19.97
21.52
22.00
21.63
20.56
18.96
17.06
15.12
13.34
11.81
10.47
9.23
8.03
6.87
5.87
5.12
4.56
4.05
3.34
2.24
0.72
-1.04
-2.75
-4.16
-5.11
-5.64
-5.96
-6.29
-6.80
-7.47
-8.19
-8.78
-9.07
-9.02
-8.69
-8.28
-8.07
-8.36
-9.46
-11.51
-14.35
-17.42
-19.76
-20.31
-18.28
-13.54
-6.76
0.79
7.63
12.70
15.63
16.73
16.69
16.19
15.50
14.60
13.28
11.50
9.48
7.64
6.40
5.97
6.22
6.85
7.42
7.63
7.36
6.65
5.66
4.56
3.48
2.49
1.58
0.69
-0.23
-1.21
-2.24
-3.24
-4.17
-4.98
-5.72
-6.51
-7.45
-8.64
-10.13
-11.95
-14.12
-16.66
-19.46
-22.23
-24.41
-25.26
-24.15
-20.74
-15.20
-8.23
-0.88
5.78
10.95
14.27
15.83
16.05
15.46
14.52
13.51
12.53
11.61
10.77
10.10
9.72
9.71
10.03
10.49
10.87
10.96
10.71
10.16
9.42
8.53
7.50
6.24
4.69
2.87
0.91
-1.09
-3.06
-5.08
-7.27
-9.73
-12.38
-14.94
-17.05
-18.40
-18.96
-19.00
-19.08
-19.84
-21.79
-25.08
-29.33
-33.67
-36.95
-38.05
-36.25
-31.47
-24.38
-16.13
-8.05
-1.19
3.84
7.00
8.65
9.36
9.59
9.66
9.60
9.30
8.67
7.67
6.51
5.46
4.78
4.59
4.74
5.01
5.16
5.07
4.81
4.49
4.15
3.78
3.27
2.58
1.81
1.16
0.80
0.74
0.80
0.66
0.08
-1.02
-2.54
-4.25
-5.96
-7.56
-9.08
-10.57
-12.10
-13.70
-15.29
-16.56
-16.98
-15.83
-12.44
-6.54
1.47
10.59
19.49
27.01
32.56
36.21
38.49
40.02
41.20
42.17
42.84
43.12
42.99
42.45
41.46
39.93
37.75
34.96
31.70
28.30
25.10
22.32
20.00
18.02
16.13
14.07
11.66
8.83
5.68
2.41
-0.72
-3.46
-5.75
-7.67
-9.42
-11.22
-13.18
-15.24
-17.26
-19.06
-20.61
-22.08
-23.75
-25.93
-28.73
-31.92
-34.88
-36.73
-36.57
-33.79
-28.41
-21.07
-12.89
-5.10
1.29
5.80
8.45
9.61
9.85
9.63
9.24
8.77
8.16
7.36
6.41
5.48
4.85
4.70
5.02
5.66
6.30
6.71
6.80
6.60
6.13
5.35
4.10
2.24
-0.14
-2.72
-5.05
-6.70
-7.49
-7.57
-7.31
-7.12
-7.26
-7.76
-8.43
-9.00
-9.29
-9.36
-9.51
-10.16
-11.69
-14.21
-17.47
-20.75
-23.10
-23.55
-21.41
-16.57
-9.57
-1.47
6.45
13.09
17.72
20.22
20.85
20.12
18.52
16.47
14.22
11.95
9.85
8.11
6.85
6.11
5.78
5.67
5.56
5.32
4.98
4.66
4.49
4.50
4.57
4.43
3.90
2.89
1.56
0.23
-0.73
-1.07
-0.79
-0.09
0.64
1.00
0.70
-0.27
-1.63
-3.03
-4.11
-4.78
-5.21
-5.77
-6.92
-8.95
-11.98
-15.80
-19.88
-23.36
-25.26
-24.71
-21.29
-15.21
-7.39
0.80
8.05
13.40
16.53
17.72
17.57
16.69
15.50
14.15
12.64
10.97
9.21
7.57
6.28
5.54
5.41
5.78
6.42
7.05
7.46
7.57
7.36
6.90
6.21
5.29
4.07
2.51
0.65
-1.36
-3.31
-5.02
-6.44
-7.72
-9.04
-10.59
-12.37
-14.27
-16.16
-18.00
-19.88
-21.94
-24.16
-26.16
-27.31
-26.88
-24.39
-19.79
-13.58
-6.71
-0.21
4.98
8.35
9.84
9.80
8.79
7.35
5.83
4.39
3.10
2.06
1.50
1.70
2.92
5.16
8.15
11.41
14.36
16.58
17.82
18.06
17.41
16.10
14.35
12.37
10.36
8.53
7.01
5.93
5.37
5.30
5.62
6.12
6.50
6.55
6.16
5.38
4.38
3.29
2.09
0.57
-1.57
-4.52
-8.10
-11.69
-14.35
-15.14
-13.54
-9.67
-4.33
1.38
6.42
10.22
12.72
14.28
15.30
16.05
16.56
16.72
16.44
15.79
14.99
14.26
13.73
13.36
12.95
12.30
11.33
10.13
8.89
7.78
6.86
5.95
4.76
3.08
0.86
-1.66
-4.09
-6.07
-7.42
-8.28
-8.94
-9.69
-10.71
-11.94
-13.17
-14.14
-14.70
-14.85
-14.75
-14.72
-15.15
-16.40
-18.74
-22.09
-26.03
-29.68
-31.95
-31.82
-28.76
-22.97
-15.32
-7.10
0.43
6.38
10.35
12.49
13.24
13.10
12.51
11.75
10.93
10.11
9.31
8.59
8.06
7.80
7.88
8.28
8.87
9.49
10.01
10.32
10.34
9.99
9.18
7.88
6.19
4.33
2.59
1.24
0.40
-0.04
-0.26
-0.59
-1.25
-2.34
-3.84
-5.59
-7.35
-8.97
-10.40
-11.73
-13.23
-15.22
-17.95
-21.42
-25.24
-28.59
-30.40
-29.71
-26.04
-19.70
-11.71
-3.50
3.57
8.68
11.63
12.81
12.82
12.21
11.32
10.30
9.27
8.33
7.63
7.33
7.45
7.98
8.80
9.82
11.00
12.29
13.65
14.91
15.82
16.09
15.52
14.05
11.85
9.23
6.53
3.95
1.58
-0.65
-2.80
-4.86
-6.77
-8.48
-9.99
-11.41
-12.91
-14.62
-16.63
-18.91
-21.35
-23.76
-25.78
-26.89
-26.48
-24.04
-19.42
-12.95
-5.45
1.98
8.29
12.82
15.37
16.21
15.78
14.57
12.96
11.21
9.50
7.97
6.76
5.98
5.67
5.78
6.24
6.91
7.65
8.34
8.89
9.21
9.22
8.89
8.18
7.12
5.76
4.19
2.50
0.68
-1.29
-3.43
-5.61
-7.60
-9.10
-9.89
-10.00
-9.72
-9.54
-9.95
-11.26
-13.52
-16.54
-19.92
-23.07
-25.28
-25.81
-24.10
-19.98
-13.88
-6.76
0.19
5.95
9.97
12.29
13.38
13.80
13.95
13.97
13.80
13.35
12.57
11.53
10.37
9.28
8.42
7.93
7.89
8.28
8.95
9.69
10.24
10.36
9.92
8.85
7.26
5.30
3.20
1.16
-0.65
-2.20
-3.51
-4.69
-5.80
-6.86
-7.82
-8.56
-9.07
-9.47
-9.98
-10.88
-12.44
-14.74
-17.71
-21.03
-24.13
-26.20
-26.41
-24.12
-19.17
-12.06
-3.85
4.12
10.63
15.02
17.27
17.88
17.58
16.93
16.17
15.25
14.00
12.38
10.59
9.01
8.03
7.83
8.25
8.90
9.26
9.02
8.13
6.83
5.43
4.16
3.02
1.84
0.40
-1.38
-3.39
-5.44
-7.26
-8.72
-9.79
-10.56
-11.09
-11.44
-11.60
-11.61
-11.58
-11.70
-12.25
-13.39
-15.08
-16.88
-18.09
-17.87
-15.67
-11.42
-5.64
0.69
6.54
11.14
14.20
15.91
16.68
16.88
16.71
16.12
15.06
13.56
11.90
10.47
9.61
9.41
9.69
10.02
9.98
9.35
8.20
6.77
5.35
4.11
3.03
2.04
1.03
0.03
-0.92
-1.75
-2.44
-3.09
-3.78
-4.54
-5.27
-5.79
-5.96
-5.79
-5.45
-5.33
-5.78
-7.11
-9.39
-12.41
-15.69
-18.51
-20.05
-19.69
-17.08
-12.47
-6.57
-0.42
4.96
8.90
11.21
12.20
12.34
12.13
11.80
11.39
10.86
10.20
9.54
9.09
8.96
9.09
9.23
9.06
8.35
7.08
5.48
3.89
2.57
1.60
0.87
0.20
-0.47
-1.18
-1.80
-2.28
-2.63
-2.90
-3.13
-3.26
-3.17
-2.71
-1.84
-0.73
0.28
0.78
0.40
-1.07
-3.58
-6.79
-10.05
-12.47
-13.13
-11.32
-6.87
-0.22
7.62
15.43
22.16
27.20
30.58
32.82
34.56
36.39
38.60
41.22
44.07
47.04
50.09
53.31
56.95
61.29
66.54
72.80
79.99
87.81
95.90
103.89
111.54
118.89
126.31
134.54
144.47
156.86
171.94
189.18
207.11
223.65
236.37
243.19
242.84
235.09
220.85
201.78
179.82
156.67
133.36
110.21
86.91
62.93
37.95
12.11
-13.96
-39.35
-63.21
-84.89
-104.02
-120.40
-133.91
-144.41
-151.97
-156.82
-159.46
-160.52
-160.52
-159.79
-158.43
-156.58
-154.45
-152.44
-150.95
-150.25
-150.34
-151.06
-152.27
-153.90
-155.92
-158.16
-160.16
-161.10
-160.10
-156.55
-150.35
-142.03
-132.45
-122.52
-112.74
-103.25
-93.88
-84.50
-75.23
-66.41
-58.43
-51.39
-45.04
-38.91
-32.59
-26.00
-19.50
-13.62
-8.83
-5.34
-2.99
-1.51
-0.62
-0.13
0.04
0.01
-0.03
0.13
0.60
1.32
2.11
2.76
3.15
3.30
3.27
3.15
3.01
2.87
2.78
2.83
3.10
3.59
4.17
4.65
4.85
4.67
4.21
3.61
3.00
2.37
1.68
0.90
0.16
-0.35
-0.40
0.07
0.95
1.99
3.01
3.92
4.81
5.81
6.98
8.18
9.13
9.55
9.29
8.43
7.21
5.96
4.91
4.14
3.61
3.23
2.90
2.65
2.47
2.41
2.36
2.20
1.78
1.07
0.16
-0.76
-1.43
-1.62
-1.21
-0.22
1.23
2.89
4.52
5.87
6.78
7.17
7.02
6.39
5.42
4.31
3.26
2.44
1.93
1.64
1.38
0.85
-0.18
-1.85
-4.05
-6.47
-8.71
-10.39
-11.28
-11.36
-10.76
-9.77
-8.69
-7.79
-7.24
-7.12
-7.42
-8.04
-8.79
-9.44
-9.76
-9.59
-8.88
-7.71
-6.26
-4.72
-3.26
-1.93
-0.76
0.27
1.17
1.88
2.31
2.40
2.16
1.71
1.21
0.80
0.59
0.55
0.69
0.93
1.20
1.45
1.58
1.52
1.23
0.74
0.20
-0.22
-0.36
-0.14
0.36
1.02
1.71
2.37
3.00
3.64
4.29
4.88
5.29
5.42
5.24
4.83
4.34
3.92
3.62
3.41
3.13
2.67
1.98
1.17
0.46
0.07
0.11
0.52
1.07
1.52
1.72
1.64
1.41
1.24
1.27
1.58
2.11
2.69
3.19
3.44
3.41
3.09
2.57
1.97
1.38
0.94
0.73
0.88
1.39
2.19
3.04
3.62
3.68
3.14
2.19
1.10
0.18
-0.45
-0.83
-1.17
-1.61
-2.22
-2.92
-3.55
-3.93
-3.98
-3.72
-3.24
-2.69
-2.22
-1.94
-1.84
-1.86
-1.84
-1.60
-1.10
-0.35
0.48
1.23
1.77
2.06
2.11
2.02
1.85
1.71
1.68
1.89
2.45
3.42
4.74
6.27
7.77
8.98
9.75
10.05
9.99
9.79
9.68
9.81
10.20
10.73
11.22
11.45
11.35
10.94
10.37
9.93
9.85
10.33
11.48
13.24
15.53
18.23
21.26
24.55
28.04
31.65
35.24
38.66
41.79
44.53
46.84
48.74
50.27
51.44
52.32
53.02
53.70
54.53
55.58
56.65
57.29
56.80
54.50
49.92
42.98
33.99
23.52
12.24
0.66
-10.91
-22.34
-33.61
-44.75
-55.75
-66.59
-77.13
-87.12
-96.22
-103.93
-109.76
-113.32
-114.39
-112.93
-109.17
-103.48
-96.37
-88.34
-79.83
-71.18
-62.70
-54.63
-47.22
-40.62
-34.90
-29.93
-25.49
-21.29
-17.13
-13.01
-9.04
-5.43
-2.35
0.17
2.25
4.04
5.68
7.24
8.69
10.02
11.22
12.33
13.39
14.39
15.30
16.02
16.48
16.63
16.52
16.26
15.99
15.82
15.84
16.03
16.28
16.44
16.30
15.70
14.62
13.14
11.49
9.90
8.54
7.46
6.57
5.78
4.96
4.03
2.98
1.86
0.77
-0.12
-0.69
-0.86
-0.65
-0.21
0.39
1.03
1.71
2.43
3.12
3.70
4.07
4.21
4.16
4.07
4.02
4.03
4.05
3.96
3.77
3.46
3.12
2.78
2.46
2.13
1.71
1.12
0.31
-0.66
-1.61
-2.24
-2.24
-1.43
0.09
1.94
3.58
4.51
4.47
3.54
2.08
0.57
-0.48
-0.75
-0.05
1.59
3.95
6.62
9.06
10.74
11.36
10.97
10.04
9.21
9.02
9.65
10.91
12.26
13.20
13.54
13.43
13.24
13.29
13.51
13.35
11.99
8.70
3.17
-4.12
-12.03
-18.98
-23.41
-24.24
-21.19
-14.81
-6.56
1.52
7.25
8.96
6.15
-0.04
-6.77
-10.19
-6.74
5.44
25.50
49.83
72.98
89.36
94.79
87.51
68.40
40.42
7.77
-25.04
-53.86
-75.58
-88.53
-92.72
-89.87
-82.86
-74.98
-68.91
-66.02
-66.21
-68.13
-69.85
-69.55
-66.08
-59.26
-49.94
-39.72
-30.45
-23.67
-20.02
-19.05
-19.31
-18.94
-16.24
-10.47
-1.92
8.25
18.46
27.38
34.11
38.39
40.36
40.41
38.98
36.47
33.17
29.25
24.72
19.54
13.77
7.81
2.53
-0.85
-1.07
2.72
10.44
20.99
32.57
43.33
52.12
58.96
64.89
71.28
78.97
87.64
95.88
101.81
103.95
101.83
96.13
88.50
81.00
75.78
74.68
78.82
88.08
100.46
111.98
117.31
111.31
91.05
57.40
15.51
-26.49
-59.98
-78.52
-79.85
-66.18
-42.90
-16.62
6.91
23.91
32.82
33.85
28.41
18.65
7.21
-3.11
-10.07
-12.68
-11.86
-10.47
-12.51
-21.84
-40.67
-68.86
-103.82
-141.26
-176.32
-204.54
-222.56
-228.56
-222.37
-205.51
-180.86
-152.11
-122.94
-96.06
-72.85
-53.35
-36.84
-22.62
-10.31
0.11
8.65
15.71
22.04
28.47
35.44
42.75
49.55
54.84
57.93
58.79
58.03
56.49
54.83
53.16
51.09
48.05
43.68
38.13
32.12
26.58
22.29
19.57
18.17
17.49
16.91
16.02
14.78
13.42
12.22
11.32
10.72
10.23
9.72
9.14
8.63
8.37
8.56
9.27
10.38
11.64
12.67
13.17
12.96
12.05
10.69
9.20
7.92
7.07
6.77
6.98
7.55
8.33
9.10
9.66
9.84
9.53
8.72
7.48
5.95
4.31
2.76
1.47
0.56
0.05
-0.10
0.01
0.26
0.54
0.76
0.86
0.81
0.65
0.38
0.10
-0.11
-0.20
-0.11
0.19
0.67
1.32
2.09
2.91
3.64
4.17
4.36
4.22
3.85
3.44
3.18
3.22
3.65
4.44
5.53
6.75
7.93
8.82
9.20
8.94
8.02
6.56
4.81
3.02
1.42
0.14
-0.83
-1.47
-1.82
-1.89
-1.68
-1.21
-0.59
0.04
0.48
0.61
0.40
-0.04
-0.58
-1.09
-1.54
-1.94
-2.38
-2.90
-3.43
-3.81
-3.90
-3.61
-3.00
-2.27
-1.65
-1.28
-1.22
-1.47
-2.00
-2.78
-3.73
-4.66
-5.31
-5.36
-4.59
-2.97
-0.67
1.93
4.40
6.40
7.76
8.43
8.50
8.12
7.42
6.61
5.84
5.25
4.85
4.51
4.01
3.08
1.66
-0.11
-1.81
-2.96
-3.28
-2.81
-1.95
-1.26
-1.24
-2.04
-3.47
-5.10
-6.51
-7.46
-7.95
-8.12
-8.11
-7.96
-7.61
-7.00
-6.15
-5.18
-4.25
-3.50
-3.01
-2.69
-2.41
-2.04
-1.52
-0.91
-0.39
-0.13
-0.16
-0.37
-0.50
-0.27
0.42
1.44
2.45
3.08
3.12
2.65
1.94
1.35
1.16
1.44
2.06
2.85
3.63
4.32
4.95
5.56
6.18
6.73
7.08
7.08
6.60
5.66
4.38
2.99
1.63
0.39
-0.72
-1.74
-2.62
-3.22
-3.42
-3.20
-2.69
-2.17
-1.94
-2.14
-2.70
-3.39
-3.90
-4.05
-3.81
-3.28
-2.66
-2.07
-1.60
-1.25
-1.00
-0.83
-0.72
-0.60
-0.40
0.01
0.73
1.85
3.27
4.76
5.98
6.59
6.41
5.48
4.07
2.53
1.20
0.28
-0.18
-0.28
-0.18
-0.05
-0.02
-0.20
-0.58
-1.09
-1.62
-2.07
-2.39
-2.63
-2.86
-3.07
-3.18
-3.03
-2.53
-1.65
-0.56
0.51
1.35
1.87
2.10
2.18
2.25
2.33
2.37
2.24
1.81
1.08
0.15
-0.81
-1.66
-2.29
-2.71
-2.97
-3.12
-3.17
-3.06
-2.73
-2.18
-1.48
-0.74
-0.17
0.09
-0.05
-0.57
-1.28
-1.97
-2.40
-2.41
-2.00
-1.26
-0.41
0.29
0.64
0.53
-0.06
-0.98
-1.99
-2.79
-3.15
-2.99
-2.43
-1.76
-1.23
-1.04
-1.16
-1.45
-1.70
-1.76
-1.61
-1.36
-1.16
-1.15
-1.39
-1.80
-2.26
-2.65
-2.93
-3.12
-3.27
-3.43
-3.53
-3.45
-3.12
-2.52
-1.76
-1.02
-0.41
0.05
0.48
1.06
1.92
3.03
4.22
5.20
5.69
5.52
4.74
3.55
2.24
1.05
0.12
-0.55
-1.01
-1.30
-1.39
-1.17
-0.55
0.43
1.53
2.46
2.90
2.73
2.00
1.00
0.04
-0.66
-1.06
-1.27
-1.49
-1.83
-2.28
-2.68
-2.87
-2.76
-2.44
-2.08
-1.89
-1.91
-2.03
-2.10
-1.92
-1.53
-1.08
-0.85
-1.07
-1.70
-2.54
-3.20
-3.35
-2.89
-1.95
-0.89
-0.12
0.09
-0.33
-1.21
-2.22
-3.04
-3.45
-3.40
-3.00
-2.42
-1.81
-1.20
-0.56
0.18
1.05
2.00
2.92
3.71
4.37
4.95
5.51
6.03
6.36
6.26
5.50
4.08
2.20
0.28
-1.26
-2.10
-2.23
-1.82
-1.20
-0.67
-0.46
-0.64
-1.19
-2.02
-2.98
-3.87
-4.45
-4.55
-4.14
-3.29
-2.26
-1.36
-0.89
-0.96
-1.53
-2.36
-3.09
-3.41
-3.15
-2.34
-1.19
0.02
1.02
1.66
1.93
1.93
1.82
1.72
1.72
1.78
1.80
1.64
1.15
0.31
-0.77
-1.87
-2.69
-3.02
-2.75
-1.94
-0.75
0.64
2.07
3.40
4.53
5.33
5.71
5.70
5.43
5.13
5.02
5.12
5.26
5.15
4.52
3.34
1.80
0.28
-0.82
-1.28
-1.09
-0.50
0.23
0.78
0.97
0.71
0.06
-0.92
-2.04
-3.11
-3.94
-4.32
-4.11
-3.28
-1.95
-0.44
0.89
1.74
2.00
1.78
1.34
0.95
0.84
1.06
1.55
2.17
2.80
3.38
3.91
4.48
5.13
5.90
6.75
7.59
8.36
9.00
9.52
9.94
10.35
10.90
11.78
13.15
15.11
17.59
20.34
23.00
25.18
26.68
27.51
27.89
28.10
28.24
28.23
27.78
26.62
24.64
22.09
19.44
17.22
15.86
15.51
16.12
17.55
19.59
22.08
24.87
27.86
30.99
34.36
38.14
42.45
47.20
51.97
56.04
58.67
59.43
58.41
56.16
53.34
50.37
47.10
42.95
37.32
29.97
21.36
12.52
4.73
-0.98
-4.17
-5.25
-5.44
-6.68
-11.22
-20.90
-36.39
-56.75
-79.50
-101.38
-119.47
-132.13
-139.40
-142.63
-143.70
-144.03
-144.08
-143.20
-140.03
-133.34
-122.68
-109.10
-95.16
-84.27
-79.47
-82.13
-91.30
-104.11
-117.14
-127.83
-135.22
-139.73
-142.20
-143.18
-142.75
-140.91
-138.11
-135.25
-133.05
-131.37
-128.89
-123.69
-114.23
-100.42
-83.78
-66.93
-52.47
-42.09
-36.21
-34.16
-34.62
-35.99
-36.62
-34.89
-29.15
-17.96
-0.42
23.43
52.28
83.62
114.19
140.86
161.35
174.75
181.44
182.60
179.54
173.24
164.32
153.26
140.77
128.03
116.39
106.95
100.15
95.67
92.52
89.54
85.85
81.15
75.65
69.87
64.25
59.03
54.21
49.64
45.26
41.09
37.24
33.82
30.83
28.23
25.92
23.79
21.73
19.53
17.09
14.35
11.43
8.59
6.13
4.24
3.01
2.60
3.32
5.73
10.35
17.34
26.20
35.75
44.55
51.40
55.79
57.95
58.62
58.59
58.37
58.17
58.05
58.13
58.70
60.10
62.51
65.82
69.61
73.36
76.66
79.34
81.53
83.50
85.61
88.12
91.12
94.45
97.64
99.88
100.22
97.86
92.43
84.14
73.65
61.78
49.10
35.73
21.43
5.85
-11.12
-28.88
-45.96
-60.19
-69.28
-71.75
-67.80
-59.72
-51.47
-47.47
-51.02
-63.22
-82.76
-106.64
-131.36
-153.82
-171.75
-183.59
-188.42
-186.10
-177.62
-165.28
-151.98
-140.12
-130.45
-121.68
-111.46
-97.88
-80.83
-62.33
-45.39
-32.33
-23.48
-17.12
-10.73
-2.69
6.53
14.56
18.51
16.65
9.90
1.77
-2.85
0.39
13.58
35.95
64.25
94.17
121.56
143.39
157.85
163.96
161.17
149.38
129.39
103.24
74.30
46.60
23.80
8.04
-0.61
-3.85
-4.39
-4.81
-6.80
-10.79
-16.17
-21.88
-26.91
-30.66
-32.93
-33.77
-33.27
-31.48
-28.46
-24.42
-19.80
-15.20
-11.26
-8.45
-6.99
-6.84
-7.96
-10.47
-14.82
-21.64
-31.41
-44.17
-59.21
-75.20
-90.45
-103.39
-112.99
-118.95
-121.54
-121.30
-118.59
-113.37
-105.11
-93.09
-76.58
-55.38
-30.01
-1.90
26.87
54.08
78.05
98.12
114.80
129.37
143.08
156.61
169.74
181.77
192.01
200.20
206.48
210.82
212.63
210.76
204.08
192.21
176.05
157.44
138.34
119.82
101.54
81.90
58.84
30.81
-2.61
-40.66
-81.70
-123.57
-163.74
-199.44
-227.83
-246.37
-253.42
-248.76
-233.68
-210.66
-182.59
-151.84
-119.64
-86.43
-53.14
-22.59
0.15
9.17
0.58
-24.80
-60.48
-96.24
-121.99
-131.75
-125.64
-108.84
-88.26
-69.13
-53.21
-39.36
-25.56
-10.93
3.60
15.96
24.36
28.21
28.38
26.73
25.12
24.71
25.64
27.31
28.95
30.04
30.54
30.80
31.10
31.33
30.90
29.00
25.07
19.22
12.32
5.71
0.67
-2.19
-3.21
-3.49
-4.48
-7.36
-12.58
-19.76
-27.88
-35.73
-42.23
-46.65
-48.58
-47.88
-44.65
-39.39
-32.98
-26.57
-21.25
-17.62
-15.58
-14.40
-13.15
-11.20
-8.51
-5.59
-3.19
-1.81
-1.45
-1.66
-1.71
-1.00
0.78
3.60
7.19
11.19
15.26
19.02
22.12
24.17
24.98
24.52
23.15
21.37
19.76
18.71
18.40
18.83
19.94
21.70
23.88
26.11
27.73
28.05
26.57
23.25
18.54
13.21
8.02
3.52
0.04
-2.30
-3.41
-3.26
-1.94
0.30
3.00
5.71
8.02
9.69
10.62
10.77
10.14
8.79
6.91
4.80
2.81
1.24
0.30
0.06
0.49
1.53
3.05
4.86
6.74
8.40
9.62
10.16
9.94
8.91
7.13
4.72
1.82
-1.50
-5.24
-9.45
-14.17
-19.24
-24.34
-28.95
-32.68
-35.43
-37.53
-39.65
-42.50
-46.59
-51.90
-58.00
-64.10
-69.46
-73.51
-76.03
-77.23
-77.66
-78.22
-79.97
-83.62
-88.83
-93.54
-93.86
-84.90
-62.56
-25.37
24.23
80.13
134.31
179.31
210.32
226.20
229.00
222.63
211.49
199.55
190.10
185.59
187.42
195.44
207.51
219.72
227.35
226.51
215.58
195.98
171.58
147.06
125.93
109.24
95.38
81.23
63.80
41.59
15.07
-13.72
-42.09
-67.65
-88.72
-104.43
-114.53
-119.18
-118.96
-114.86
-108.22
-100.48
-92.79
-85.73
-79.18
-72.53
-65.02
-56.11
-45.74
-34.42
-23.02
-12.65
-4.15
2.09
6.28
9.08
11.11
12.17
11.01
5.40
-6.65
-25.54
-49.07
-72.60
-90.54
-98.29
-93.90
-78.17
-53.68
-23.44
9.96
44.25
76.91
104.90
125.44
137.15
140.97
139.99
138.00
137.78
139.69
141.80
140.99
134.58
121.30
101.60
76.91
48.71
17.78
-15.67
-51.28
-87.59
-121.52
-149.00
-166.47
-172.71
-169.66
-161.80
-154.33
-150.85
-152.09
-156.03
-159.28
-158.78
-152.88
-141.44
-125.28
-105.60
-83.79
-61.67
-41.68
-26.72
-19.50
-21.59
-32.60
-49.87
-68.92
-84.63
-92.81
-91.49
-81.57
-66.30
-49.84
-35.65
-25.37
-18.70
-14.18
-10.39
-6.68
-3.26
-0.66
0.98
2.18
3.81
6.47
10.09
13.93
17.08
19.01
19.74
19.81
19.78
19.95
20.19
20.11
19.37
17.86
15.80
13.66
11.96
11.06
11.03
11.64
12.43
12.93
12.88
12.21
11.08
9.73
8.37
7.15
6.16
5.47
5.11
4.99
4.98
4.90
4.60
4.08
3.48
3.01
2.78
2.83
3.09
3.42
3.66
3.63
3.14
2.04
0.28
-1.96
-4.32
-6.40
-7.87
-8.67
-8.98
-9.07
-9.18
-9.28
-9.17
-8.58
-7.35
-5.51
-3.28
-0.94
1.33
3.52
5.72
8.06
10.51
12.90
14.95
16.40
17.11
17.08
16.41
15.31
13.98
12.66
11.53
10.68
10.10
9.67
9.22
8.61
7.78
6.72
5.40
3.78
1.74
-0.70
-3.45
-6.32
-9.03
-11.40
-13.24
-14.41
-14.72
-14.00
-12.17
-9.30
-5.71
-1.84
1.86
5.06
7.61
9.45
10.63
11.18
11.20
10.88
10.46
10.25
10.45
11.11
12.04
12.87
13.19
12.70
11.34
9.33
7.11
5.19
3.95
3.55
3.86
4.55
5.19
5.40
4.98
3.92
2.42
0.83
-0.45
-1.12
-1.05
-0.30
0.86
2.10
3.08
3.53
3.34
2.55
1.36
0.09
-0.87
-1.16
-0.60
0.78
2.74
4.93
7.01
8.80
10.31
11.59
12.69
13.55
14.01
13.89
13.13
11.82
10.19
8.59
7.36
6.67
6.51
6.71
6.91
6.76
6.01
4.62
2.82
0.98
-0.46
-1.25
-1.44
-1.38
-1.59
-2.48
-4.19
-6.44
-8.65
-10.20
-10.69
-10.05
-8.59
-6.82
-5.20
-3.96
-3.07
-2.17
-0.71
1.91
6.24
12.65
21.25
31.77
43.49
55.27
65.80
73.92
79.03
81.16
80.80
78.40
74.04
67.25
57.46
44.69
29.95
15.26
2.94
-5.34
-9.22
-9.65
-8.34
-6.86
-6.23
-6.92
-9.18
-13.36
-19.82
-28.63
-39.25
-50.56
-61.14
-69.68
-75.34
-77.80
-77.24
-74.25
-69.92
-65.57
-62.53
-61.61
-62.81
-65.38
-68.23
-70.48
-71.77
-72.19
-71.91
-70.88
-68.89
-65.78
-61.63
-56.63
-50.75
-43.51
-34.17
-22.27
-8.33
5.96
18.14
25.97
28.39
25.97
20.60
14.69
10.20
8.00
7.88
8.84
9.56
8.80
5.45
-1.26
-11.65
-25.27
-40.69
-55.82
-68.49
-77.54
-83.41
-88.01
-93.43
-100.43
-107.44
-110.89
-106.88
-93.28
-70.92
-43.07
-13.58
15.09
42.35
68.48
92.81
112.89
125.20
127.39
120.22
107.93
96.60
91.23
93.52
101.44
110.83
117.83
120.81
120.71
119.92
120.57
123.41
127.41
130.53
130.60
126.32
117.56
105.15
90.38
74.51
58.44
42.77
27.97
14.57
3.14
-5.74
-11.78
-15.15
-16.43
-16.51
-16.31
-16.44
-17.09
-18.03
-18.77
-18.94
-18.52
-17.87
-17.58
-18.17
-19.76
-22.04
-24.42
-26.37
-27.66
-28.49
-29.35
-30.75
-32.99
-36.08
-39.68
-43.26
-46.18
-47.83
-47.80
-46.04
-42.91
-39.08
-35.33
-32.15
-29.52
-26.77
-22.78
-16.31
-6.48
6.83
22.83
39.83
55.70
68.35
76.28
78.98
76.87
71.14
63.26
54.55
45.95
37.94
30.67
24.13
18.28
12.99
8.20
3.76
-0.41
-4.22
-7.52
-10.05
-11.67
-12.42
-12.60
-12.64
-13.02
-13.93
-15.29
-16.74
-17.76
-17.91
-17.00
-15.15
-12.78
-10.44
-8.73
-8.12
-8.88
-11.07
-14.44
-18.51
-22.53
-25.65
-27.18
-26.70
-24.29
-20.49
-16.08
-11.90
-8.52
-6.09
-4.34
-2.78
-0.96
1.23
3.44
5.05
5.40
4.30
2.14
-0.20
-1.70
-1.74
-0.37
1.68
3.39
4.02
3.47
2.29
1.52
2.15
4.74
9.08
14.20
18.57
20.38
18.10
10.89
-0.98
-15.78
-30.48
-41.30
-45.02
-40.13
-27.76
-11.43
4.09
14.57
17.81
14.28
6.64
-1.47
-6.83
-7.52
-3.26
4.93
15.15
25.24
33.17
37.48
37.48
33.41
26.14
16.94
7.12
-2.27
-10.47
-17.06
-21.84
-24.85
-26.44
-27.06
-27.31
-27.61
-28.03
-28.14
-27.24
-24.61
-20.07
-14.25
-8.47
-4.26
-2.68
-3.85
-6.90
-10.47
-13.34
-14.93
-15.37
-15.13
-14.65
-14.04
-13.21
-12.07
-10.76
-9.60
-8.69
-7.48
-4.71
1.28
11.72
26.64
44.37
61.92
75.72
82.70
81.11
70.92
53.61
31.83
8.75
-12.53
-29.52
-40.81
-46.18
-46.47
-42.93
-36.72
-28.61
-19.12
-8.97
0.50
7.32
9.36
5.22
-5.13
-20.06
-36.72
-51.84
-62.76
-68.04
-67.67
-62.72
-54.63
-44.72
-33.93
-22.90
-12.26
-2.86
4.44
9.03
10.95
10.98
10.30
10.05
10.85
12.60
14.67
16.29
16.97
16.65
15.73
14.68
13.82
13.15
12.47
11.59
10.52
9.51
8.81
8.65
8.90
9.32
9.59
9.52
9.09
8.42
7.61
6.68
5.59
4.31
2.96
1.82
1.19
1.28
2.09
3.36
4.65
5.51
5.58
4.77
3.21
1.21
-0.78
-2.30
-2.92
-2.47
-0.99
1.14
3.39
5.26
6.41
6.84
6.73
6.30
5.76
5.20
4.66
4.18
3.78
3.44
2.97
2.05
0.40
-2.06
-5.10
-8.24
-10.91
-12.70
-13.45
-13.31
-12.57
-11.49
-10.24
-8.84
-7.20
-5.30
-3.26
-1.43
-0.21
0.15
-0.28
-1.06
-1.58
-1.29
-0.01
2.00
4.23
6.11
7.38
7.99
8.15
8.02
7.72
7.23
6.54
5.63
4.57
3.43
2.33
1.29
0.36
-0.46
-1.17
-1.80
-2.34
-2.79
-3.10
-3.29
-3.35
-3.30
-3.15
-2.91
-2.58
-2.14
-1.68
-1.27
-1.09
-1.28
-1.96
-3.16
-4.78
-6.65
-8.52
-10.22
-11.66
-12.91
-14.09
-15.36
-16.82
-18.52
-20.42
-22.40
-24.32
-25.94
-26.93
-27.02
-26.06
-24.25
-22.03
-19.92
-18.14
-16.39
-13.80
-9.30
-2.01
8.36
21.35
35.85
50.19
62.52
71.06
74.50
72.41
65.53
55.65
45.12
36.02
29.47
25.41
22.93
21.05
19.32
18.01
17.92
19.75
23.92
30.35
38.62
48.16
58.34
68.42
77.58
84.89
89.54
91.02
89.34
85.05
79.10
72.62
66.52
61.20
56.44
51.48
45.44
37.65
27.95
16.63
4.23
-8.83
-22.22
-35.69
-48.87
-61.15
-71.77
-80.09
-85.80
-89.03
-90.22
-89.90
-88.37
-85.72
-81.90
-76.86
-70.88
-64.48
-58.32
-52.95
-48.54
-44.96
-41.96
-39.46
-37.76
-37.45
-39.18
-43.37
-50.12
-59.23
-70.24
-82.35
-94.16
-103.50
-107.68
-104.10
-91.26
-69.60
-41.56
-10.90
18.48
43.74
63.70
78.78
90.27
99.64
107.91
115.48
122.07
126.93
129.09
127.58
121.76
111.60
97.77
81.57
64.60
48.45
34.34
22.95
14.45
8.63
5.04
3.10
2.21
1.75
1.06
-0.60
-3.90
-9.46
-17.57
-28.08
-40.28
-53.06
-65.20
-75.83
-84.65
-91.83
-97.80
-102.66
-106.05
-107.01
-104.24
-96.39
-82.39
-61.74
-34.73
-2.59
32.48
67.59
99.66
126.07
145.16
156.40
160.10
157.26
149.12
137.18
123.10
108.66
95.55
85.08
77.94
73.96
72.24
71.31
69.61
65.96
60.00
52.17
43.45
34.79
26.58
18.58
10.15
0.87
-9.12
-19.13
-28.29
-36.08
-42.46
-47.72
-52.08
-55.50
-57.58
-57.93
-56.55
-53.90
-50.82
-48.13
-46.35
-45.51
-45.15
-44.77
-44.03
-43.14
-42.78
-43.91
-47.26
-53.12
-61.16
-70.86
-81.95
-94.70
-109.74
-127.49
-147.58
-168.54
-187.98
-203.30
-212.42
-214.34
-209.24
-198.28
-182.98
-164.80
-144.80
-123.59
-101.54
-79.10
-57.09
-36.78
-19.55
-6.43
2.45
7.99
11.76
15.20
18.96
22.56
24.80
24.51
21.39
16.31
11.00
7.21
5.96
7.26
10.33
14.21
18.22
22.02
25.35
27.50
27.29
23.37
14.82
1.81
-14.15
-30.43
-43.98
-52.22
-53.70
-48.48
-37.97
-24.46
-10.41
2.19
12.29
19.81
25.35
29.76
33.80
37.97
42.66
48.24
54.94
62.57
70.37
77.08
81.37
82.45
80.45
76.37
71.52
66.87
62.70
58.70
54.37
49.51
44.29
39.09
34.29
30.08
26.69
24.52
24.24
26.47
31.38
38.46
46.66
54.82
62.26
68.94
75.31
81.92
89.00
96.43
103.93
111.29
118.41
125.12
130.87
134.76
135.62
132.57
125.27
114.00
99.53
82.78
64.72
46.34
28.77
13.26
1.00
-7.20
-11.24
-11.91
-10.72
-9.49
-9.85
-12.73
-18.15
-25.28
-32.84
-39.59
-44.75
-48.17
-50.15
-51.13
-51.38
-50.89
-49.56
-47.39
-44.63
-41.74
-39.16
-37.18
-35.81
-34.86
-34.13
-33.54
-33.15
-33.13
-33.54
-34.18
-34.63
-34.36
-32.93
-30.25
-26.63
-22.77
-19.63
-18.11
-18.92
-22.52
-28.91
-37.66
-47.54
-56.53
-61.90
-60.73
-50.81
-31.43
-3.93
28.66
62.24
92.84
117.40
134.26
143.00
144.10
138.40
126.93
110.93
91.85
71.29
50.78
31.30
13.16
-4.08
-21.16
-38.63
-56.38
-73.66
-89.36
-102.47
-112.57
-119.94
-125.42
-129.86
-133.71
-136.43
-136.35
-130.92
-117.47
-94.27
-61.55
-21.80
20.90
62.05
98.04
126.59
146.51
156.84
156.44
144.59
122.14
92.27
60.25
31.53
9.50
-6.02
-18.44
-32.35
-50.81
-73.66
-97.61
-118.00
-131.12
-135.92
-133.97
-128.46
-122.33
-117.11
-112.82
-108.67
-104.22
-100.03
-97.36
-97.45
-100.56
-105.60
-110.57
-113.35
-112.64
-108.20
-100.82
-91.74
-82.21
-73.24
-65.50
-59.32
-54.55
-50.59
-46.57
-41.67
-35.54
-28.41
-20.88
-13.44
-6.05
1.81
10.77
21.01
31.92
42.52
51.96
60.18
68.00
76.67
87.09
99.30
112.44
125.36
137.33
148.45
159.39
170.78
182.43
193.18
201.36
205.47
204.95
200.20
192.18
181.69
169.02
153.93
136.17
116.12
95.08
74.97
57.69
44.28
34.52
27.16
20.42
12.82
3.69
-6.81
-17.99
-29.07
-39.46
-48.86
-57.08
-63.86
-68.80
-71.49
-71.73
-69.62
-65.57
-60.14
-53.86
-47.14
-40.22
-33.31
-26.55
-20.07
-13.94
-8.09
-2.36
3.30
8.75
13.60
17.43
20.17
22.36
25.21
30.20
38.49
50.28
64.58
79.34
91.99
100.14
102.32
98.34
89.29
77.13
64.06
51.70
40.73
30.85
21.19
10.86
-0.49
-12.48
-24.21
-34.57
-42.62
-47.81
-49.92
-49.21
-46.33
-42.26
-38.06
-34.65
-32.44
-31.43
-31.24
-31.50
-31.99
-32.61
-33.12
-33.08
-31.76
-28.49
-23.10
-16.08
-8.62
-2.14
2.13
3.56
2.10
-1.84
-7.85
-15.70
-25.45
-37.21
-50.81
-65.46
-79.68
-91.61
-99.58
-102.86
-101.95
-98.54
-94.95
-93.46
-95.84
-103.13
-115.54
-132.25
-151.24
-169.14
-181.82
-185.39
-177.52
-158.54
-131.44
-100.98
-72.10
-48.27
-30.61
-17.79
-6.82
5.90
23.36
46.94
75.84
106.90
135.16
154.96
161.33
151.44
125.52
86.96
41.42
-4.63
-45.69
-78.50
-102.38
-118.65
-129.62
-137.38
-143.33
-148.17
-152.29
-156.10
-160.09
-164.46
-168.91
-172.42
-173.68
-171.56
-165.64
-156.27
-144.31
-130.67
-115.85
-99.91
-82.63
-63.89
-43.92
-23.31
-2.76
17.32
37.03
57.04
78.27
101.36
126.25
151.86
176.27
197.27
213.11
223.05
227.66
228.39
227.00
224.79
222.22
219.08
214.88
209.27
202.29
194.25
185.41
175.67
164.60
151.57
136.16
118.42
98.99
78.90
59.35
41.43
26.02
13.63
4.27
-2.64
-8.17
-13.46
-19.10
-24.68
-28.82
-29.73
-26.24
-18.59
-8.51
1.38
8.63
11.84
10.92
6.85
1.15
-4.57
-8.95
-10.92
-9.96
-6.24
-0.60
5.63
11.13
14.97
16.88
17.10
16.14
14.55
12.73
10.96
9.40
7.98
6.52
4.75
2.46
-0.53
-4.40
-9.54
-16.66
-26.72
-40.55
-58.37
-79.44
-102.00
-123.35
-140.35
-150.01
-150.14
-140.04
-120.94
-96.04
-69.89
-47.18
-31.40
-23.80
-22.99
-25.58
-27.36
-24.62
-15.29
0.68
21.61
44.74
67.20
86.58
101.30
110.58
114.10
111.87
104.22
91.87
76.16
58.72
41.04
23.86
6.89
-10.99
-30.99
-53.76
-79.06
-105.74
-132.06
-156.02
-175.50
-188.41
-192.95
-187.89
-173.08
-149.71
-120.17
-87.55
-54.98
-25.07
0.49
20.76
35.43
44.50
48.24
47.24
42.49
35.51
28.10
21.96
18.21
17.09
18.01
19.96
22.04
23.86
25.56
27.59
30.35
33.85
37.68
41.08
43.25
43.61
42.05
39.04
35.49
32.48
30.79
30.63
31.72
33.48
35.42
37.30
39.07
40.61
41.65
41.82
40.89
39.06
36.93
35.25
34.62
35.20
36.66
38.43
39.84
40.37
39.65
37.55
34.22
30.05
25.67
21.69
18.51
16.16
14.27
12.37
10.07
7.26
4.15
1.14
-1.35
-3.02
-3.78
-3.78
-3.34
-2.82
-2.54
-2.64
-3.12
-3.88
-4.77
-5.68
-6.47
-7.00
-7.10
-6.70
-5.86
-4.77
-3.78
-3.24
-3.45
-4.54
-6.54
-9.28
-12.46
-15.65
-18.34
-20.06
-20.55
-19.78
-17.93
-15.29
-12.10
-8.54
-4.74
-0.97
2.44
5.08
6.64
7.08
6.59
5.53
4.28
3.11
2.15
1.45
0.99
0.77
0.78
0.92
1.11
1.26
1.31
1.27
1.10
0.82
0.47
0.15
0.02
0.21
0.67
1.15
1.32
0.86
-0.27
-1.90
-3.65
-5.17
-6.35
-7.25
-8.03
-8.82
-9.56
-10.12
-10.34
-10.14
-9.56
-8.58
-7.15
-5.15
-2.48
0.71
3.98
6.65
8.05
7.77
5.95
3.14
0.23
-1.97
-2.95
-2.60
-1.15
1.02
3.54
6.21
8.86
11.35
13.52
15.18
16.18
16.49
16.25
15.70
15.06
14.48
13.97
13.45
12.86
12.18
11.44
10.74
10.12
9.57
9.00
8.31
7.39
6.16
4.64
2.87
0.98
-0.95
-2.83
-4.61
-6.27
-7.83
-9.29
-10.61
-11.73
-12.56
-13.03
-13.03
-12.50
-11.31
-9.40
-6.77
-3.56
-0.01
3.54
6.80
9.56
11.73
13.26
14.20
14.58
14.47
13.90
12.95
11.61
9.86
7.71
5.20
2.45
-0.32
-2.96
-5.31
-7.38
-9.14
-10.53
-11.46
-11.83
-11.66
-11.13
-10.50
-10.04
-9.89
-10.13
-10.69
-11.51
-12.49
-13.51
-14.30
-14.49
-13.72
-11.77
-8.71
-4.93
-1.00
2.55
5.40
7.57
9.29
10.94
12.88
15.29
18.22
21.48
24.70
27.35
28.91
29.09
27.96
26.06
24.13
22.92
22.77
23.50
24.52
25.19
25.09
24.34
23.48
23.27
24.31
26.68
29.93
33.23
35.78
37.12
37.42
37.37
37.83
39.63
43.25
48.74
55.53
62.19
66.44
65.44
56.81
39.69
15.58
-11.87
-37.99
-58.76
-72.22
-78.79
-80.48
-79.63
-77.80
-75.28
-71.57
-66.07
-58.70
-50.05
-41.09
-32.89
-26.19
-21.36
-18.37
-17.06
-17.20
-18.65
-21.27
-24.73
-28.45
-31.53
-32.97
-32.08
-28.78
-23.73
-18.18
-13.49
-10.63
-9.87
-10.74
-12.30
-13.56
-13.81
-12.89
-11.06
-8.91
-7.03
-5.83
-5.38
-5.51
-5.89
-6.30
-6.67
-7.11
-7.74
-8.53
-9.26
-9.64
-9.48
-8.88
-8.23
-8.01
-8.52
-9.66
-10.92
-11.56
-10.90
-8.59
-4.71
0.30
5.73
10.83
14.97
17.71
18.91
18.63
17.14
14.83
12.12
9.49
7.36
6.05
5.71
6.32
7.67
9.44
11.23
12.66
13.36
13.05
11.62
9.19
6.13
2.89
-0.12
-2.69
-4.84
-6.71
-8.43
-9.97
-11.27
-12.28
-13.09
-13.92
-15.01
-16.52
-18.39
-20.49
-22.63
-24.70
-26.60
-28.23
-29.41
-29.90
-29.43
-27.91
-25.42
-22.21
-18.59
-14.82
-10.93
-6.69
-1.83
3.81
10.10
16.55
22.44
27.11
30.23
31.88
32.47
32.53
32.44
32.32
32.00
31.24
29.90
28.02
25.84
23.67
21.72
20.00
18.34
16.52
14.42
12.12
9.99
8.52
8.13
9.06
11.14
13.90
16.67
18.80
19.86
19.76
18.72
17.19
15.62
14.34
13.49
13.06
12.91
12.94
13.03
13.10
13.05
12.78
12.18
11.19
9.81
8.18
6.48
4.87
3.43
2.15
0.95
-0.27
-1.54
-2.80
-3.92
-4.73
-5.03
-4.68
-3.62
-1.85
0.54
3.28
6.10
8.67
10.77
12.31
13.38
14.16
14.81
15.45
15.98
16.25
15.95
14.86
12.84
9.91
6.25
2.15
-2.10
-6.18
-9.90
-13.09
-15.69
-17.64
-18.88
-19.31
-18.86
-17.48
-15.29
-12.52
-9.50
-6.53
-3.83
-1.56
0.17
1.27
1.69
1.50
0.93
0.33
0.02
0.15
0.57
0.95
0.93
0.27
-1.05
-2.94
-5.27
-8.01
-11.16
-14.62
-18.11
-21.21
-23.52
-24.86
-25.30
-25.10
-24.56
-23.77
-22.70
-21.23
-19.41
-17.44
-15.67
-14.39
-13.70
-13.47
-13.32
-12.83
-11.63
-9.63
-7.01
-4.17
-1.65
0.10
0.83
0.59
-0.35
-1.58
-2.73
-3.59
-4.12
-4.47
-4.85
-5.50
-6.58
-8.08
-9.86
-11.64
-13.14
-14.04
-14.24
-13.70
-12.49
-10.68
-8.36
-5.57
-2.43
0.76
3.65
5.80
6.93
7.01
6.31
5.23
4.13
3.24
2.56
1.99
1.38
0.66
-0.14
-1.00
-1.83
-2.57
-3.10
-3.38
-3.37
-3.13
-2.76
-2.42
-2.18
-1.94
-1.54
-0.75
0.57
2.45
4.71
7.03
9.05
10.41
10.92
10.60
9.67
8.47
7.35
6.54
6.13
6.13
6.45
7.04
7.84
8.79
9.79
10.64
11.22
11.40
11.26
10.92
10.56
10.21
9.76
8.96
7.60
5.65
3.31
0.99
-0.87
-1.95
-2.15
-1.69
-0.91
-0.15
0.34
0.55
0.61
0.71
1.02
1.66
2.64
3.81
4.90
5.44
4.90
2.89
-0.68
-5.37
-10.41
-14.84
-18.03
-19.82
-20.62
-21.17
-22.15
-23.83
-26.00
-28.11
-29.60
-30.10
-29.59
-28.30
-26.47
-24.19
-21.47
-18.22
-14.53
-10.58
-6.57
-2.57
1.56
5.98
10.65
15.29
19.35
22.36
24.10
24.80
24.88
24.83
24.90
25.17
25.57
25.96
26.24
26.24
25.84
24.92
23.53
21.80
19.93
18.02
16.03
13.82
11.20
8.04
4.26
-0.09
-4.87
-9.79
-14.39
-18.09
-20.37
-21.01
-20.24
-18.70
-17.17
-16.27
-16.23
-16.86
-17.63
-18.03
-17.64
-16.35
-14.24
-11.55
-8.56
-5.54
-2.79
-0.63
0.62
0.72
-0.35
-2.31
-4.67
-6.88
-8.50
-9.45
-9.96
-10.41
-11.09
-12.00
-12.85
-13.22
-12.89
-11.89
-10.53
-9.22
-8.14
-7.22
-6.11
-4.45
-2.09
0.85
4.06
7.15
9.84
11.96
13.36
13.94
13.62
12.40
10.50
8.31
6.28
4.78
3.97
3.70
3.67
3.54
3.07
2.21
1.10
-0.03
-0.91
-1.34
-1.27
-0.82
-0.21
0.32
0.59
0.55
0.20
-0.41
-1.26
-2.35
-3.57
-4.67
-5.26
-5.05
-3.92
-2.06
0.10
2.12
3.64
4.57
5.02
5.13
5.05
4.78
4.27
3.39
2.02
0.12
-2.23
-4.72
-6.82
-7.92
-7.46
-5.11
-1.00
4.39
10.27
15.83
20.42
23.78
25.91
27.05
27.36
26.80
25.21
22.41
18.53
14.00
9.44
5.41
2.14
-0.54
-2.93
-5.26
-7.47
-9.26
-10.30
-10.52
-10.13
-9.55
-9.13
-8.99
-8.99
-8.88
-8.46
-7.74
-6.98
-6.41
-6.25
-6.43
-6.77
-6.99
-6.89
-6.37
-5.48
-4.35
-3.09
-1.78
-0.48
0.73
1.77
2.55
3.03
3.19
3.13
2.92
2.62
2.24
1.73
1.12
0.49
0.09
0.16
0.84
2.07
3.59
5.00
5.93
6.24
5.96
5.24
4.28
3.23
2.20
1.20
0.28
-0.57
-1.34
-2.13
-2.99
-4.00
-5.11
-6.26
-7.36
-8.46
-9.58
-10.74
-11.86
-12.76
-13.24
-13.11
-12.31
-10.86
-8.84
-6.32
-3.46
-0.51
2.20
4.33
5.74
6.53
7.12
7.92
9.25
11.08
13.16
15.05
16.41
17.13
17.26
16.96
16.37
15.51
14.37
12.84
10.97
8.87
6.85
5.32
4.67
5.26
7.28
10.78
15.62
21.53
28.17
35.12
41.93
48.05
52.91
55.98
56.87
55.49
52.19
47.70
43.07
39.40
37.54
38.00
40.81
45.60
51.74
58.50
65.12
70.92
75.32
77.90
78.48
77.12
74.21
70.18
65.25
59.07
50.73
38.94
22.68
1.68
-23.25
-50.39
-77.63
-103.04
-125.28
-143.73
-158.26
-168.95
-175.85
-178.98
-178.32
-174.04
-166.56
-156.54
-144.78
-132.22
-119.76
-108.24
-98.30
-90.35
-84.39
-80.00
-76.44
-72.81
-68.39
-62.93
-56.75
-50.79
-46.17
-43.97
-44.66
-47.74
-51.68
-54.14
-52.67
-45.58
-32.67
-15.49
3.06
19.63
31.50
37.34
37.55
33.87
28.72
24.57
23.37
26.44
34.17
46.19
61.22
77.21
91.75
102.62
108.55
109.72
107.84
105.37
104.65
106.77
111.21
116.00
118.53
116.60
109.07
96.18
79.14
59.84
40.32
22.60
8.48
-0.73
-4.49
-3.38
1.12
7.05
12.79
17.58
21.66
25.78
30.38
35.11
38.80
39.98
37.62
31.56
22.50
11.66
0.32
-10.56
-20.35
-28.74
-35.61
-40.90
-44.64
-46.81
-47.49
-46.80
-45.11
-42.98
-40.96
-39.49
-38.59
-37.93
-36.99
-35.44
-33.29
-30.96
-29.04
-27.98
-27.87
-28.39
-28.97
-29.10
-28.47
-27.14
-25.42
-23.72
-22.32
-21.30
-20.61
-20.16
-19.98
-20.21
-21.02
-22.41
-24.12
-25.71
-26.72
-26.83
-25.94
-24.16
-21.66
-18.60
-15.09
-11.33
-7.59
-4.24
-1.60
0.20
1.24
1.87
2.53
3.48
4.88
6.56
8.28
9.78
10.91
11.66
12.12
12.41
12.53
12.48
12.21
11.71
11.08
10.45
9.96
9.61
9.26
8.67
7.62
6.05
4.19
2.37
0.97
0.17
-0.09
-0.05
0.06
0.20
0.43
0.94
1.71
2.54
2.99
2.67
1.45
-0.45
-2.42
-3.82
-4.14
-3.32
-1.73
-0.01
1.24
1.66
1.29
0.42
-0.63
-1.64
-2.61
-3.53
-4.37
-4.97
-5.18
-5.01
-4.70
-4.68
-5.28
-6.53
-7.99
-9.00
-8.92
-7.60
-5.33
-2.75
-0.55
0.96
1.84
2.42
2.93
3.35
3.32
2.49
0.77
-1.52
-3.64
-4.80
-4.44
-2.38
1.14
5.56
10.21
14.38
17.51
19.34
19.93
19.74
19.44
19.62
20.56
22.10
23.78
24.98
25.22
24.28
22.26
19.44
16.23
13.03
10.14
7.76
5.96
4.70
3.95
3.68
3.92
4.64
5.77
7.16
8.57
9.83
10.83
11.54
11.99
12.19
12.14
11.82
11.16
10.08
8.55
6.55
4.16
1.42
-1.59
-4.81
-8.13
-11.19
-13.43
-14.01
-12.20
-7.59
-0.47
8.22
17.08
24.74
30.16
32.87
32.96
30.79
26.91
21.96
16.60
11.53
7.22
3.77
0.81
-2.26
-6.01
-10.63
-15.85
-21.06
-25.69
-29.43
-32.37
-34.88
-37.24
-39.41
-40.98
-41.35
-40.08
-37.14
-32.97
-28.27
-23.69
-19.53
-15.81
-12.26
-8.68
-4.99
-1.17
2.87
7.35
12.51
18.29
24.28
29.66
33.68
36.00
36.87
37.03
37.23
37.94
39.25
41.02
43.16
45.76
49.01
52.95
57.35
61.80
65.94
69.79
73.80
78.78
85.56
94.75
106.62
120.98
137.26
154.46
171.06
185.10
194.38
196.69
190.28
174.22
148.47
113.90
72.15
25.63
-22.63
-69.38
-111.65
-147.41
-176.01
-198.11
-215.18
-228.70
-239.52
-247.52
-251.77
-251.09
-244.65
-232.30
-214.78
-193.50
-170.24
-146.90
-125.02
-105.51
-88.39
-72.94
-58.35
-44.32
-31.48
-21.22
-15.06
-13.62
-15.91
-19.44
-20.92
-17.39
-7.32
8.91
29.16
50.30
68.98
82.50
89.41
90.00
86.33
81.72
79.71
82.80
91.43
103.88
116.88
126.94
131.45
129.39
121.15
107.98
91.32
72.50
52.70
33.10
14.84
-1.13
-14.17
-24.21
-31.53
-36.60
-39.70
-40.63
-38.71
-33.21
-23.91
-11.75
1.08
11.59
17.04
16.08
9.27
-1.21
-12.56
-22.66
-30.77
-37.68
-44.93
-53.88
-64.99
-77.61
-90.35
-101.72
-110.80
-117.49
-122.49
-126.79
-131.23
-136.15
-141.39
-146.52
-150.99
-154.31
-155.96
-155.27
-151.50
-144.02
-132.58
-117.47
-99.60
-80.32
-61.10
-43.29
-27.80
-14.89
-4.22
5.04
14.05
23.78
34.76
46.82
59.15
70.62
80.35
88.06
94.14
99.44
104.81
110.66
116.81
122.61
127.18
129.64
129.27
125.47
118.01
107.20
94.10
80.42
68.19
59.15
54.20
53.18
55.00
58.01
60.41
60.72
58.00
52.08
43.60
33.82
24.29
16.34
10.78
7.76
6.92
7.67
9.38
11.47
13.42
14.86
15.55
15.56
15.23
14.92
14.93
15.23
15.60
15.83
15.95
16.24
17.00
18.42
20.33
22.36
24.16
25.62
26.90
28.47
30.84
34.44
39.42
45.68
52.84
60.25
67.05
72.17
74.50
73.16
67.86
59.21
48.67
38.25
29.75
24.10
20.91
18.60
15.14
9.03
-0.02
-10.85
-21.48
-30.03
-35.65
-38.69
-40.59
-43.05
-47.33
-53.92
-62.58
-72.65
-83.31
-93.72
-102.90
-109.70
-112.99
-112.01
-106.66
-97.70
-86.54
-74.73
-63.61
-53.94
-45.89
-39.24
-33.64
-28.93
-25.09
-22.29
-20.67
-20.18
-20.50
-21.17
-21.76
-22.02
-21.90
-21.47
-20.88
-20.16
-19.37
-18.50
-17.63
-16.88
-16.28
-15.80
-15.26
-14.45
-13.22
-11.48
-9.22
-6.52
-3.48
-0.14
3.54
7.77
12.81
18.88
25.93
33.48
40.72
46.76
50.95
53.05
53.26
51.92
49.30
45.48
40.41
34.14
26.92
19.27
11.80
5.02
-0.75
-5.45
-9.20
-12.13
-14.44
-16.33
-17.96
-19.47
-20.88
-22.04
-22.70
-22.57
-21.48
-19.46
-16.83
-14.10
-11.76
-10.09
-9.05
-8.36
-7.63
-6.61
-5.30
-3.90
-2.72
-1.97
-1.73
-1.89
-2.35
-2.92
-3.47
-3.92
-4.15
-4.06
-3.58
-2.73
-1.58
-0.29
0.99
2.16
3.22
4.22
5.28
6.51
7.91
9.41
10.81
11.88
12.44
12.38
11.75
10.71
9.45
8.18
7.05
6.21
5.66
5.39
5.24
5.06
4.67
3.94
2.90
1.67
0.47
-0.44
-0.94
-1.03
-0.89
-0.75
-0.74
-0.88
-1.08
-1.18
-1.12
-0.92
-0.64
-0.39
-0.20
-0.05
0.01
-0.04
-0.29
-0.79
-1.47
-2.19
-2.80
-3.15
-3.22
-3.02
-2.58
-1.95
-1.13
-0.18
0.82
1.78
2.63
3.35
3.97
4.50
4.89
5.08
4.95
4.44
3.60
2.56
1.50
0.64
0.10
-0.02
0.31
1.08
2.24
3.59
4.88
5.78
6.06
5.66
4.73
3.63
2.71
2.20
2.14
2.43
2.89
3.53
4.39
5.57
7.13
8.91
10.61
11.82
12.23
11.75
10.50
8.74
6.77
4.77
2.84
1.07
-0.51
-1.74
-2.52
-2.84
-2.75
-2.44
-2.06
-1.72
-1.39
-1.06
-0.74
-0.50
-0.49
-0.79
-1.41
-2.27
-3.25
-4.23
-5.12
-5.86
-6.43
-6.82
-7.02
-7.08
-7.05
-7.02
-7.04
-7.12
-7.27
-7.41
-7.42
-7.14
-6.41
-5.16
-3.48
-1.60
0.14
1.47
2.24
2.52
2.54
2.52
2.59
2.71
2.76
2.60
2.19
1.60
0.92
0.29
-0.19
-0.51
-0.64
-0.56
-0.24
0.25
0.79
1.16
1.10
0.51
-0.51
-1.67
-2.56
-2.87
-2.58
-1.98
-1.47
-1.40
-1.80
-2.32
-2.49
-1.89
-0.41
1.62
3.63
4.98
5.28
4.52
3.04
1.42
0.18
-0.36
-0.25
0.24
0.67
0.66
0.05
-1.03
-2.11
-2.40
-0.82
3.62
11.50
22.52
35.33
47.93
58.34
65.52
69.83
72.82
76.26
81.23
87.26
92.51
94.65
91.88
83.81
71.51
57.04
42.58
29.88
20.06
13.73
11.35
13.18
19.14
28.55
39.91
51.15
60.03
64.85
64.85
60.51
53.24
44.89
37.14
30.85
25.94
21.48
16.20
9.08
-0.04
-10.51
-21.05
-30.36
-37.61
-42.68
-46.06
-48.46
-50.45
-52.31
-54.07
-55.80
-57.73
-60.44
-64.74
-71.51
-81.65
-95.90
-114.74
-138.23
-165.86
-196.43
-228.06
-258.35
-284.76
-304.99
-317.50
-321.80
-318.68
-309.82
-297.52
-284.19
-272.02
-262.57
-256.39
-252.74
-249.38
-243.07
-230.42
-209.17
-179.14
-142.29
-101.96
-61.40
-22.52
14.55
51.18
89.34
130.70
175.93
224.28
273.36
319.30
357.40
383.39
394.76
391.75
377.31
356.10
332.86
311.04
292.20
276.40
262.91
251.01
240.03
229.27
217.63
203.79
186.71
166.24
143.57
120.97
101.01
85.57
75.03
68.18
62.61
55.63
45.13
30.27
12.11
-6.29
-20.21
-24.56
-15.68
6.64
38.35
71.87
98.58
111.87
109.47
93.75
70.15
44.57
21.16
1.51
-14.75
-28.78
-41.67
-54.24
-67.36
-81.96
-98.75
-117.66
-137.46
-155.94
-170.58
-179.45
-181.81
-178.16
-170.00
-159.14
-147.19
-135.24
-123.64
-112.15
-100.19
-87.22
-73.14
-58.54
-44.53
-32.43
-23.24
-17.35
-14.59
-14.36
-16.02
-19.08
-23.11
-27.73
-32.30
-35.90
-37.46
-36.12
-31.48
-23.91
-14.48
-4.66
4.08
10.61
14.24
14.82
12.42
7.42
0.38
-7.89
-16.38
-24.07
-30.11
-34.02
-35.65
-35.25
-33.24
-30.29
-27.11
-24.43
-22.80
-22.40
-22.97
-23.89
-24.48
-24.22
-22.85
-20.39
-16.99
-12.90
-8.45
-4.01
-0.03
3.08
5.08
6.04
6.33
6.54
7.27
8.88
11.34
14.24
16.91
18.68
19.16
18.33
16.53
14.27
11.94
9.73
7.57
5.36
3.10
0.90
-1.08
-2.78
-4.22
-5.55
-6.92
-8.42
-9.96
-11.29
-11.99
-11.54
-9.48
-5.55
0.16
7.25
14.99
22.64
29.61
35.63
40.69
44.86
48.31
51.11
53.48
55.78
58.48
61.98
66.42
71.53
76.67
81.06
84.04
85.32
84.93
83.20
80.67
77.93
75.52
73.95
73.55
74.42
76.49
79.41
82.64
85.55
87.39
87.49
85.31
80.53
73.08
63.14
51.07
37.36
22.56
7.23
-8.08
-22.98
-37.23
-50.85
-63.92
-76.43
-88.17
-98.63
-107.19
-113.33
-116.69
-117.15
-114.76
-109.69
-102.35
-93.49
-84.23
-75.85
-69.33
-65.01
-62.33
-60.05
-56.81
-51.76
-44.81
-36.66
-28.25
-20.21
-12.57
-4.87
3.48
12.66
22.30
31.60
39.97
47.43
54.68
62.54
71.20
79.62
85.68
87.12
82.59
72.55
59.08
45.18
33.40
24.97
19.68
16.20
12.96
8.70
2.77
-4.93
-14.11
-24.14
-33.99
-42.39
-48.09
-50.43
-49.70
-47.22
-44.82
-44.02
-45.28
-47.75
-49.61
-48.96
-44.62
-36.63
-26.00
-14.14
-2.24
9.00
19.31
28.48
36.10
41.54
44.36
44.51
42.61
39.71
36.93
34.99
33.95
33.36
32.66
31.53
30.02
28.43
26.85
24.96
21.94
16.91
9.42
-0.20
-10.83
-20.99
-29.27
-34.87
-37.66
-38.08
-36.82
-34.52
-31.68
-28.67
-25.83
-23.52
-22.06
-21.61
-22.02
-22.86
-23.49
-23.39
-22.31
-20.40
-18.11
-16.00
-14.53
-13.93
-14.22
-15.30
-17.03
-19.32
-22.19
-25.81
-30.45
-36.49
-44.18
-53.53
-64.19
-75.42
-86.10
-94.93
-100.67
-102.26
-99.14
-91.25
-79.11
-63.65
-46.01
-27.34
-8.73
8.89
24.65
37.85
48.00
54.87
58.51
59.22
57.42
53.65
48.49
42.61
36.67
31.24
26.59
22.60
18.88
14.95
10.50
5.54
0.41
-4.39
-8.51
-11.83
-14.55
-17.03
-19.47
-21.72
-23.13
-22.76
-19.68
-13.39
-4.08
7.46
20.28
33.70
47.54
62.08
77.50
93.43
108.68
121.43
129.81
132.51
129.29
121.12
109.99
98.44
88.92
83.16
81.64
83.30
85.92
86.83
83.87
76.05
63.70
48.21
31.53
15.78
3.06
-4.80
-6.61
-2.33
6.70
17.97
28.59
36.34
40.44
41.65
41.64
41.76
42.28
41.90
38.31
29.09
12.70
-10.77
-39.56
-70.61
-100.27
-125.19
-142.84
-151.97
-152.61
-146.02
-134.25
-119.67
-104.31
-89.47
-75.71
-63.11
-51.76
-42.00
-34.48
-30.00
-29.23
-32.69
-40.71
-53.42
-70.50
-91.01
-113.14
-134.65
-153.36
-167.83
-178.00
-185.04
-190.85
-197.18
-204.72
-212.66
-218.69
-219.77
-213.04
-196.88
-171.51
-138.90
-102.25
-65.14
-30.69
-1.23
22.00
38.79
49.74
56.13
59.53
61.40
62.76
64.15
65.88
68.25
71.74
76.83
83.81
92.60
102.89
114.37
126.95
140.50
154.39
167.13
176.39
179.69
175.52
164.04
147.26
128.24
109.95
94.19
81.18
69.92
59.00
47.39
34.80
21.69
8.80
-3.21
-14.04
-23.60
-31.81
-38.46
-43.17
-45.62
-45.72
-43.81
-40.50
-36.52
-32.41
-28.38
-24.22
-19.33
-12.96
-4.38
6.68
19.81
33.88
47.25
58.33
66.08
70.29
71.49
70.53
67.98
63.98
58.27
50.62
41.26
31.03
21.12
12.61
6.13
1.67
-1.22
-3.08
-4.43
-5.66
-7.12
-9.17
-11.98
-15.32
-18.42
-20.15
-19.52
-16.26
-11.03
-5.23
-0.44
2.20
2.30
0.22
-3.26
-7.37
-11.45
-15.02
-17.59
-18.69
-17.87
-14.84
-9.75
-3.15
3.95
10.30
14.72
16.30
14.68
10.13
3.51
-3.79
-10.21
-14.29
-15.15
-12.63
-7.50
-1.06
5.11
9.69
11.88
11.60
9.28
5.79
2.05
-1.09
-3.10
-3.79
-3.33
-2.10
-0.52
0.92
1.90
2.17
1.54
0.06
-2.00
-4.15
-5.80
-6.48
-6.10
-4.98
-3.77
-3.02
-2.98
-3.43
-3.74
-3.29
-1.80
0.47
2.82
4.46
4.88
4.11
2.60
1.01
-0.11
-0.51
-0.18
0.66
1.79
2.88
3.73
4.16
4.15
3.82
3.43
3.12
2.92
2.64
2.09
1.21
0.24
-0.41
-0.36
0.57
2.20
4.15
5.98
7.38
8.24
8.49
8.16
7.18
5.54
3.26
0.59
-2.14
-4.50
-6.20
-7.09
-7.25
-6.94
-6.49
-6.22
-6.34
-6.91
-7.87
-9.05
-10.28
-11.46
-12.67
-14.10
-16.13
-19.04
-22.92
-27.62
-32.62
-37.17
-40.52
-42.17
-41.97
-40.27
-37.66
-34.85
-32.31
-30.22
-28.44
-26.58
-24.23
-21.03
-16.84
-11.68
-5.69
0.93
8.05
15.52
23.25
31.02
38.43
44.93
49.91
52.88
53.64
52.39
49.60
45.84
41.57
37.05
32.40
27.78
23.44
19.72
16.86
14.85
13.37
11.92
10.07
7.66
4.88
2.20
0.09
-1.13
-1.45
-1.12
-0.45
0.36
1.21
2.18
3.35
4.78
6.40
8.04
9.49
10.57
11.16
11.24
10.91
10.24
9.27
8.00
6.36
4.37
2.15
-0.07
-2.05
-3.65
-4.81
-5.61
-6.13
-6.41
-6.41
-6.09
-5.43
-4.48
-3.32
-1.99
-0.57
0.91
2.28
3.39
4.00
3.95
3.24
2.04
0.66
-0.56
-1.40
-1.86
-2.13
-2.52
-3.24
-4.39
-5.85
-7.38
-8.76
-9.80
-10.38
-10.40
-9.83
-8.64
-6.98
-5.13
-3.46
-2.32
-1.81
-1.82
-2.05
-2.25
-2.34
-2.41
-2.65
-3.06
-3.47
-3.56
-3.07
-2.01
-0.64
0.56
1.19
1.04
0.23
-1.00
-2.33
-3.58
-4.73
-5.86
-7.07
-8.38
-9.79
-11.23
-12.73
-14.32
-16.05
-17.88
-19.63
-21.04
-21.86
-22.03
-21.68
-21.11
-20.58
-20.26
-20.10
-19.92
-19.45
-18.45
-16.76
-14.30
-11.15
-7.45
-3.48
0.42
3.93
6.79
8.89
10.24
10.99
11.37
11.69
12.23
13.06
14.06
14.85
15.03
14.31
12.70
10.51
8.23
6.27
4.82
3.81
2.98
2.09
0.93
-0.58
-2.43
-4.63
-7.22
-10.18
-13.41
-16.67
-19.68
-22.16
-24.03
-25.32
-26.19
-26.73
-26.86
-26.33
-24.90
-22.47
-19.11
-15.07
-10.55
-5.74
-0.72
4.40
9.36
13.79
17.29
19.58
20.63
20.64
19.87
18.57
16.81
14.55
11.89
9.12
6.82
5.66
6.28
8.92
13.47
19.43
26.15
33.07
39.81
46.27
52.49
58.65
64.90
71.36
78.03
84.88
91.72
98.38
104.67
110.58
116.20
121.61
126.92
132.20
137.52
142.86
148.01
152.41
154.98
154.35
149.05
138.11
121.29
99.34
73.78
46.60
19.84
-4.74
-25.89
-42.98
-56.09
-65.95
-73.75
-80.76
-87.99
-95.94
-104.55
-113.39
-121.92
-129.78
-136.87
-143.36
-149.50
-155.59
-161.74
-167.87
-173.53
-177.92
-179.82
-177.95
-171.31
-159.65
-143.62
-124.65
-104.37
-84.08
-64.45
-45.51
-27.16
-9.48
7.03
21.60
33.54
42.52
48.66
52.39
54.26
54.78
54.32
53.16
51.47
49.35
46.75
43.67
40.10
36.21
32.19
28.34
24.80
21.63
18.75
16.15
13.88
12.03
10.63
9.58
8.59
7.34
5.58
3.22
0.41
-2.59
-5.42
-7.71
-9.22
-9.84
-9.83
-9.68
-10.00
-11.28
-13.63
-16.68
-19.70
-21.95
-22.94
-22.57
-21.04
-18.77
-16.14
-13.56
-11.40
-10.03
-9.71
-10.43
-11.87
-13.43
-14.56
-14.85
-14.23
-12.95
-11.41
-9.90
-8.50
-7.17
-5.78
-4.28
-2.78
-1.48
-0.62
-0.30
-0.41
-0.69
-0.78
-0.39
0.63
2.23
4.20
6.33
8.39
10.26
11.88
13.29
14.56
15.83
17.17
18.58
19.98
21.23
22.18
22.73
22.91
22.75
22.38
21.92
21.55
21.40
21.58
22.11
22.89
23.74
24.37
24.48
23.83
22.30
19.88
16.75
13.20
9.61
6.33
3.57
1.34
-0.55
-2.35
-4.32
-6.48
-8.73
-10.77
-12.41
-13.58
-14.41
-15.16
-16.06
-17.24
-18.68
-20.33
-22.28
-24.76
-27.99
-31.93
-36.10
-39.59
-41.47
-41.18
-38.81
-35.02
-30.68
-26.43
-22.45
-18.61
-14.77
-11.14
-8.19
-6.41
-5.86
-6.01
-6.07
-5.36
-3.91
-2.34
-1.66
-2.63
-5.34
-9.12
-12.89
-15.66
-16.99
-17.07
-16.58
-16.25
-16.53
-17.36
-18.22
-18.38
-17.30
-14.84
-11.38
-7.46
-3.50
0.50
4.98
10.58
17.72
26.28
35.64
44.90
53.33
60.64
66.98
72.79
78.37
83.68
88.35
91.74
93.37
93.04
90.98
87.65
83.55
79.02
74.06
68.50
62.20
55.23
47.86
40.52
33.51
26.92
20.63
14.43
8.20
1.88
-4.55
-11.14
-17.99
-25.08
-32.17
-38.82
-44.56
-49.15
-52.72
-55.72
-58.61
-61.60
-64.51
-66.86
-68.16
-68.15
-66.91
-64.71
-61.84
-58.46
-54.54
-49.99
-44.84
-39.23
-33.51
-28.06
-23.20
-19.12
-15.89
-13.44
-11.61
-10.23
-9.10
-8.03
-6.99
-6.01
-5.23
-4.72
-4.47
-4.24
-3.76
-2.75
-1.20
0.76
2.80
4.64
6.11
7.20
8.05
8.82
9.61
10.43
11.22
11.90
12.43
12.82
13.03
13.07
12.88
12.36
11.46
10.19
8.74
7.40
6.49
6.20
6.48
6.98
7.17
6.66
5.27
3.18
0.81
-1.40
-3.16
-4.44
-5.41
-6.32
-7.38
-8.67
-10.06
-11.35
-12.32
-12.85
-12.93
-12.63
-12.07
-11.33
-10.45
-9.50
-8.55
-7.67
-6.92
-6.21
-5.34
-4.10
-2.36
-0.37
1.33
2.04
1.20
-1.20
-4.60
-7.97
-10.21
-10.53
-8.72
-5.20
-0.78
3.60
7.26
9.76
11.04
11.31
10.85
10.07
9.28
8.77
8.65
8.90
9.37
9.94
10.57
11.45
12.93
15.44
19.39
24.90
31.87
39.90
48.42
56.86
64.72
71.65
77.43
81.95
85.25
87.57
89.36
91.24
93.75
97.07
100.82
104.00
105.29
103.43
97.65
87.86
74.58
58.77
41.61
24.43
8.64
-4.31
-13.18
-17.31
-16.86
-12.80
-6.63
0.10
6.03
10.09
11.28
8.60
0.99
-12.23
-31.10
-54.60
-80.89
-107.58
-132.31
-153.17
-168.93
-179.07
-183.77
-183.85
-180.55
-175.47
-170.01
-165.04
-160.63
-156.12
-150.55
-143.24
-134.25
-124.38
-114.83
-106.54
-99.77
-93.98
-88.20
-81.59
-73.86
-65.32
-56.40
-47.23
-37.53
-26.71
-14.44
-0.93
13.02
26.49
38.80
49.90
60.18
70.17
80.19
90.20
99.73
107.95
113.69
115.61
112.53
103.91
90.27
73.22
55.01
37.81
22.96
10.81
0.90
-7.42
-14.59
-20.73
-25.78
-29.65
-32.23
-33.21
-32.01
-27.88
-20.34
-9.63
3.11
16.09
27.34
35.40
39.59
40.14
37.87
33.90
29.46
25.63
23.29
22.95
24.61
27.84
31.94
36.17
40.02
43.26
45.78
47.58
48.54
48.64
48.04
47.11
46.18
45.30
44.06
41.76
37.84
32.32
25.90
19.68
14.64
11.22
9.15
7.79
6.46
4.80
2.76
0.39
-2.33
-5.58
-9.54
-14.12
-18.95
-23.35
-26.66
-28.48
-28.92
-28.52
-28.08
-28.35
-29.70
-32.03
-34.82
-37.37
-39.11
-39.71
-39.24
-37.98
-36.28
-34.42
-32.60
-30.91
-29.51
-28.50
-28.06
-28.18
-28.69
-29.30
-29.58
-29.22
-28.09
-26.28
-24.01
-21.47
-18.84
-16.18
-13.64
-11.30
-9.31
-7.68
-6.27
-4.85
-3.22
-1.30
0.77
2.72
4.32
5.44
6.10
6.42
6.49
6.39
6.22
6.20
6.68
8.02
10.42
13.72
17.45
20.90
23.43
24.71
24.82
24.12
23.09
22.05
21.01
19.79
18.15
15.98
13.41
10.77
8.45
6.73
5.64
5.02
4.61
4.14
3.53
2.79
1.99
1.19
0.27
-0.99
-2.77
-5.18
-8.04
-10.95
-13.41
-14.95
-15.38
-14.90
-14.00
-13.37
-13.61
-14.97
-17.24
-19.87
-22.31
-24.25
-25.81
-27.45
-29.77
-33.17
-37.55
-42.39
-46.69
-49.23
-48.80
-44.42
-35.71
-23.06
-7.69
8.62
24.04
37.14
47.32
54.81
60.30
64.58
68.00
70.47
71.48
70.57
67.65
63.18
58.02
53.10
49.02
45.83
43.11
40.28
36.94
33.14
29.30
25.89
23.24
21.24
19.46
17.48
15.04
12.24
9.48
7.26
5.90
5.37
5.30
5.12
4.34
2.73
0.43
-2.18
-4.66
-6.77
-8.42
-9.71
-10.73
-11.49
-11.84
-11.71
-11.10
-10.08
-8.68
-6.64
-3.48
1.34
8.07
16.34
25.12
33.02
38.69
41.37
41.12
38.73
35.28
31.79
28.80
26.31
24.01
21.47
18.47
15.02
11.40
8.02
5.21
3.08
1.65
0.83
0.63
1.24
3.02
6.44
11.89
19.74
30.19
43.26
58.77
76.38
95.53
115.56
135.68
154.95
172.29
186.37
195.53
197.74
190.83
172.84
142.70
100.77
49.29
-7.78
-65.57
-119.44
-165.95
-203.52
-232.12
-252.73
-266.55
-274.63
-277.71
-276.31
-270.58
-260.11
-243.91
-220.67
-189.55
-150.93
-106.88
-60.72
-16.12
23.99
57.81
84.26
102.18
109.76
104.93
86.68
56.67
19.64
-17.34
-47.13
-64.78
-68.66
-60.21
-42.26
-17.59
11.98
45.11
80.19
114.76
145.81
170.79
188.56
199.77
206.19
209.64
210.97
209.72
204.70
194.79
179.78
160.46
137.97
113.08
85.63
54.89
20.38
-17.09
-55.09
-90.07
-118.68
-138.94
-150.84
-155.78
-155.59
-151.53
-144.11
-133.75
-121.53
-109.55
-100.30
-95.57
-95.43
-98.06
-100.60
-100.53
-96.92
-90.54
-83.25
-76.65
-71.27
-66.41
-60.88
-53.93
-45.83
-37.74
-30.96
-26.17
-23.11
-20.88
-18.56
-15.83
-13.11
-11.28
-11.16
-13.00
-16.43
-20.57
-24.29
-26.64
-27.03
-25.55
-23.10
-21.30
-22.13
-27.27
-37.53
-52.40
-70.35
-89.31
-107.28
-122.77
-134.75
-142.43
-145.07
-141.96
-132.76
-117.82
-98.37
-76.41
-54.37
-34.58
-18.85
-8.28
-3.20
-3.11
-6.91
-13.03
-19.67
-25.06
-27.66
-26.44
-20.94
-11.29
1.73
16.77
32.04
45.72
56.41
63.76
68.71
73.06
78.61
86.07
94.58
101.97
105.90
104.99
99.66
91.72
83.48
76.58
71.25
66.58
61.28
54.49
46.15
36.97
27.93
20.00
14.06
10.81
10.92
14.66
21.81
31.45
42.16
52.38
60.72
66.35
68.88
68.40
65.35
60.45
54.63
48.88
44.08
40.70
38.83
38.12
38.08
38.13
37.79
36.66
34.45
30.99
26.39
21.03
15.58
10.88
7.66
6.33
6.77
8.37
10.24
11.49
11.70
10.96
9.88
9.26
9.66
11.17
13.44
15.88
17.94
19.41
20.42
21.45
23.20
26.42
31.72
39.41
49.26
60.67
72.65
84.22
94.51
102.79
108.42
110.84
109.64
104.71
96.38
85.21
71.84
56.71
40.23
22.93
5.87
-9.53
-21.86
-30.42
-35.63
-38.83
-41.61
-44.90
-48.51
-51.31
-51.84
-49.22
-43.68
-36.53
-29.66
-24.86
-23.28
-25.17
-30.06
-37.09
-45.37
-54.20
-63.15
-71.89
-80.10
-87.33
-92.98
-96.59
-97.96
-97.35
-95.38
-92.81
-90.28
-88.10
-86.22
-84.39
-82.32
-79.78
-76.52
-72.20
-66.41
-58.76
-49.20
-38.11
-26.31
-14.80
-4.39
4.48
11.77
17.61
22.12
25.29
27.07
27.52
26.88
25.53
23.89
22.27
20.77
19.37
17.90
16.19
14.06
11.39
8.22
4.76
1.37
-1.48
-3.39
-4.03
-3.32
-1.29
1.75
5.40
9.15
12.46
14.88
16.19
16.39
15.63
14.20
12.44
10.64
9.15
8.23
8.01
8.45
9.31
10.22
10.86
11.08
10.93
10.60
10.29
10.14
10.22
10.55
11.21
12.21
13.53
15.02
16.48
17.66
18.39
18.57
18.18
17.25
15.78
13.86
11.64
9.33
7.20
5.52
4.45
4.05
4.23
4.79
5.40
5.72
5.52
4.66
3.29
1.72
0.30
-0.69
-1.19
-1.31
-1.22
-1.12
-1.06
-0.99
-0.79
-0.35
0.42
1.44
2.59
3.67
4.51
5.01
5.08
4.68
3.81
2.45
0.70
-1.26
-3.20
-4.86
-6.16
-7.10
-7.80
-8.36
-8.70
-8.62
-7.91
-6.54
-4.67
-2.67
-0.96
0.19
0.72
0.72
0.38
-0.17
-0.87
-1.73
-2.70
-3.70
-4.49
-4.87
-4.71
-4.03
-3.08
-2.13
-1.43
-1.05
-0.87
-0.71
-0.44
-0.05
0.29
0.40
0.19
-0.26
-0.69
-0.81
-0.42
0.56
2.09
3.95
5.86
7.56
8.85
9.65
10.02
10.08
9.99
9.78
9.45
8.90
8.09
7.03
5.87
4.82
4.03
3.61
3.48
3.53
3.60
3.66
3.66
3.60
3.41
2.99
2.16
0.87
-0.82
-2.63
-4.27
-5.59
-6.58
-7.42
-8.30
-9.30
-10.32
-11.07
-11.26
-10.67
-9.30
-7.38
-5.24
-3.24
-1.53
-0.14
1.08
2.29
3.55
4.81
5.94
6.89
7.73
8.67
9.97
11.72
13.76
15.73
17.20
17.79
17.41
16.22
14.50
12.57
10.61
8.76
7.16
6.09
5.90
6.96
9.47
13.46
18.88
25.67
33.83
43.17
53.18
62.90
71.04
76.33
77.83
75.19
68.55
58.43
45.61
31.01
15.76
1.11
-11.75
-21.91
-28.86
-32.50
-32.98
-30.57
-25.63
-18.74
-10.67
-2.28
5.74
13.07
19.69
25.95
32.21
38.82
45.96
53.58
61.26
68.24
73.50
76.06
75.36
71.39
64.62
55.62
44.73
32.01
17.43
1.29
-15.67
-32.38
-47.84
-61.54
-73.52
-84.24
-94.22
-103.79
-113.04
-121.89
-130.25
-138.20
-145.88
-153.44
-160.93
-168.22
-175.12
-181.36
-186.62
-190.56
-192.73
-192.66
-189.85
-183.98
-174.94
-162.93
-148.61
-133.01
-117.58
-103.83
-92.99
-85.51
-80.91
-77.84
-74.60
-69.65
-61.99
-51.11
-36.77
-18.86
2.35
25.76
49.26
69.91
84.89
92.67
93.77
90.62
86.73
85.29
88.18
95.52
106.20
118.62
131.45
143.87
155.27
164.83
171.20
172.73
168.14
157.25
141.32
122.82
104.57
88.83
76.63
67.85
61.55
56.73
52.70
49.09
45.70
42.33
38.72
34.75
30.42
25.95
21.50
17.05
12.44
7.61
3.00
-0.23
-0.35
4.31
14.48
29.19
45.61
59.63
67.11
65.23
53.41
33.54
9.33
-14.73
-34.37
-46.48
-49.52
-43.73
-31.20
-15.53
-1.05
8.25
9.97
4.20
-6.47
-17.91
-26.18
-29.09
-27.01
-22.43
-18.59
-18.00
-21.49
-28.39
-37.41
-47.54
-58.62
-70.75
-83.59
-95.75
-104.85
-108.41
-104.96
-94.75
-79.73
-62.85
-47.06
-34.40
-25.75
-20.96
-19.24
-19.49
-20.52
-20.95
-19.37
-14.46
-5.40
7.72
23.73
40.60
56.00
67.99
75.51
78.63
78.41
76.55
74.91
75.25
78.71
85.47
94.60
104.25
112.27
116.94
117.40
113.83
107.07
98.29
88.70
79.42
71.47
65.66
62.25
61.03
61.27
62.19
63.35
64.80
67.02
70.52
75.47
81.54
87.87
93.33
96.66
96.87
93.60
87.52
80.22
73.83
70.05
69.51
71.32
73.56
73.97
70.83
63.37
51.63
36.11
17.23
-4.68
-29.31
-55.92
-83.14
-109.16
-132.25
-151.36
-166.63
-179.16
-190.50
-201.97
-213.95
-225.87
-236.60
-245.02
-250.39
-252.49
-251.23
-246.38
-237.49
-224.14
-206.42
-185.31
-162.60
-140.36
-120.25
-102.99
-88.35
-75.57
-64.00
-53.46
-44.24
-36.72
-30.93
-26.41
-22.38
-18.08
-13.10
-7.46
-1.44
4.66
10.65
16.47
22.06
27.31
31.95
35.72
38.45
40.16
41.10
41.60
41.95
42.21
42.17
41.58
40.31
38.54
36.76
35.55
35.27
35.83
36.73
37.28
36.96
35.64
33.63
31.39
29.28
27.42
25.67
23.76
21.59
19.30
17.15
15.38
14.00
12.82
11.38
9.29
6.39
2.77
-1.15
-4.87
-7.79
-9.47
-9.69
-8.58
-6.65
-4.64
-3.34
-3.20
-4.03
-5.13
-5.56
-4.50
-1.67
2.65
7.87
13.32
18.40
22.59
25.40
26.38
25.23
22.12
17.75
13.22
9.55
7.37
6.62
6.72
7.01
7.28
7.91
9.74
13.57
19.64
27.33
35.36
42.21
46.75
48.53
47.84
45.37
41.84
37.71
33.17
28.39
23.74
19.78
17.20
16.48
17.68
20.45
24.15
28.20
32.31
36.53
41.14
46.40
52.41
59.16
66.52
74.54
83.35
93.10
103.72
114.68
125.10
133.82
139.73
142.01
140.41
135.01
126.19
114.26
99.42
81.91
62.40
42.26
23.56
8.61
-0.95
-4.82
-4.35
-2.12
-0.90
-2.94
-9.44
-20.70
-36.24
-54.84
-74.26
-91.14
-101.58
-102.44
-92.92
-75.45
-55.41
-39.40
-32.95
-38.66
-55.71
-80.79
-109.77
-139.29
-167.40
-193.32
-216.76
-237.21
-253.75
-265.18
-270.52
-269.28
-261.54
-247.76
-228.53
-204.39
-175.93
-144.04
-110.11
-76.13
-44.38
-16.95
4.66
19.95
29.34
34.01
35.48
35.26
34.65
34.50
35.21
36.80
38.99
41.41
43.78
46.08
48.39
50.82
53.40
56.00
58.43
60.62
62.59
64.52
66.55
68.80
71.20
73.53
75.50
76.78
77.16
76.66
75.50
74.08
72.79
71.93
71.60
71.79
72.43
73.37
74.34
75.01
74.96
73.83
71.56
68.42
64.84
61.19
57.62
54.02
50.17
46.02
41.65
37.25
32.89
28.43
23.54
17.97
11.77
5.42
-0.31
-4.64
-7.02
-7.23
-5.40
-1.85
2.86
7.92
12.15
14.17
12.84
7.73
-0.66
-10.88
-20.98
-29.16
-34.32
-36.37
-36.02
-34.44
-32.78
-31.77
-31.66
-32.20
-32.77
-32.67
-31.43
-28.97
-25.59
-21.77
-17.84
-13.84
-9.47
-4.56
0.64
5.32
8.28
8.43
5.31
-0.71
-8.71
-17.75
-27.21
-36.86
-46.39
-54.88
-60.69
-61.85
-56.82
-45.08
-27.14
-4.14
22.84
52.87
84.80
116.57
144.90
165.78
175.53
172.16
156.30
131.09
101.44
72.76
49.65
34.90
28.91
29.72
33.63
36.36
34.36
25.85
11.17
-7.57
-27.29
-44.83
-57.68
-64.33
-64.51
-59.10
-49.97
-39.55
-30.20
-23.72
-20.66
-20.41
-21.53
-22.64
-23.69
-26.57
-35.13
-53.73
-85.11
-128.30
-177.95
-225.64
-262.61
-283.02
-285.58
-273.35
-251.74
-226.08
-200.01
-175.24
-152.39
-131.81
-113.96
-98.93
-85.91
-73.08
-58.20
-39.71
-17.63
6.33
29.35
48.55
62.04
69.31
71.12
68.96
64.43
58.95
53.64
49.46
47.15
47.18
49.54
53.76
59.03
64.56
69.82
74.64
78.95
82.57
85.07
85.89
84.66
81.43
76.75
71.31
65.67
59.97
54.00
47.53
40.58
33.62
27.39
22.51
19.23
17.30
16.07
14.79
12.85
9.91
5.80
0.64
-5.29
-11.50
-17.31
-21.97
-24.96
-26.21
-26.34
-26.52
-27.95
-31.25
-35.85
-39.96
-41.11
-37.15
-27.24
-12.38
5.01
22.02
36.33
46.82
53.60
57.42
59.02
58.71
56.45
52.23
46.38
39.71
33.30
28.13
24.71
23.07
22.84
23.60
25.09
27.30
30.29
34.04
38.24
42.38
46.02
49.02
51.72
54.87
59.19
65.03
72.03
79.08
84.66
87.41
86.59
82.40
75.88
68.51
61.83
56.87
53.96
52.50
51.08
47.97
41.96
33.27
24.09
18.24
19.86
31.59
53.10
80.69
108.30
129.43
139.24
135.90
120.80
97.89
72.43
49.49
32.65
23.02
18.75
15.62
8.09
-9.25
-40.35
-86.57
-146.00
-213.10
-279.07
-333.20
-365.42
-369.36
-344.79
-298.09
-240.37
-183.93
-138.45
-108.75
-94.71
-92.71
-97.83
-105.20
-110.68
-111.04
-104.07
-89.06
-67.12
-41.05
-14.48
9.29
28.31
42.38
52.54
60.21
66.53
72.04
76.88
81.18
85.19
89.17
93.10
96.48
98.49
98.37
95.88
91.51
86.27
81.17
76.80
73.04
69.26
64.62
58.51
50.71
41.27
30.38
18.29
5.35
-7.82
-20.19
-30.60
-38.08
-42.26
-43.60
-43.20
-42.43
-42.49
-44.20
-47.93
-53.64
-60.99
-69.25
-77.55
-85.13
-91.73
-97.59
-103.20
-108.51
-112.39
-112.32
-104.93
-87.07
-57.05
-15.59
34.06
86.60
135.97
176.65
204.85
219.20
220.74
212.41
198.07
181.59
165.87
152.43
140.97
129.57
115.05
94.23
65.46
30.13
-6.90
-38.69
-58.77
-64.18
-56.86
-42.64
-28.35
-18.31
-12.59
-7.77
0.11
12.50
26.68
36.68
36.02
20.49
-10.29
-53.11
-102.74
-153.52
-200.23
-238.36
-264.08
-274.49
-268.44
-247.31
-215.12
-177.74
-141.30
-110.39
-86.95
-70.27
-57.84
-46.82
-35.04
-21.55
-6.57
8.85
23.11
34.45
41.37
43.24
40.67
35.53
30.30
27.08
26.79
28.95
32.25
35.42
37.87
39.76
41.56
43.48
45.12
45.64
43.99
39.25
31.00
19.60
6.37
-6.29
-15.34
-17.87
-12.07
2.01
22.51
46.38
70.40
92.06
109.92
123.48
132.74
138.02
139.90
139.18
136.87
133.70
129.92
125.06
118.29
108.93
96.87
82.72
67.46
51.96
36.59
21.27
5.85
-9.58
-24.47
-38.05
-49.59
-58.67
-65.18
-69.19
-70.89
-70.66
-69.10
-67.12
-65.87
-66.33
-69.11
-74.24
-81.19
-88.99
-96.51
-102.70
-106.80
-108.56
-108.36
-107.07
-105.73
-105.01
-104.77
-103.87
-100.51
-92.88
-80.02
-62.13
-40.40
-16.25
9.40
36.30
64.50
93.48
121.53
145.73
162.81
170.07
166.29
151.89
128.68
99.42
67.44
36.57
10.69
-6.84
-14.06
-11.15
-0.45
14.28
29.05
40.86
48.26
51.16
50.29
46.54
40.74
33.67
26.14
18.99
12.77
7.47
2.46
-3.41
-11.16
-21.24
-33.00
-44.77
-54.19
-58.98
-57.98
-51.71
-42.54
-33.94
-29.46
-31.46
-40.56
-55.74
-74.95
-96.07
-117.44
-138.02
-157.21
-174.76
-191.05
-207.40
-225.95
-248.99
-277.66
-310.87
-345.11
-375.37
-396.97
-406.95
-404.70
-391.36
-368.77
-338.61
-302.36
-261.93
-220.13
-180.50
-146.47
-120.22
-102.18
-91.27
-85.74
-83.99
-84.83
-87.40
-90.71
-93.42
-94.07
-91.55
-85.58
-76.97
-67.40
-58.93
-53.27
-51.15
-52.01
-54.16
-55.35
-53.60
-47.88
-38.39
-26.36
-13.46
-1.15
9.63
18.61
25.92
31.85
36.66
40.53
43.68
46.39
49.04
52.05
55.76
60.41
66.11
72.82
80.43
88.68
97.30
105.99
114.56
122.97
131.36
140.00
149.12
158.79
168.85
178.92
188.65
197.81
206.50
215.09
224.15
234.44
246.81
262.15
280.96
302.78
325.81
346.92
362.41
369.24
366.12
353.99
335.46
313.69
291.26
269.48
248.64
228.54
209.15
190.77
173.77
158.26
143.81
129.73
115.46
100.96
86.83
74.09
63.71
56.03
50.55
46.09
41.25
35.01
27.21
18.54
10.18
3.31
-1.49
-4.28
-5.77
-6.94
-8.74
-11.82
-16.39
-22.14
-28.20
-33.27
-35.88
-34.85
-29.73
-21.12
-10.50
0.21
9.26
15.51
18.71
19.25
17.85
15.26
12.12
9.05
6.60
5.35
5.60
7.31
10.06
13.23
16.27
18.90
21.15
23.17
25.13
26.99
28.60
29.70
30.18
30.10
29.63
29.01
28.30
27.41
26.06
23.99
21.10
17.55
13.68
9.86
6.20
2.59
-1.29
-5.72
-10.79
-16.37
-22.26
-28.21
-33.90
-38.80
-42.11
-42.80
-40.11
-33.98
-25.33
-15.92
-7.76
-2.42
-0.48
-1.46
-4.27
-7.68
-10.93
-13.74
-16.18
-18.39
-20.22
-21.26
-21.03
-19.25
-16.12
-12.27
-8.66
-6.23
-5.62
-7.05
-10.35
-15.09
-20.76
-26.86
-32.96
-38.62
-43.39
-46.91
-49.01
-49.72
-49.27
-48.05
-46.47
-44.90
-43.61
-42.76
-42.35
-42.10
-41.53
-40.05
-37.22
-32.91
-27.43
-21.40
-15.47
-10.01
-5.00
-0.15
4.81
9.97
15.14
19.97
24.16
27.58
30.27
32.36
33.95
35.04
35.63
35.86
36.01
36.41
37.29
38.51
39.54
39.58
37.98
34.51
29.62
24.29
19.61
16.32
14.45
13.33
12.05
9.87
6.63
2.73
-1.23
-4.78
-7.82
-10.68
-13.71
-17.06
-20.52
-23.59
-25.71
-26.51
-25.94
-24.32
-22.22
-20.32
-19.24
-19.43
-21.05
-23.95
-27.77
-31.91
-35.77
-38.77
-40.39
-40.23
-38.09
-34.05
-28.55
-22.31
-16.27
-11.24
-7.74
-5.82
-5.09
-4.95
-4.84
-4.41
-3.62
-2.56
-1.35
-0.01
1.49
3.24
5.23
7.35
9.47
11.44
13.15
14.50
15.37
15.56
14.93
13.45
11.29
8.77
6.22
3.87
1.68
-0.54
-3.04
-5.90
-8.97
-11.89
-14.25
-15.78
-16.50
-16.80
-17.21
-18.27
-20.33
-23.43
-27.25
-31.12
-34.15
-35.41
-34.14
-30.14
-23.84
-16.30
-8.85
-2.72
1.42
3.55
4.24
4.21
4.07
4.07
4.20
4.34
4.38
4.39
4.47
4.69
5.02
5.28
5.31
5.01
4.50
4.04
3.94
4.37
5.33
6.60
7.90
9.01
9.85
10.42
10.73
10.73
10.36
9.61
8.61
7.67
7.07
7.05
7.65
8.73
10.04
11.29
12.21
12.59
12.27
11.15
9.21
6.58
3.63
0.95
-0.73
-0.73
1.27
5.11
10.06
15.13
19.33
22.07
23.25
23.14
22.10
20.42
18.15
15.28
11.85
8.08
4.31
0.88
-2.05
-4.49
-6.63
-8.68
-10.72
-12.67
-14.31
-15.43
-15.86
-15.60
-14.73
-13.47
-12.01
-10.62
-9.52
-8.91
-8.89
-9.42
-10.32
-11.30
-12.14
-12.76
-13.23
-13.73
-14.48
-15.65
-17.34
-19.59
-22.31
-25.25
-27.87
-29.45
-29.25
-26.79
-22.10
-15.71
-8.58
-1.71
4.13
8.58
11.66
13.60
14.67
15.09
15.03
14.68
14.27
14.00
13.99
14.21
14.44
14.43
14.00
13.14
11.99
10.81
9.78
8.97
8.33
7.74
7.12
6.42
5.69
5.02
4.46
4.04
3.75
3.56
3.47
3.50
3.66
3.96
4.33
4.72
5.08
5.42
5.80
6.45
7.67
9.73
12.77
16.74
21.34
26.16
30.82
35.05
38.66
41.42
42.93
42.71
40.36
35.84
29.62
22.60
15.76
9.80
4.95
1.11
-1.90
-4.01
-4.95
-4.52
-2.99
-1.30
-0.94
-3.43
-9.71
-19.67
-32.22
-45.48
-57.38
-66.00
-70.00
-68.81
-62.69
-52.90
-41.44
-30.68
-22.59
-18.13
-16.91
-17.39
-17.53
-15.69
-11.19
-4.47
3.35
11.02
17.63
22.81
26.55
28.96
30.12
29.97
28.50
25.82
22.29
18.40
14.60
11.17
8.05
5.00
1.72
-1.89
-5.61
-8.91
-11.21
-12.09
-11.47
-9.73
-7.44
-5.18
-3.32
-1.95
-0.89
0.04
0.99
1.95
2.78
3.32
3.48
3.28
2.88
2.49
2.33
2.42
2.70
2.96
2.97
2.64
2.02
1.37
0.98
1.03
1.43
1.82
1.70
0.61
-1.59
-4.77
-8.49
-12.26
-15.64
-18.38
-20.31
-21.38
-21.58
-21.02
-19.92
-18.60
-17.37
-16.42
-15.79
-15.43
-15.22
-15.09
-14.95
-14.65
-13.97
-12.70
-10.75
-8.30
-5.77
-3.65
-2.26
-1.60
-1.40
-1.30
-1.04
-0.65
-0.31
-0.19
-0.32
-0.53
-0.60
-0.35
0.20
0.86
1.43
1.76
1.80
1.63
1.33
0.95
0.51
-0.03
-0.72
-1.59
-2.65
-3.86
-5.14
-6.34
-7.34
-8.02
-8.42
-8.65
-8.84
-9.03
-9.14
-9.00
-8.45
-7.45
-6.14
-4.76
-3.52
-2.46
-1.44
-0.15
1.66
4.05
6.80
9.52
11.71
13.03
13.34
12.71
11.39
9.69
7.85
6.07
4.41
2.89
1.49
0.14
-1.16
-2.39
-3.47
-4.27
-4.67
-4.54
-3.81
-2.59
-1.09
0.32
1.23
1.35
0.51
-1.19
-3.44
-5.82
-7.83
-9.02
-9.04
-7.78
-5.44
-2.58
-0.02
1.41
1.15
-0.91
-4.32
-8.26
-11.84
-14.37
-15.54
-15.45
-14.47
-13.11
-11.81
-10.87
-10.45
-10.55
-11.11
-11.99
-13.03
-14.02
-14.75
-15.02
-14.74
-14.00
-13.02
-12.12
-11.56
-11.45
-11.69
-12.05
-12.34
-12.41
-12.32
-12.18
-12.09
-12.09
-12.12
-12.05
-11.77
-11.19
-10.26
-8.98
-7.43
-5.72
-3.95
-2.17
-0.36
1.58
3.68
5.95
8.31
10.59
12.67
14.54
16.27
18.04
20.08
22.49
25.22
28.11
30.83
33.06
34.51
35.05
34.65
33.40
31.47
29.03
26.28
23.48
20.87
18.74
17.27
16.52
16.34
16.48
16.61
16.46
15.90
14.90
13.52
11.81
9.80
7.38
4.46
0.94
-3.16
-7.74
-12.65
-17.80
-23.11
-28.60
-34.20
-39.79
-45.19
-50.14
-54.51
-58.22
-61.31
-63.79
-65.56
-66.43
-66.14
-64.52
-61.48
-57.01
-51.18
-44.11
-35.95
-26.95
-17.45
-7.94
1.04
8.95
15.44
20.35
23.85
26.38
28.43
30.49
32.84
35.49
38.25
40.84
43.06
44.85
46.32
47.58
48.72
49.67
50.32
50.47
50.06
49.06
47.53
45.54
43.01
39.73
35.43
29.99
23.62
17.02
11.24
7.48
6.65
8.85
13.37
18.58
22.59
23.67
20.89
14.23
4.53
-6.84
-18.45
-28.99
-37.49
-43.26
-45.97
-45.60
-42.48
-37.23
-30.56
-23.08
-15.17
-6.95
1.57
10.31
19.08
27.60
35.50
42.44
47.96
51.58
52.73
50.96
46.08
38.25
27.97
15.91
2.74
-11.02
-24.89
-38.46
-51.25
-62.74
-72.49
-80.17
-85.71
-89.22
-91.02
-91.54
-91.18
-90.26
-88.87
-86.93
-84.26
-80.67
-76.16
-70.97
-65.53
-60.39
-56.01
-52.64
-50.15
-48.18
-46.17
-43.60
-40.11
-35.59
-30.18
-24.09
-17.53
-10.46
-2.59
6.65
17.94
31.74
47.94
65.48
82.23
95.36
101.99
100.14
89.48
71.55
49.39
26.60
6.35
-9.43
-20.48
-27.92
-33.69
-39.74
-47.32
-56.64
-66.79
-76.15
-82.86
-85.34
-82.61
-74.42
-61.20
-44.04
-24.48
-4.22
15.42
33.80
51.02
67.50
83.31
97.68
109.02
115.73
117.26
114.76
110.96
108.97
110.82
116.26
122.71
126.44
124.18
114.59
98.66
78.99
58.53
39.27
21.75
5.40
-10.51
-26.06
-40.46
-52.46
-61.17
-66.66
-70.01
-72.80
-76.34
-81.01
-86.29
-91.21
-95.00
-97.66
-100.05
-103.40
-108.72
-116.28
-125.42
-134.87
-143.17
-149.14
-152.09
-151.90
-148.80
-143.15
-135.20
-124.91
-111.90
-95.40
-74.52
-48.73
-18.24
15.63
50.49
83.16
110.50
130.09
140.92
143.55
139.90
132.61
124.37
117.27
112.54
110.51
110.86
112.83
115.55
118.16
119.98
120.52
119.42
116.31
110.89
102.85
92.15
79.17
64.80
50.27
36.86
25.51
16.55
9.68
4.19
-0.63
-5.22
-9.62
-13.62
-17.00
-19.76
-22.17
-24.58
-27.20
-29.93
-32.46
-34.48
-35.89
-36.91
-37.91
-39.12
-40.45
-41.54
-41.94
-41.35
-39.81
-37.67
-35.37
-33.26
-31.50
-30.06
-28.84
-27.76
-26.76
-25.78
-24.71
-23.41
-21.70
-19.50
-16.87
-14.10
-11.59
-9.69
-8.59
-8.20
-8.19
-8.22
-8.09
-7.82
-7.59
-7.61
-7.93
-8.37
-8.67
-8.61
-8.19
-7.58
-7.05
-6.81
-6.90
-7.26
-7.67
-7.97
-8.01
-7.77
-7.37
-7.02
-6.94
-7.29
-8.02
-8.97
-9.89
-10.62
-11.15
-11.62
-12.12
-12.64
-13.01
-13.00
-12.54
-11.84
-11.27
-11.17
-11.72
-12.80
-14.17
-15.54
-16.76
-17.79
-18.57
-19.07
-19.15
-18.73
-17.83
-16.60
-15.24
-13.93
-12.78
-11.82
-11.08
-10.62
-10.48
-10.59
-10.66
-10.21
-8.68
-5.67
-1.12
4.60
10.83
16.81
21.91
25.69
28.04
29.04
29.04
28.57
28.26
28.61
29.84
31.74
33.77
35.29
35.84
35.38
34.29
33.21
32.80
33.37
34.84
36.76
38.54
39.71
40.00
39.34
37.77
35.29
31.84
27.49
22.58
17.73
13.67
10.97
9.67
9.27
8.94
7.95
5.93
2.99
-0.38
-3.59
-6.11
-7.54
-7.71
-6.65
-4.68
-2.29
-0.02
1.68
2.70
3.24
3.65
4.24
5.17
6.36
7.63
8.81
9.76
10.43
10.73
10.65
10.32
10.07
10.31
11.43
13.61
16.70
20.31
24.07
27.92
32.32
38.17
46.51
57.96
72.35
88.60
105.18
120.71
134.62
147.15
158.91
170.14
180.20
187.66
190.66
187.57
177.09
158.46
131.42
96.46
55.17
10.22
-35.14
-78.19
-117.71
-154.13
-188.73
-222.20
-253.47
-279.58
-296.86
-302.47
-295.68
-277.97
-252.23
-221.56
-188.33
-154.05
-119.64
-85.90
-53.64
-23.69
3.30
26.90
46.60
61.53
70.34
71.50
64.07
48.55
27.21
3.83
-17.57
-33.93
-44.05
-48.46
-48.59
-45.62
-39.91
-31.09
-18.94
-4.11
11.55
25.56
35.70
40.86
41.09
37.30
30.63
22.34
13.75
6.25
1.13
-0.80
0.48
4.29
9.90
17.21
27.04
40.65
58.86
81.08
105.20
128.36
148.28
164.23
177.19
188.99
201.15
214.13
227.29
239.35
248.84
254.37
254.47
247.62
232.37
208.03
175.06
135.29
91.36
45.97
1.25
-41.52
-81.48
-117.85
-149.64
-175.90
-196.25
-211.15
-222.00
-230.63
-238.60
-246.72
-254.78
-261.88
-266.94
-269.21
-268.50
-265.00
-259.03
-250.80
-240.42
-228.03
-213.95
-198.62
-182.39
-165.34
-147.33
-128.32
-108.68
-89.31
-71.35
-55.64
-42.20
-30.12
-18.01
-4.79
9.71
24.61
38.44
49.95
58.78
65.74
72.43
80.58
91.30
104.58
119.23
133.10
143.64
148.59
146.64
138.11
125.06
110.90
99.37
93.19
93.01
97.11
101.87
102.95
96.64
80.83
55.51
22.80
-13.48
-48.48
-77.21
-95.64
-101.73
-96.01
-81.45
-62.54
-43.96
-29.25
-20.07
-16.23
-16.32
-18.61
-21.80
-25.31
-29.05
-32.94
-36.29
-37.63
-34.98
-26.52
-11.24
10.49
36.84
64.88
91.25
112.83
127.29
133.46
131.34
121.95
107.05
88.92
69.92
52.23
37.42
26.26
18.55
13.25
8.81
3.75
-2.82
-10.87
-19.51
-27.38
-33.27
-36.63
-37.64
-37.09
-35.96
-34.95
-34.42
-34.33
-34.52
-34.75
-34.82
-34.51
-33.57
-31.81
-29.17
-25.79
-21.99
-18.15
-14.60
-11.52
-8.86
-6.39
-3.78
-0.73
2.83
6.67
10.29
13.13
14.79
15.19
14.42
12.55
9.42
4.59
-2.44
-12.05
-24.38
-39.59
-57.92
-79.51
-103.90
-129.42
-153.02
-170.89
-179.53
-176.96
-163.27
-140.50
-111.94
-81.32
-52.26
-27.75
-9.92
0.34
3.42
0.91
-4.89
-11.60
-17.26
-20.46
-20.25
-16.27
-8.87
0.68
10.44
18.60
24.43
28.64
32.64
37.28
41.63
43.31
39.88
30.92
19.01
8.87
4.94
8.82
18.31
28.46
34.34
33.49
26.85
17.66
9.26
3.46
-0.05
-2.60
-5.12
-7.27
-7.63
-4.69
2.12
11.92
22.73
32.32
39.17
42.79
43.71
42.96
41.44
39.59
37.36
34.49
30.74
26.24
21.48
17.14
13.80
11.65
10.46
9.69
8.68
7.12
5.06
2.96
1.34
0.61
0.81
1.70
2.90
4.14
5.31
6.48
7.82
9.48
11.54
13.93
16.56
19.22
21.66
23.67
25.15
26.27
27.49
29.44
32.80
37.87
44.54
52.19
60.02
67.24
73.27
77.85
80.97
82.81
83.76
84.33
85.03
86.11
87.37
88.08
87.09
83.28
75.93
65.06
51.52
36.71
22.28
9.61
-0.39
-7.56
-12.31
-15.42
-17.71
-19.69
-21.55
-23.16
-24.34
-25.04
-25.34
-25.41
-25.42
-25.39
-25.29
-25.11
-24.84
-24.59
-24.48
-24.59
-24.92
-25.37
-25.69
-25.62
-24.91
-23.47
-21.34
-18.68
-15.69
-12.50
-9.18
-5.64
-1.78
2.49
7.10
11.81
16.05
19.10
20.27
19.14
15.88
11.24
6.37
2.40
0.03
-0.72
-0.37
0.21
0.17
-1.27
-4.67
-10.41
-18.59
-28.96
-40.89
-53.54
-66.17
-78.47
-90.45
-102.24
-113.53
-123.26
-129.74
-131.27
-127.00
-117.47
-104.63
-91.13
-79.27
-69.99
-62.42
-54.02
-41.52
-22.00
5.95
41.47
81.30
120.29
152.69
173.61
180.25
172.42
152.21
123.07
88.92
53.46
19.91
-9.05
-31.58
-47.01
-56.03
-60.56
-63.01
-65.33
-68.23
-71.03
-72.20
-70.32
-64.67
-55.58
-44.11
-31.57
-19.20
-8.00
1.22
7.86
11.65
12.80
12.11
10.70
9.59
9.36
9.89
10.64
11.05
10.88
10.34
9.89
9.82
10.12
10.42
10.26
9.32
7.67
5.72
4.02
3.06
3.07
4.00
5.60
7.62
9.85
12.22
14.73
17.31
19.80
21.86
23.07
23.12
21.92
19.67
16.82
13.91
11.45
9.74
8.86
8.64
8.79
8.98
9.01
8.92
8.96
9.44
10.59
12.40
14.55
16.52
17.79
18.00
17.04
15.11
12.55
9.81
7.29
5.28
3.98
3.40
3.43
3.87
4.48
4.99
5.15
4.81
3.88
2.48
0.87
-0.59
-1.64
-2.15
-2.29
-2.32
-2.52
-3.05
-3.84
-4.71
-5.47
-5.98
-6.26
-6.44
-6.71
-7.22
-8.04
-9.03
-10.00
-10.64
-10.75
-10.29
-9.50
-8.75
-8.39
-8.61
-9.31
-10.11
-10.51
-10.12
-8.81
-6.78
-4.43
-2.20
-0.37
1.00
2.02
2.92
3.86
4.95
6.16
7.42
8.59
9.45
9.85
9.65
8.83
7.54
6.05
4.63
3.48
2.68
2.19
1.94
1.83
1.75
1.59
1.23
0.55
-0.39
-1.46
-2.35
-2.83
-2.74
-2.08
-1.05
0.14
1.23
2.08
2.61
2.84
2.81
2.65
2.46
2.31
2.15
1.87
1.41
0.74
-0.05
-0.81
-1.37
-1.64
-1.62
-1.34
-0.90
-0.33
0.30
1.00
1.76
2.51
3.18
3.68
3.96
4.04
3.93
3.76
3.66
3.78
4.15
4.74
5.44
6.15
6.80
7.42
7.98
8.45
8.75
8.72
8.26
7.37
6.27
5.25
4.62
4.60
5.18
6.21
7.44
8.67
9.76
10.73
11.66
12.65
13.79
15.01
16.19
17.12
17.62
17.64
17.22
16.54
15.86
15.41
15.33
15.60
15.95
15.96
15.13
13.19
10.18
6.60
3.25
0.92
0.13
0.90
2.79
5.07
7.00
7.99
7.73
6.21
3.55
0.01
-4.14
-8.63
-13.05
-16.97
-19.84
-21.24
-20.94
-19.03
-15.81
-11.68
-6.90
-1.54
4.52
11.46
19.34
28.06
37.39
47.18
57.36
67.88
78.65
89.34
99.52
108.60
116.04
121.26
123.72
122.82
118.12
109.48
97.15
81.91
64.77
46.79
28.83
11.43
-5.06
-20.41
-34.26
-46.24
-55.98
-63.24
-67.96
-70.29
-70.49
-68.88
-65.82
-61.60
-56.55
-50.99
-45.24
-39.61
-34.29
-29.36
-24.76
-20.43
-16.43
-12.97
-10.40
-9.07
-9.11
-10.43
-12.66
-15.31
-17.84
-19.82
-20.98
-21.29
-20.96
-20.35
-19.95
-20.29
-21.88
-25.28
-30.99
-39.34
-50.20
-62.75
-75.54
-86.84
-95.17
-99.78
-100.89
-99.44
-96.57
-93.24
-90.00
-87.06
-84.46
-82.20
-80.17
-78.06
-75.31
-71.29
-65.61
-58.40
-50.51
-43.35
-38.59
-37.72
-41.74
-50.98
-65.11
-83.31
-104.51
-127.61
-151.50
-175.02
-196.79
-215.23
-228.62
-235.61
-235.63
-229.16
-217.65
-203.02
-186.95
-170.40
-153.31
-134.88
-114.01
-89.57
-60.59
-26.26
13.75
58.70
106.24
152.37
192.12
221.07
236.78
239.67
232.71
220.25
206.34
193.65
183.13
174.53
167.20
160.65
154.70
149.23
143.93
138.33
132.04
125.03
117.72
110.84
105.04
100.54
96.98
93.60
89.57
84.38
78.06
71.10
64.25
58.23
53.41
49.72
46.70
43.68
40.13
35.81
30.99
26.32
22.60
20.59
20.87
23.83
29.75
38.71
50.47
64.24
78.68
92.08
102.75
109.40
111.39
108.66
101.74
91.66
79.86
68.14
58.28
51.66
48.82
49.26
51.63
54.33
56.09
56.34
55.11
52.65
48.81
42.97
34.23
22.04
6.70
-10.44
-27.36
-42.06
-53.15
-60.36
-64.27
-66.02
-66.72
-67.10
-67.45
-67.70
-67.71
-67.34
-66.57
-65.47
-64.16
-62.76
-61.36
-59.99
-58.62
-57.21
-55.83
-54.60
-53.73
-53.36
-53.42
-53.69
-53.74
-53.21
-51.96
-50.12
-47.99
-45.74
-43.25
-40.18
-36.22
-31.40
-26.28
-21.80
-18.83
-17.67
-17.60
-16.97
-13.55
-5.38
8.44
27.04
47.77
66.69
79.56
82.97
75.24
56.99
31.11
2.09
-24.96
-45.65
-57.29
-59.54
-54.11
-43.93
-31.94
-20.34
-10.24
-2.03
4.19
8.16
9.52
8.11
4.18
-1.72
-9.02
-17.37
-26.48
-35.81
-44.22
-50.08
-51.80
-48.76
-41.82
-33.31
-26.12
-22.75
-24.35
-30.54
-39.83
-50.33
-60.32
-68.58
-74.32
-77.19
-77.32
-75.33
-72.26
-69.27
-67.15
-65.95
-64.93
-62.95
-59.00
-52.66
-44.28
-34.75
-25.12
-16.17
-8.28
-1.50
4.31
9.38
13.90
18.10
22.21
26.31
30.42
34.33
37.74
40.33
41.88
42.32
41.67
40.05
37.65
34.69
31.46
28.28
25.43
23.12
21.45
20.45
20.09
20.30
20.96
21.91
22.99
24.04
24.96
25.66
26.16
26.46
26.58
26.50
26.14
25.39
24.20
22.51
20.43
18.16
15.96
14.03
12.46
11.22
10.22
9.32
8.45
7.55
6.59
5.45
4.08
2.46
0.68
-1.09
-2.64
-3.86
-4.70
-5.21
-5.48
-5.54
-5.43
-5.19
-4.90
-4.65
-4.52
-4.50
-4.49
-4.35
-3.94
-3.22
-2.29
-1.27
-0.22
0.88
2.24
4.10
6.76
10.41
15.12
20.80
27.15
33.67
39.70
44.64
48.17
50.34
51.58
52.48
53.57
55.08
56.94
58.93
60.80
62.42
63.65
64.44
64.72
64.53
64.00
63.24
62.19
60.42
57.20
51.74
43.47
32.30
18.61
3.07
-13.64
-30.92
-48.28
-65.16
-80.87
-94.45
-104.84
-111.17
-112.96
-110.37
-104.07
-95.03
-84.24
-72.49
-60.33
-48.26
-36.94
-27.08
-19.30
-13.64
-9.52
-5.87
-1.65
3.61
9.64
15.56
20.52
24.00
26.13
27.40
28.33
29.13
29.58
29.24
27.69
24.78
20.68
15.85
10.88
6.38
2.90
0.79
0.17
0.86
2.44
4.28
5.76
6.43
6.05
4.65
2.44
-0.27
-3.23
-6.29
-9.49
-12.97
-16.89
-21.37
-26.29
-31.19
-35.22
-37.22
-36.14
-31.39
-23.28
-12.99
-2.39
6.67
12.95
16.19
17.05
16.68
16.19
16.26
17.05
18.37
19.97
21.61
23.12
24.33
25.02
24.93
23.78
21.48
18.15
14.23
10.35
7.13
4.92
3.67
2.88
1.85
0.01
-2.69
-5.71
-8.10
-8.93
-7.85
-5.25
-2.27
-0.32
-0.51
-3.24
-8.08
-13.83
-18.90
-21.79
-21.42
-17.49
-10.62
-2.24
5.83
12.03
15.74
17.54
19.09
22.23
28.05
36.15
44.58
50.60
51.67
46.41
34.95
18.74
-0.11
-19.39
-37.20
-52.06
-63.01
-69.63
-72.11
-71.16
-67.71
-62.43
-55.48
-46.48
-35.06
-21.42
-6.73
7.20
18.48
25.86
29.08
28.64
25.47
20.33
13.83
6.56
-0.77
-7.19
-11.81
-14.10
-14.13
-12.55
-10.22
-7.87
-5.87
-4.16
-2.40
-0.10
3.24
7.89
13.77
20.33
26.62
31.53
34.14
33.99
31.28
26.67
20.92
14.59
7.83
0.58
-7.19
-15.14
-22.49
-28.25
-31.59
-32.18
-30.28
-26.61
-22.07
-17.45
-13.38
-10.34
-8.74
-8.86
-10.69
-13.79
-17.30
-20.05
-20.95
-19.20
-14.42
-6.68
3.63
15.82
28.98
42.16
54.52
65.49
74.85
82.60
88.68
92.71
93.88
91.22
83.97
72.10
56.51
38.77
20.74
3.96
-10.72
-23.08
-33.27
-41.47
-47.68
-51.84
-54.10
-54.95
-55.24
-55.92
-57.70
-60.86
-65.23
-70.33
-75.58
-80.34
-83.99
-85.93
-85.59
-82.55
-76.74
-68.58
-58.89
-48.81
-39.40
-31.28
-24.36
-18.01
-11.42
-4.17
3.41
10.24
14.89
16.05
12.79
4.76
-7.72
-23.26
-39.22
-51.86
-57.14
-52.17
-36.41
-12.35
15.12
40.32
58.59
67.61
67.59
60.58
49.40
36.82
25.09
15.80
9.83
7.27
7.36
8.54
8.76
5.81
-2.17
-16.20
-36.06
-60.10
-85.51
-108.88
-127.06
-137.92
-140.73
-135.99
-124.92
-108.96
-89.51
-68.00
-45.91
-24.74
-5.56
11.33
26.66
41.91
58.82
78.86
102.94
131.17
162.89
196.52
229.56
258.87
281.33
294.92
299.55
297.26
291.48
285.51
280.86
276.49
268.84
253.23
225.55
183.96
129.81
67.51
3.47
-55.56
-104.18
-139.46
-161.21
-171.36
-172.91
-168.92
-161.78
-153.24
-144.57
-136.79
-130.63
-126.25
-123.11
-120.05
-115.75
-109.38
-100.95
-91.36
-82.03
-74.26
-68.72
-65.19
-62.81
-60.50
-57.41
-53.28
-48.40
-43.44
-39.03
-35.51
-32.84
-30.62
-28.39
-25.76
-22.64
-19.26
-16.03
-13.31
-11.27
-9.80
-8.64
-7.42
-5.96
-4.20
-2.23
-0.19
1.79
3.62
5.19
6.40
7.14
7.40
7.27
6.93
6.54
6.22
5.97
5.76
5.54
5.34
5.18
5.13
5.19
5.32
5.49
5.70
6.07
6.74
7.74
8.98
10.21
11.05
11.27
10.77
9.72
8.37
7.01
5.82
4.88
4.15
3.53
2.94
2.30
1.54
0.74
0.02
-0.41
-0.40
0.06
0.85
1.75
2.55
3.15
3.53
3.71
3.71
3.55
3.26
2.90
2.61
2.50
2.57
2.76
2.89
2.85
2.59
2.12
1.52
0.86
0.16
-0.49
-0.97
-1.10
-0.74
0.07
1.13
2.14
2.86
3.24
3.39
3.52
3.75
3.98
4.02
3.65
2.79
1.58
0.23
-1.00
-1.97
-2.69
-3.25
-3.73
-4.19
-4.59
-4.88
-4.97
-4.84
-4.46
-3.91
-3.27
-2.66
-2.22
-2.06
-2.20
-2.63
-3.24
-3.90
-4.47
-4.85
-4.94
-4.72
-4.17
-3.32
-2.22
-0.95
0.38
1.66
2.82
3.78
4.54
5.15
5.64
6.09
6.52
6.89
7.13
7.14
6.88
6.34
5.51
4.39
2.96
1.25
-0.65
-2.56
-4.29
-5.75
-6.92
-7.91
-8.79
-9.57
-10.21
-10.63
-10.83
-10.86
-10.82
-10.68
-10.43
-9.94
-9.19
-8.17
-6.97
-5.62
-4.14
-2.51
-0.75
1.08
2.85
4.46
5.89
7.25
8.57
9.82
10.82
11.37
11.36
10.82
9.91
8.70
7.17
5.09
2.37
-0.93
-4.45
-7.68
-10.14
-11.57
-12.04
-11.79
-11.15
-10.35
-9.55
-8.80
-8.11
-7.46
-6.77
-5.93
-4.86
-3.52
-1.98
-0.38
1.06
2.23
3.05
3.55
3.79
3.87
3.88
3.85
3.84
3.82
3.77
3.61
3.26
2.75
2.16
1.63
1.33
1.35
1.70
2.33
3.13
4.00
4.84
5.59
6.19
6.60
6.82
6.88
6.89
6.88
6.87
6.78
6.49
5.92
5.05
4.00
2.92
1.98
1.28
0.85
0.64
0.55
0.53
0.53
0.55
0.54
0.49
0.35
0.12
-0.11
-0.19
0.05
0.71
1.77
3.07
4.35
5.39
6.02
6.24
6.15
5.86
5.46
5.01
4.50
3.94
3.38
2.84
2.39
2.09
2.01
2.21
2.74
3.58
4.62
5.68
6.52
7.00
7.00
6.59
5.85
4.91
3.86
2.75
1.53
0.13
-1.47
-3.24
-5.01
-6.55
-7.63
-8.10
-7.98
-7.39
-6.59
-5.81
-5.19
-4.76
-4.46
-4.18
-3.82
-3.41
-2.99
-2.63
-2.31
-2.00
-1.58
-1.05
-0.46
0.02
0.29
0.32
0.21
0.11
0.08
0.08
-0.00
-0.24
-0.60
-0.93
-1.04
-0.83
-0.38
0.15
0.59
0.90
1.12
1.34
1.60
1.79
1.76
1.34
0.56
-0.43
-1.34
-1.88
-1.93
-1.59
-1.04
-0.53
-0.20
-0.01
0.24
0.75
1.63
2.78
3.98
4.91
5.43
5.54
5.46
5.42
5.53
5.71
5.76
5.45
4.67
3.49
2.05
0.49
-1.09
-2.64
-4.11
-5.45
-6.56
-7.40
-7.91
-8.07
-7.87
-7.37
-6.60
-5.63
-4.53
-3.34
-2.06
-0.68
0.79
2.25
3.57
4.55
5.08
5.17
4.90
4.47
4.04
3.77
3.71
3.86
4.11
4.37
4.50
4.44
4.15
3.66
3.04
2.35
1.70
1.18
0.91
0.92
1.11
1.31
1.23
0.65
-0.51
-2.09
-3.82
-5.33
-6.35
-6.77
-6.63
-6.04
-5.15
-4.12
-3.10
-2.21
-1.54
-1.07
-0.71
-0.28
0.29
1.06
1.88
2.57
2.97
2.96
2.58
1.91
1.12
0.32
-0.36
-0.88
-1.20
-1.38
-1.48
-1.63
-1.91
-2.26
-2.57
-2.65
-2.38
-1.76
-0.93
-0.14
0.42
0.66
0.66
0.58
0.60
0.75
0.95
1.06
0.97
0.71
0.41
0.23
0.28
0.51
0.80
0.97
1.01
0.95
0.97
1.18
1.58
2.03
2.31
2.33
2.13
1.88
1.74
1.81
2.04
2.31
2.50
2.58
2.58
2.53
2.45
2.25
1.85
1.22
0.41
-0.42
-1.16
-1.73
-2.08
-2.23
-2.26
-2.22
-2.21
-2.33
-2.58
-2.90
-3.15
-3.15
-2.80
-2.10
-1.17
-0.24
0.47
0.91
1.12
1.28
1.54
1.94
2.37
2.63
2.61
2.27
1.77
1.27
0.89
0.67
0.48
0.24
-0.01
-0.13
0.05
0.65
1.58
2.59
3.32
3.47
2.92
1.80
0.36
-1.02
-2.06
-2.61
-2.71
-2.60
-2.55
-2.72
-3.13
-3.61
-3.92
-3.92
-3.58
-3.05
-2.51
-2.05
-1.65
-1.19
-0.59
0.15
0.87
1.45
1.81
2.06
2.39
2.96
3.79
4.77
5.64
6.11
6.03
5.44
4.54
3.64
2.94
2.46
2.04
1.49
0.65
-0.42
-1.54
-2.44
-2.93
-3.02
-2.86
-2.69
-2.67
-2.85
-3.10
-3.28
-3.27
-3.07
-2.77
-2.51
-2.40
-2.43
-2.50
-2.47
-2.26
-1.89
-1.47
-1.16
-1.02
-0.98
-0.85
-0.42
0.45
1.72
3.13
4.38
5.19
5.47
5.38
5.20
5.13
5.27
5.50
5.58
5.26
4.44
3.23
1.89
0.70
-0.17
-0.71
-1.06
-1.37
-1.72
-2.06
-2.25
-2.18
-1.87
-1.42
-1.02
-0.78
-0.69
-0.67
-0.61
-0.41
-0.10
0.23
0.43
0.37
-0.01
-0.74
-1.71
-2.76
-3.73
-4.47
-4.94
-5.18
-5.23
-5.16
-4.96
-4.66
-4.23
-3.67
-3.00
-2.22
-1.35
-0.43
0.51
1.36
1.98
2.27
2.14
1.59
0.78
-0.07
-0.73
-1.06
-1.08
-0.94
-0.79
-0.77
-0.83
-0.84
-0.68
-0.25
0.38
1.11
1.77
2.25
2.47
2.46
2.25
1.95
1.69
1.60
1.74
2.07
2.48
2.83
3.01
2.97
2.69
2.21
1.52
0.68
-0.27
-1.19
-1.95
-2.41
-2.52
-2.31
-1.88
-1.33
-0.77
-0.24
0.28
0.79
1.26
1.61
1.69
1.41
0.74
-0.21
-1.25
-2.14
-2.70
-2.90
-2.84
-2.67
-2.52
-2.36
-2.09
-1.60
-0.83
0.18
1.24
2.14
2.69
2.80
2.50
1.92
1.17
0.37
-0.48
-1.41
-2.41
-3.41
-4.25
-4.77
-4.88
-4.56
-3.97
-3.25
-2.55
-1.84
-1.08
-0.26
0.49
0.95
0.91
0.33
-0.58
-1.45
-1.94
-1.92
-1.51
-1.02
-0.74
-0.85
-1.32
-1.95
-2.48
-2.66
-2.34
-1.46
-0.11
1.48
3.01
4.23
5.00
5.35
5.42
5.42
5.44
5.51
5.56
5.51
5.34
5.07
4.73
4.37
4.03
3.73
3.52
3.40
3.33
3.26
3.06
2.65
1.94
0.92
-0.37
-1.80
-3.11
-4.11
-4.61
-4.62
-4.30
-3.90
-3.64
-3.61
-3.77
-3.92
-3.93
-3.70
-3.29
-2.84
-2.46
-2.22
-2.14
-2.20
-2.37
-2.66
-3.11
-3.72
-4.40
-5.00
-5.36
-5.37
-5.11
-4.79
-4.76
-5.25
-6.32
-7.72
-9.06
-9.91
-10.04
-9.58
-8.90
-8.49
-8.71
-9.65
-11.07
-12.55
-13.63
-13.89
-13.17
-11.46
-8.98
-6.03
-3.00
-0.25
1.91
3.28
3.85
3.79
3.38
2.89
2.51
2.27
2.09
1.86
1.52
1.16
0.86
0.72
0.69
0.65
0.46
0.07
-0.46
-1.01
-1.47
-1.78
-2.01
-2.23
-2.54
-2.98
-3.58
-4.30
-4.94
-5.33
-5.21
-4.42
-2.95
-0.96
1.21
3.25
4.88
6.02
6.70
7.10
7.39
7.76
8.28
8.89
9.44
9.69
9.55
9.03
8.35
7.74
7.45
7.50
7.82
8.23
8.61
8.95
9.27
9.62
9.99
10.37
10.70
10.99
11.28
11.53
11.67
11.54
11.00
9.99
8.64
7.14
5.74
4.60
3.77
3.25
2.99
3.02
3.36
4.02
4.94
5.92
6.72
7.12
7.03
6.50
5.74
4.96
4.29
3.75
3.29
2.90
2.59
2.48
2.66
3.08
3.65
4.16
4.39
4.23
3.67
2.81
1.75
0.64
-0.45
-1.42
-2.19
-2.66
-2.81
-2.65
-2.34
-2.09
-2.11
-2.53
-3.24
-4.04
-4.69
-4.99
-4.89
-4.41
-3.62
-2.55
-1.21
0.31
1.84
3.21
4.24
4.90
5.31
5.63
6.00
6.37
6.60
6.45
5.81
4.69
3.30
1.90
0.73
-0.11
-0.64
-0.95
-1.12
-1.15
-1.01
-0.66
-0.18
0.29
0.56
0.48
0.06
-0.61
-1.31
-1.87
-2.19
-2.29
-2.30
-2.34
-2.52
-2.83
-3.22
-3.63
-4.02
-4.41
-4.86
-5.39
-5.94
-6.34
-6.41
-6.06
-5.26
-4.18
-3.03
-1.95
-0.97
0.01
1.10
2.36
3.69
4.94
5.91
6.46
6.61
6.38
5.85
5.05
3.93
2.47
0.72
-1.14
-2.87
-4.26
-5.17
-5.67
-5.96
-6.28
-6.79
-7.52
-8.34
-9.13
-9.85
-10.57
-11.42
-12.52
-13.81
-15.12
-16.18
-16.78
-16.90
-16.77
-16.68
-16.91
-17.60
-18.70
-20.01
-21.32
-22.49
-23.44
-24.22
-24.88
-25.48
-26.07
-26.62
-27.08
-27.28
-26.99
-26.00
-24.18
-21.55
-18.28
-14.62
-10.78
-6.98
-3.36
-0.07
2.73
4.95
6.54
7.51
7.92
7.85
7.30
6.32
4.89
3.03
0.73
-1.95
-4.90
-7.93
-10.81
-13.34
-15.42
-17.18
-18.91
-21.04
-23.96
-27.93
-33.00
-38.97
-45.51
-52.23
-58.89
-65.39
-71.79
-78.19
-84.69
-91.21
-97.51
-103.06
-106.94
-107.75
-103.76
-93.25
-75.22
-49.96
-19.22
14.19
47.11
76.87
101.77
121.13
135.01
144.03
149.21
151.87
153.46
155.13
157.18
158.80
158.30
153.79
144.10
129.53
111.96
94.52
80.80
73.85
75.26
84.53
98.93
114.08
125.25
128.79
123.39
110.44
93.35
76.14
62.02
52.37
46.80
43.76
41.54
38.93
35.35
30.67
24.84
17.70
9.10
-0.93
-12.01
-23.29
-33.82
-42.72
-49.51
-54.25
-57.38
-59.58
-61.39
-63.05
-64.43
-65.17
-64.92
-63.62
-61.50
-59.05
-56.82
-55.15
-54.03
-53.16
-52.08
-50.43
-48.03
-44.98
-41.51
-37.95
-34.54
-31.34
-28.33
-25.40
-22.51
-19.72
-17.21
-15.21
-13.88
-13.19
-12.96
-12.94
-12.91
-12.83
-12.76
-12.77
-12.85
-12.83
-12.50
-11.75
-10.61
-9.30
-8.09
-7.23
-6.78
-6.70
-6.81
-6.99
-7.10
-7.08
-6.86
-6.37
-5.56
-4.47
-3.21
-1.93
-0.84
-0.08
0.23
0.10
-0.36
-0.95
-1.41
-1.55
-1.29
-0.74
-0.09
0.39
0.55
0.35
-0.10
-0.63
-1.06
-1.16
-0.83
-0.01
1.24
2.73
4.19
5.32
5.94
5.94
5.43
4.52
3.43
2.28
1.14
0.01
-1.11
-2.19
-3.22
-4.07
-4.67
-4.96
-4.88
-4.46
-3.74
-2.80
-1.74
-0.70
0.19
0.85
1.28
1.50
1.57
1.57
1.50
1.38
1.22
1.05
0.89
0.75
0.63
0.42
0.07
-0.50
-1.27
-2.16
-3.04
-3.77
-4.30
-4.62
-4.78
-4.83
-4.75
-4.44
-3.80
-2.81
-1.62
-0.50
0.21
0.19
-0.69
-2.39
-4.59
-6.85
-8.68
-9.79
-10.24
-10.48
-11.21
-13.10
-16.41
-20.77
-25.32
-29.01
-31.14
-31.71
-31.48
-31.60
-33.08
-36.22
-40.47
-44.70
-47.68
-48.64
-47.60
-45.25
-42.58
-40.45
-39.33
-39.22
-39.40
-38.22
-32.83
-19.47
5.48
43.88
94.28
151.45
207.41
253.82
284.64
297.82
295.22
281.00
259.22
232.20
200.23
162.58
119.09
71.28
22.39
-23.42
-62.40
-92.19
-112.04
-122.28
-123.54
-116.41
-101.83
-81.95
-60.99
-44.78
-39.18
-47.61
-69.04
-97.81
-125.48
-144.25
-150.06
-144.02
-131.21
-117.86
-108.33
-103.50
-101.36
-99.01
-94.71
-88.89
-83.55
-80.84
-81.64
-85.25
-89.92
-93.98
-96.71
-98.49
-100.34
-103.08
-106.79
-110.75
-113.80
-114.86
-113.32
-109.05
-102.17
-92.60
-79.96
-63.72
-43.61
-20.20
4.89
29.12
49.83
65.09
74.31
78.47
79.58
79.86
80.94
83.31
86.51
89.53
91.43
91.77
90.75
89.06
87.56
86.99
87.82
90.11
93.52
97.28
100.32
101.56
100.21
96.20
90.10
83.14
76.66
71.62
68.44
66.96
66.76
67.49
69.04
71.50
74.94
79.16
83.53
86.98
88.20
85.95
79.48
68.84
54.89
39.10
23.08
8.11
-5.09
-16.51
-26.55
-35.78
-44.65
-53.28
-61.54
-69.25
-76.56
-84.05
-92.74
-103.66
-117.13
-132.41
-147.59
-160.22
-168.09
-170.16
-166.86
-159.91
-151.71
-144.49
-139.59
-136.93
-134.86
-130.49
-120.77
-103.82
-80.07
-52.50
-25.80
-4.57
8.38
12.86
10.89
5.36
-1.38
-8.14
-14.72
-21.05
-26.59
-30.30
-31.16
-28.92
-24.45
-19.43
-15.63
-14.14
-14.97
-17.24
-19.71
-21.46
-22.22
-22.33
-22.54
-23.57
-25.87
-29.53
-34.20
-39.22
-43.64
-46.50
-46.96
-44.52
-39.16
-31.28
-21.53
-10.63
0.78
12.17
23.10
33.18
42.08
49.55
55.43
59.71
62.48
63.94
64.35
63.97
63.01
61.46
59.20
56.01
51.81
46.77
41.45
36.62
32.97
30.82
29.87
29.30
28.06
25.32
20.87
15.32
10.03
6.70
6.86
11.34
20.07
32.10
45.97
59.99
72.76
83.32
91.28
96.83
100.60
103.41
105.89
108.26
110.23
111.10
110.21
107.23
102.43
96.54
90.47
84.89
80.03
75.61
71.07
65.84
59.54
52.08
43.61
34.37
24.68
14.85
5.27
-3.57
-11.03
-16.46
-19.37
-19.62
-17.53
-13.93
-9.97
-6.85
-5.49
-6.32
-9.19
-13.42
-18.09
-22.29
-25.35
-26.96
-27.23
-26.60
-25.81
-25.56
-26.32
-28.10
-30.36
-32.10
-32.28
-30.20
-25.87
-20.22
-14.86
-11.66
-12.11
-16.83
-25.15
-35.18
-44.26
-49.75
-49.78
-43.98
-33.51
-20.76
-8.45
1.17
6.89
8.79
7.93
5.80
3.82
2.91
3.27
4.40
5.41
5.37
3.71
0.51
-3.49
-7.20
-9.58
-10.14
-9.16
-7.60
-6.69
-7.31
-9.59
-12.73
-15.33
-15.96
-13.72
-8.58
-1.57
5.41
10.04
10.35
5.74
-2.11
-9.16
-9.97
0.19
23.10
56.15
92.46
122.76
138.29
133.62
108.39
67.23
18.20
-29.83
-69.56
-96.85
-110.97
-113.74
-108.09
-96.91
-82.49
-66.63
-51.08
-37.61
-27.73
-22.05
-19.91
-19.62
-19.25
-17.50
-14.23
-10.49
-7.87
-7.78
-10.83
-16.64
-24.05
-31.68
-38.46
-43.89
-48.02
-51.07
-53.07
-53.65
-52.14
-47.94
-40.82
-31.25
-20.17
-8.81
1.76
10.89
18.37
24.39
29.22
33.16
36.39
39.12
41.52
43.78
46.03
48.26
50.36
52.16
53.57
54.65
55.53
56.28
56.86
56.99
56.31
54.48
51.44
47.34
42.51
37.31
31.95
26.52
21.03
15.49
9.96
4.44
-1.24
-7.36
-14.29
-22.12
-30.48
-38.54
-45.14
-49.20
-50.03
-47.55
-42.26
-34.96
-26.54
-17.80
-9.26
-1.27
5.97
12.34
17.76
22.14
25.48
27.87
29.48
30.60
31.54
32.56
33.80
35.26
36.88
38.58
40.26
41.85
43.23
44.21
44.56
44.12
42.78
40.50
37.35
33.39
28.72
23.54
18.05
12.53
7.22
2.19
-2.65
-7.58
-12.95
-19.03
-25.84
-33.09
-40.17
-46.23
-50.37
-51.86
-50.27
-45.69
-38.64
-30.03
-20.81
-11.82
-3.62
3.57
9.71
14.86
19.08
22.38
24.84
26.56
27.76
28.68
29.54
30.48
31.49
32.41
33.07
33.32
33.09
32.47
31.67
30.94
30.40
30.08
29.75
29.10
27.79
25.63
22.66
19.09
15.26
11.48
7.92
4.57
1.27
-2.23
-6.16
-10.66
-15.77
-21.36
-27.10
-32.48
-36.81
-39.38
-39.62
-37.27
-32.39
-25.38
-16.73
-6.95
3.59
14.49
25.18
34.95
42.90
48.34
51.07
51.59
50.95
50.44
51.00
52.93
55.77
58.68
60.93
62.36
63.51
65.33
68.72
73.99
80.77
88.20
95.44
102.14
108.58
115.52
123.86
134.51
148.53
167.26
191.93
222.71
257.79
292.88
322.07
339.63
342.12
329.46
304.64
272.02
235.44
197.10
157.76
117.63
77.42
38.46
2.14
-30.95
-61.42
-90.68
-120.01
-149.60
-178.12
-202.93
-221.09
-230.52
-230.89
-223.86
-212.56
-200.40
-189.94
-182.13
-176.31
-170.89
-164.31
-155.81
-145.53
-134.26
-122.83
-111.66
-100.74
-89.87
-79.02
-68.58
-59.22
-51.62
-46.14
-42.58
-40.33
-38.54
-36.47
-33.72
-30.32
-26.62
-23.11
-20.19
-18.01
-16.42
-15.09
-13.67
-12.10
-10.60
-9.75
-10.13
-12.10
-15.54
-19.82
-24.09
-27.55
-29.83
-30.95
-31.26
-31.10
-30.65
-29.84
-28.57
-26.85
-24.93
-23.20
-22.03
-21.61
-21.82
-22.32
-22.75
-22.83
-22.49
-21.89
-21.32
-21.08
-21.34
-22.13
-23.20
-24.28
-24.99
-25.11
-24.54
-23.33
-21.57
-19.36
-16.73
-13.69
-10.32
-6.80
-3.42
-0.45
1.91
3.65
4.89
5.79
6.52
7.21
8.01
9.16
10.93
13.49
16.75
20.20
22.95
24.01
22.61
18.56
12.39
5.22
-1.55
-6.67
-9.40
-9.60
-7.68
-4.34
-0.36
3.55
6.86
9.22
10.48
10.66
9.97
8.70
7.19
5.66
4.21
2.82
1.47
0.15
-1.13
-2.29
-3.36
-4.40
-5.44
-6.39
-7.07
-7.27
-6.92
-6.18
-5.36
-4.80
-4.70
-5.04
-5.66
-6.42
-7.31
-8.44
-9.85
-11.43
-12.89
-13.93
-14.46
-14.74
-15.28
-16.64
-19.09
-22.41
-26.04
-29.27
-31.60
-32.92
-33.53
-33.84
-34.16
-34.48
-34.57
-34.07
-32.75
-30.68
-28.18
-25.74
-23.75
-22.41
-21.69
-21.37
-21.12
-20.52
-19.09
-16.33
-11.95
-5.99
0.94
7.82
13.48
17.01
18.09
17.07
14.79
12.12
9.71
7.84
6.49
5.54
4.90
4.57
4.51
4.66
4.83
4.84
4.52
3.79
2.69
1.30
-0.19
-1.59
-2.74
-3.57
-4.20
-4.88
-5.95
-7.75
-10.51
-14.26
-18.92
-24.10
-29.17
-33.13
-34.75
-32.97
-27.17
-17.69
-5.77
6.68
17.68
25.83
30.63
32.44
32.13
30.61
28.53
26.23
23.90
21.74
19.98
18.84
18.32
18.10
17.65
16.36
13.89
10.38
6.44
2.93
0.56
-0.38
-0.24
0.19
0.02
-1.36
-4.08
-7.75
-11.58
-14.58
-15.76
-14.31
-9.85
-2.64
6.40
15.73
23.74
29.18
31.56
31.29
29.30
26.66
24.13
22.06
20.47
19.30
18.60
18.49
19.10
20.31
21.69
22.53
22.06
19.76
15.57
9.96
3.80
-2.01
-6.78
-10.29
-12.76
-14.64
-16.35
-18.16
-20.13
-22.25
-24.50
-26.80
-28.81
-29.90
-29.25
-26.12
-20.36
-12.59
-4.08
3.65
9.41
12.70
13.66
12.83
10.71
7.57
3.56
-1.06
-5.72
-9.62
-12.04
-12.63
-11.63
-9.77
-7.96
-6.88
-6.80
-7.47
-8.38
-8.99
-8.94
-8.24
-7.18
-6.24
-6.01
-7.00
-9.49
-13.34
-17.81
-21.63
-23.32
-21.62
-16.07
-7.28
3.26
13.60
22.13
27.92
30.87
31.39
30.03
27.24
23.37
18.82
14.25
10.42
8.01
7.22
7.69
8.57
8.96
8.25
6.37
3.86
1.47
-0.05
-0.28
0.71
2.46
4.20
5.16
4.75
2.82
-0.19
-3.26
-4.91
-3.75
1.05
9.37
20.04
31.27
41.26
48.84
53.78
56.66
58.47
60.16
62.29
65.00
68.28
72.04
76.21
80.63
84.92
88.45
90.44
90.18
87.28
81.85
74.47
66.05
57.47
49.26
41.40
33.42
24.63
14.47
2.80
-10.04
-23.37
-36.46
-48.66
-59.58
-69.05
-76.95
-83.27
-87.98
-91.21
-93.24
-94.52
-95.57
-96.86
-98.63
-100.83
-103.09
-104.75
-105.04
-103.35
-99.49
-93.86
-87.40
-81.25
-76.33
-72.83
-70.00
-66.37
-60.26
-50.61
-37.52
-22.33
-7.18
5.83
15.36
21.28
24.63
27.12
30.46
35.64
42.42
49.32
54.02
54.18
48.46
37.13
22.40
7.79
-2.94
-7.08
-4.00
4.48
14.55
21.64
22.08
14.65
1.28
-13.32
-23.09
-22.80
-9.91
14.38
45.50
76.97
102.57
118.21
123.09
119.56
112.17
105.99
104.96
110.88
122.98
138.37
152.82
161.78
161.29
148.80
123.67
87.42
43.52
-3.26
-47.75
-85.38
-112.89
-128.86
-133.82
-130.04
-120.95
-110.41
-101.76
-97.20
-97.43
-101.97
-109.57
-118.77
-128.18
-136.40
-141.89
-142.98
-138.25
-127.03
-109.86
-88.63
-66.04
-44.60
-25.63
-8.85
7.27
24.53
43.83
64.67
85.53
104.88
122.14
137.85
153.11
168.44
183.05
194.87
201.46
201.13
193.65
180.31
163.21
144.41
125.41
106.93
89.07
71.57
53.98
35.79
16.50
-4.19
-26.28
-49.31
-72.41
-94.47
-114.40
-131.26
-144.33
-153.09
-157.20
-156.62
-151.93
-144.41
-135.86
-128.27
-123.25
-121.77
-124.09
-129.93
-138.46
-148.23
-156.89
-161.39
-158.64
-146.70
-125.75
-98.46
-69.29
-43.04
-23.26
-11.29
-6.31
-6.07
-8.02
-10.03
-10.86
-10.09
-7.88
-4.83
-1.85
-0.05
-0.50
-3.86
-10.00
-17.92
-25.85
-31.88
-34.66
-34.04
-31.18
-28.12
-26.82
-28.19
-31.60
-35.12
-36.38
-33.59
-26.27
-15.27
-2.26
10.94
22.92
32.75
40.00
44.54
46.52
46.41
44.97
43.06
41.38
40.30
39.83
39.77
39.80
39.57
38.59
36.34
32.48
27.06
20.75
14.65
9.98
7.57
7.59
9.58
12.73
16.26
19.61
22.50
24.72
25.99
25.95
24.27
20.88
16.12
10.73
5.60
1.51
-1.14
-2.38
-2.48
-1.82
-0.61
1.04
3.09
5.42
7.79
9.83
11.24
11.85
11.66
10.82
9.48
7.68
5.37
2.43
-1.20
-5.37
-9.68
-13.53
-16.30
-17.51
-17.00
-14.94
-11.73
-7.89
-3.92
-0.26
2.79
5.02
6.39
7.02
7.13
7.00
6.84
6.81
6.95
7.27
7.75
8.35
8.99
9.56
9.93
10.00
9.81
9.42
8.92
8.36
7.74
7.06
6.38
5.84
5.55
5.54
5.62
5.50
4.88
3.62
1.87
0.01
-1.49
-2.34
-2.49
-2.23
-2.00
-2.26
-3.20
-4.70
-6.36
-7.66
-8.21
-7.82
-6.60
-4.80
-2.67
-0.41
1.90
4.23
6.43
8.28
9.50
9.85
9.27
7.88
5.97
3.92
2.12
0.90
0.51
1.08
2.59
4.82
7.37
9.73
11.37
11.96
11.42
10.01
8.14
6.31
4.90
4.10
3.93
4.24
4.78
5.22
5.22
4.46
2.76
0.16
-3.05
-6.40
-9.34
-11.32
-11.97
-11.17
-9.05
-5.95
-2.37
1.18
4.22
6.37
7.40
7.24
6.00
3.90
1.16
-1.95
-5.22
-8.38
-11.20
-13.41
-14.82
-15.40
-15.28
-14.75
-14.08
-13.46
-12.89
-12.25
-11.41
-10.33
-9.09
-7.92
-7.06
-6.70
-6.87
-7.46
-8.27
-9.10
-9.86
-10.58
-11.40
-12.51
-13.98
-15.74
-17.48
-18.81
-19.27
-18.56
-16.58
-13.52
-9.81
-5.96
-2.44
0.53
2.92
4.87
6.54
7.99
9.07
9.50
9.03
7.54
5.19
2.35
-0.45
-2.77
-4.29
-4.95
-4.85
-4.13
-2.91
-1.23
0.97
3.72
6.98
10.57
14.20
17.60
20.52
22.87
24.61
25.78
26.38
26.39
25.73
24.34
22.19
19.32
15.79
11.75
7.40
3.06
-0.83
-3.75
-5.13
-4.50
-1.62
3.42
10.17
17.84
25.48
32.18
37.19
40.08
40.74
39.35
36.29
32.06
27.17
22.11
17.23
12.83
9.10
6.17
4.04
2.63
1.70
0.94
0.01
-1.22
-2.73
-4.32
-5.73
-6.84
-7.67
-8.37
-9.16
-10.20
-11.53
-13.10
-14.71
-16.17
-17.21
-17.73
-17.67
-17.09
-16.15
-14.98
-13.74
-12.53
-11.43
-10.50
-9.73
-9.10
-8.51
-7.83
-6.99
-5.96
-4.84
-3.75
-2.83
-2.10
-1.50
-0.93
-0.30
0.42
1.13
1.72
2.11
2.30
2.50
2.95
3.79
5.00
6.36
7.58
8.43
8.85
8.94
8.85
8.69
8.47
8.10
7.50
6.66
5.66
4.63
3.64
2.67
1.70
0.72
-0.21
-0.93
-1.33
-1.41
-1.27
-1.15
-1.20
-1.52
-2.02
-2.58
-3.05
-3.39
-3.60
-3.75
-3.88
-3.99
-4.09
-4.12
-4.06
-3.90
-3.60
-3.16
-2.57
-1.84
-0.94
0.13
1.34
2.68
4.15
5.77
7.65
9.96
12.85
16.43
20.70
25.62
31.10
37.04
43.31
49.63
55.61
60.83
64.98
68.04
70.37
72.58
75.22
78.56
82.30
85.67
87.69
87.54
84.95
80.42
75.13
70.59
68.19
68.62
71.55
75.57
78.53
78.12
72.62
61.41
45.01
24.94
3.10
-18.71
-39.14
-57.34
-72.86
-85.59
-95.61
-103.35
-109.36
-114.34
-118.85
-123.27
-127.60
-131.59
-134.67
-136.08
-135.03
-130.90
-123.50
-113.24
-101.04
-88.11
-75.62
-64.44
-55.00
-47.30
-40.76
-34.28
-26.37
-15.51
-0.72
17.76
38.29
58.09
74.17
84.30
87.73
85.20
78.47
69.56
60.16
51.48
44.32
39.16
36.20
35.14
35.28
35.72
35.73
35.12
34.21
33.55
33.62
34.35
35.20
35.24
33.46
29.11
21.95
12.52
2.10
-7.52
-14.74
-18.73
-19.90
-19.66
-19.75
-21.42
-24.85
-29.29
-33.60
-36.93
-39.05
-40.26
-40.94
-41.25
-41.02
-39.99
-38.08
-35.55
-32.84
-30.35
-28.24
-26.41
-24.67
-22.89
-21.13
-19.58
-18.41
-17.70
-17.38
-17.25
-17.04
-16.54
-15.61
-14.22
-12.49
-10.68
-9.10
-8.03
-7.61
-7.76
-8.20
-8.65
-8.97
-9.26
-9.84
-11.08
-13.16
-15.87
-18.65
-20.67
-21.21
-19.85
-16.67
-12.18
-7.18
-2.48
1.28
3.80
5.01
5.08
4.26
2.90
1.44
0.37
0.07
0.73
2.07
3.49
4.23
3.72
1.82
-1.16
-4.62
-8.03
-11.06
-13.65
-15.75
-17.27
-17.98
-17.68
-16.37
-14.34
-12.13
-10.29
-9.30
-9.23
-9.81
-10.42
-10.27
-8.65
-5.17
0.06
6.47
13.14
19.26
24.33
28.36
31.74
35.02
38.63
42.72
47.15
51.54
55.38
58.19
59.62
59.54
58.03
55.31
51.55
46.80
40.87
33.46
24.32
13.44
1.11
-12.10
-25.54
-38.60
-50.79
-61.79
-71.29
-79.14
-85.26
-89.74
-92.83
-94.79
-95.72
-95.33
-93.07
-88.32
-80.74
-70.55
-58.48
-45.49
-32.47
-19.95
-8.21
2.58
12.22
20.43
27.06
32.20
36.23
39.55
42.33
44.40
45.33
44.79
42.85
40.07
37.26
35.11
33.93
33.59
33.57
33.37
32.63
31.21
29.15
26.51
23.34
19.63
15.40
10.78
6.03
1.44
-2.66
-6.13
-9.05
-11.72
-14.57
-17.93
-21.86
-26.09
-30.12
-33.41
-35.57
-36.46
-36.13
-34.72
-32.31
-28.98
-24.85
-20.14
-15.25
-10.68
-6.92
-4.39
-3.30
-3.62
-5.10
-7.26
-9.54
-11.38
-12.39
-12.47
-11.73
-10.45
-8.89
-7.19
-5.37
-3.38
-1.24
0.89
2.80
4.27
5.26
5.91
6.53
7.38
8.60
10.06
11.46
12.39
12.55
11.85
10.35
8.22
5.65
2.82
-0.07
-2.75
-4.88
-6.18
-6.54
-6.10
-5.25
-4.42
-3.97
-3.97
-4.18
-4.12
-3.30
-1.40
1.58
5.27
9.12
12.55
15.23
17.12
18.55
19.95
21.70
23.97
26.61
29.36
31.98
34.36
36.68
39.23
42.34
46.23
50.93
56.26
61.81
67.03
71.23
73.69
73.88
71.60
67.14
61.21
54.86
49.11
44.84
42.49
42.13
43.53
46.29
49.97
54.29
59.19
64.85
71.61
79.76
89.39
100.04
110.75
120.00
126.02
127.19
122.50
111.92
96.47
77.96
58.46
39.67
22.56
7.17
-7.04
-20.84
-34.70
-48.59
-61.92
-73.78
-83.20
-89.40
-91.92
-90.62
-85.64
-77.41
-66.67
-54.59
-42.71
-32.76
-26.21
-23.91
-25.85
-31.26
-39.03
-48.10
-57.86
-68.21
-79.32
-91.44
-104.57
-118.27
-131.60
-143.31
-152.07
-156.90
-157.59
-154.90
-150.48
-146.37
-144.49
-146.03
-151.26
-159.51
-169.43
-179.33
-187.54
-192.66
-193.79
-190.56
-182.96
-171.05
-154.70
-133.63
-107.72
-77.66
-45.35
-13.81
13.51
33.76
45.68
49.93
48.61
44.33
39.24
34.42
29.89
25.14
19.67
13.24
5.89
-2.25
-11.04
-19.96
-27.77
-32.28
-30.78
-21.00
-2.28
23.69
53.07
80.97
102.99
116.49
121.14
118.55
111.35
102.21
93.22
85.59
79.81
75.79
73.07
70.98
68.85
66.15
62.66
58.48
53.89
49.26
44.91
41.08
37.86
35.22
33.00
30.91
28.63
25.94
22.90
19.86
17.25
15.43
14.32
13.39
11.92
9.37
5.62
1.07
-3.70
-8.25
-12.44
-16.32
-19.79
-22.39
-23.27
-21.57
-16.89
-9.61
-0.85
7.86
15.14
20.10
22.48
22.55
20.86
18.08
14.94
12.06
9.96
8.90
8.74
8.98
8.84
7.60
4.86
0.68
-4.34
-9.33
-13.39
-15.99
-17.07
-17.05
-16.56
-16.26
-16.56
-17.59
-19.18
-20.95
-22.36
-22.84
-21.88
-19.23
-15.02
-9.78
-4.34
0.51
4.25
6.76
8.31
9.29
10.04
10.71
11.30
11.72
11.91
11.93
11.90
11.95
12.19
12.57
12.92
12.96
12.47
11.35
9.71
7.86
6.10
4.66
3.57
2.70
1.88
0.98
-0.08
-1.30
-2.71
-4.36
-6.28
-8.39
-10.50
-12.37
-13.87
-15.08
-16.32
-18.10
-20.77
-24.39
-28.58
-32.61
-35.71
-37.31
-37.22
-35.60
-32.82
-29.24
-25.18
-20.85
-16.45
-12.23
-8.31
-4.66
-1.07
2.74
6.99
11.68
16.61
21.50
26.10
30.30
34.11
37.70
41.37
45.55
50.72
57.19
64.94
73.37
81.39
87.65
90.96
90.67
86.81
80.08
71.48
62.04
52.50
43.31
34.65
26.66
19.63
13.93
9.86
7.47
6.41
6.02
5.58
4.60
2.92
0.75
-1.56
-3.66
-5.30
-6.32
-6.62
-6.14
-4.97
-3.30
-1.45
0.30
1.75
2.90
3.83
4.55
4.89
4.48
3.00
0.37
-3.12
-6.79
-9.80
-11.44
-11.29
-9.35
-5.97
-1.73
2.71
6.71
9.71
11.43
11.86
11.32
10.38
9.64
9.54
10.21
11.44
12.78
13.69
13.72
12.67
10.60
7.85
4.96
2.50
0.94
0.50
1.08
2.21
3.17
3.21
1.86
-0.87
-4.31
-7.29
-8.42
-6.53
-1.03
8.03
20.08
34.41
50.55
68.32
87.69
108.37
129.52
149.75
167.56
181.81
192.01
198.08
199.60
195.27
182.86
160.08
125.82
81.05
28.86
-26.40
-80.45
-130.00
-173.09
-208.75
-236.53
-256.35
-268.53
-273.90
-273.56
-268.34
-258.21
-242.13
-218.48
-185.99
-144.51
-95.61
-42.38
11.17
60.93
103.63
137.38
161.78
177.65
186.22
188.41
184.44
173.98
156.70
132.77
103.24
70.05
35.81
3.47
-24.19
-45.09
-58.21
-63.83
-63.32
-58.68
-51.89
-44.65
-38.20
-33.62
-31.80
-33.21
-37.45
-42.92
-47.08
-47.37
-42.37
-32.53
-20.08
-8.10
0.67
4.72
3.94
-0.85
-8.59
-18.41
-29.50
-40.88
-51.18
-58.81
-62.60
-62.34
-58.98
-54.29
-50.05
-47.51
-47.10
-48.56
-51.22
-54.18
-56.24
-55.95
-51.84
-42.91
-29.23
-12.20
5.61
21.13
31.72
35.91
33.77
26.60
16.37
4.90
-6.71
-18.24
-30.04
-42.38
-54.86
-66.23
-74.76
-78.98
-78.45
-74.04
-67.64
-61.36
-56.79
-54.54
-54.34
-55.55
-57.45
-59.28
-59.86
-57.49
-50.54
-38.45
-22.74
-6.82
5.17
10.40
8.65
2.37
-4.93
-10.62
-14.21
-17.03
-20.82
-26.22
-32.30
-37.50
-40.97
-43.52
-47.26
-54.23
-64.93
-77.56
-88.42
-93.08
-87.90
-71.26
-44.09
-9.75
26.73
59.83
84.88
99.21
102.92
98.65
90.72
83.71
81.08
84.34
92.94
104.84
117.47
128.49
136.30
140.17
140.07
136.51
130.31
122.40
113.66
104.68
95.63
86.43
76.99
67.60
58.97
52.04
47.61
45.98
46.87
49.46
52.66
55.30
56.45
55.56
52.64
48.23
43.17
38.17
33.32
27.83
20.19
8.66
-8.05
-30.22
-56.74
-85.00
-111.05
-130.24
-138.23
-132.33
-112.62
-82.39
-47.31
-13.75
13.11
30.47
38.00
36.96
29.19
16.44
0.43
-16.81
-32.92
-45.78
-54.30
-58.91
-61.30
-63.37
-66.21
-69.55
-72.24
-73.15
-72.01
-69.38
-65.92
-61.41
-54.37
-42.70
-25.04
-2.02
23.53
47.42
65.91
77.11
81.51
81.24
78.69
75.29
71.11
65.42
57.66
48.09
37.92
28.59
21.00
15.00
9.50
3.12
-4.84
-13.82
-21.90
-26.34
-24.71
-15.89
-0.73
17.99
36.39
50.65
58.11
57.92
51.09
39.92
27.23
15.45
6.04
-0.78
-5.81
-10.32
-15.32
-21.01
-26.66
-30.94
-32.57
-30.95
-26.39
-20.02
-13.30
-7.49
-3.33
-1.14
-0.87
-2.34
-5.29
-9.35
-13.87
-17.84
-20.10
-19.64
-16.04
-9.66
-1.50
7.19
15.43
22.74
29.00
34.14
37.84
39.42
38.19
33.81
26.62
17.63
8.21
-0.30
-6.99
-11.42
-13.55
-13.62
-11.98
-9.09
-5.49
-1.79
1.49
4.01
5.71
6.74
7.31
7.52
7.24
6.23
4.24
1.30
-2.25
-5.85
-8.96
-11.27
-12.72
-13.61
-14.33
-15.26
-16.62
-18.43
-20.47
-22.20
-22.88
-21.78
-18.46
-13.10
-6.55
-0.13
4.77
7.31
7.44
5.91
3.89
2.41
2.06
2.74
3.96
5.14
5.88
6.04
5.70
4.92
3.72
2.04
-0.11
-2.58
-5.07
-7.21
-8.74
-9.64
-10.10
-10.46
-11.02
-11.93
-13.12
-14.38
-15.52
-16.47
-17.33
-18.32
-19.63
-21.33
-23.23
-25.02
-26.35
-27.07
-27.34
-27.54
-28.26
-29.98
-32.88
-36.80
-41.19
-45.46
-49.18
-52.30
-55.21
-58.63
-63.21
-69.33
-76.86
-85.13
-93.22
-100.22
-105.43
-108.53
-109.44
-108.27
-105.09
-99.93
-92.65
-82.80
-69.50
-51.59
-28.14
0.78
33.46
66.46
95.50
116.77
128.39
130.90
126.85
119.51
111.61
104.63
98.93
94.39
90.92
88.65
87.63
87.55
87.78
87.54
86.46
84.65
82.71
81.29
80.78
81.04
81.64
82.09
82.16
81.96
81.75
81.66
81.42
80.34
77.54
72.31
64.56
54.87
44.38
34.54
26.73
21.96
20.60
22.02
24.46
25.20
21.40
11.19
-5.17
-25.04
-44.14
-58.28
-65.21
-65.73
-63.25
-62.10
-65.50
-74.05
-85.71
-96.88
-104.21
-105.81
-101.69
-93.21
-82.27
-70.57
-59.37
-49.66
-42.25
-37.89
-36.94
-38.99
-42.84
-46.78
-49.06
-48.52
-44.96
-39.07
-32.10
-25.26
-19.32
-14.37
-10.05
-5.84
-1.51
2.83
6.77
9.93
12.20
13.79
15.07
16.37
17.79
19.25
20.63
21.95
23.36
25.12
27.41
30.21
33.29
36.32
38.98
41.05
42.40
42.98
42.67
41.35
38.90
35.30
30.69
25.38
19.73
14.14
8.86
4.03
-0.38
-4.45
-8.23
-11.68
-14.64
-16.89
-18.24
-18.62
-18.15
-17.08
-15.76
-14.45
-13.32
-12.41
-11.63
-10.90
-10.16
-9.41
-8.66
-7.87
-6.97
-5.86
-4.53
-3.08
-1.69
-0.56
0.21
0.64
0.84
0.94
0.97
0.92
0.71
0.39
0.11
0.11
0.57
1.45
2.53
3.44
3.81
3.47
2.47
1.09
-0.27
-1.31
-1.85
-1.91
-1.57
-0.98
-0.18
0.79
1.91
3.03
3.95
4.43
4.34
3.68
2.63
1.40
0.21
-0.85
-1.76
-2.57
-3.32
-4.02
-4.74
-5.49
-6.32
-7.22
-8.10
-8.81
-9.14
-8.95
-8.18
-6.91
-5.30
-3.54
-1.78
-0.10
1.45
2.82
3.91
4.65
4.98
4.90
4.45
3.72
2.77
1.66
0.48
-0.65
-1.60
-2.24
-2.54
-2.61
-2.58
-2.58
-2.72
-2.99
-3.39
-3.86
-4.37
-4.84
-5.15
-5.16
-4.76
-3.94
-2.81
-1.60
-0.53
0.27
0.75
1.03
1.26
1.60
2.11
2.69
3.19
3.40
3.19
2.61
1.88
1.30
1.10
1.40
2.08
2.94
3.71
4.19
4.29
4.03
3.46
2.69
1.78
0.77
-0.30
-1.41
-2.49
-3.45
-4.21
-4.73
-5.02
-5.14
-5.13
-4.93
-4.46
-3.61
-2.39
-0.93
0.51
1.69
2.48
2.90
3.10
3.28
3.52
3.82
4.06
4.12
3.99
3.75
3.50
3.35
3.34
3.45
3.65
3.95
4.41
5.07
5.91
6.80
7.54
7.91
7.82
7.29
6.45
5.45
4.37
3.19
1.88
0.43
-1.04
-2.31
-3.17
-3.47
-3.21
-2.50
-1.47
-0.25
1.09
2.55
4.06
5.53
6.80
7.66
8.00
7.72
6.93
5.90
4.97
4.48
4.58
5.16
5.86
6.28
6.10
5.24
3.84
2.20
0.71
-0.29
-0.57
-0.06
1.05
2.28
3.03
2.76
1.22
-1.40
-4.55
-7.52
-9.68
-10.68
-10.50
-9.40
-7.74
-5.94
-4.30
-3.00
-2.13
-1.61
-1.35
-1.23
-1.15
-1.04
-0.88
-0.62
-0.26
0.20
0.73
1.35
2.09
3.04
4.29
5.81
7.46
9.02
10.22
10.92
11.11
10.88
10.37
9.69
8.89
7.95
6.86
5.63
4.34
3.04
1.85
0.84
0.07
-0.38
-0.53
-0.43
-0.18
0.07
0.20
0.16
0.00
-0.21
-0.36
-0.34
-0.14
0.22
0.67
1.14
1.55
1.80
1.81
1.58
1.14
0.60
0.13
-0.17
-0.26
-0.15
0.00
0.09
-0.02
-0.36
-0.87
-1.45
-1.98
-2.29
-2.32
-2.06
-1.54
-0.89
-0.24
0.30
0.66
0.88
1.01
1.12
1.26
1.43
1.59
1.66
1.59
1.34
0.97
0.58
0.27
0.16
0.29
0.65
1.16
1.73
2.24
2.55
2.55
2.18
1.47
0.60
-0.18
-0.64
-0.67
-0.33
0.18
0.64
0.91
0.98
0.92
0.82
0.71
0.56
0.36
0.18
0.11
0.28
0.67
1.12
1.38
1.30
0.86
0.27
-0.13
-0.07
0.56
1.58
2.65
3.40
3.60
3.24
2.49
1.64
0.99
0.71
0.80
1.15
1.51
1.65
1.44
0.90
0.19
-0.51
-1.03
-1.30
-1.37
-1.32
-1.21
-1.08
-0.90
-0.70
-0.55
-0.58
-0.88
-1.45
-2.19
-2.89
-3.34
-3.46
-3.29
-2.98
-2.68
-2.53
-2.51
-2.55
-2.54
-2.38
-2.07
-1.62
-1.08
-0.55
-0.08
0.29
0.55
0.70
0.75
0.67
0.39
-0.09
-0.67
-1.15
-1.38
-1.27
-0.96
-0.68
-0.63
-0.88
-1.30
-1.65
-1.66
-1.23
-0.44
0.53
1.45
2.16
2.58
2.68
2.50
2.05
1.37
0.53
-0.34
-1.10
-1.60
-1.78
-1.67
-1.45
-1.30
-1.38
-1.70
-2.14
-2.49
-2.56
-2.27
-1.63
-0.82
-0.02
0.59
0.95
1.07
1.01
0.84
0.62
0.33
-0.09
-0.67
-1.41
-2.23
-2.98
-3.52
-3.70
-3.49
-2.90
-1.98
-0.83
0.41
1.62
2.66
3.42
3.88
4.07
4.06
3.96
3.83
3.69
3.51
3.27
2.95
2.57
2.15
1.71
1.25
0.76
0.24
-0.26
-0.73
-1.15
-1.59
-2.11
-2.72
-3.41
-4.11
-4.70
-5.09
-5.22
-5.11
-4.83
-4.45
-4.09
-3.80
-3.62
-3.51
-3.43
-3.22
-2.78
-2.05
-1.06
0.06
1.15
2.09
2.81
3.31
3.61
3.77
3.81
3.79
3.79
3.87
4.04
4.19
4.17
3.82
3.13
2.20
1.27
0.55
0.11
-0.10
-0.27
-0.54
-0.96
-1.46
-1.95
-2.35
-2.69
-3.02
-3.35
-3.68
-3.87
-3.78
-3.32
-2.46
-1.26
0.09
1.37
2.38
2.96
3.09
2.88
2.48
2.04
1.56
1.01
0.30
-0.52
-1.34
-1.97
-2.28
-2.20
-1.77
-1.07
-0.17
0.88
1.99
3.00
3.75
4.07
3.92
3.41
2.72
2.05
1.51
1.11
0.81
0.49
0.09
-0.40
-0.94
-1.45
-1.81
-1.96
-1.89
-1.70
-1.52
-1.44
-1.52
-1.73
-1.99
-2.22
-2.35
-2.33
-2.11
-1.63
-0.91
-0.02
0.94
1.80
2.45
2.83
2.93
2.81
2.54
2.22
1.91
1.66
1.46
1.27
0.98
0.56
0.04
-0.49
-0.84
-0.90
-0.62
-0.03
0.69
1.35
1.83
2.05
2.06
2.00
2.00
2.16
2.51
3.07
3.78
4.54
5.21
5.64
5.73
5.50
5.08
4.68
4.51
4.65
5.03
5.42
5.53
5.12
4.08
2.49
0.57
-1.44
-3.28
-4.83
-6.02
-6.83
-7.25
-7.23
-6.77
-5.86
-4.59
-3.13
-1.64
-0.28
0.82
1.62
2.10
2.32
2.36
2.31
2.27
2.25
2.27
2.31
2.36
2.50
2.80
3.30
4.00
4.82
5.59
6.15
6.39
6.28
5.91
5.39
4.89
4.47
4.06
3.51
2.59
