1678086535.00
64.000000
-0.00
-0.00
-0.00
-0.00
-0.00
-0.00
-0.00
-0.00
-0.00
-0.00
0.00
0.01
0.01
-0.00
-0.03
-0.05
-0.05
0.00
0.13
0.36
0.66
1.01
1.37
1.72
2.06
2.40
2.79
3.24
3.80
4.42
5.06
5.66
6.20
6.68
7.15
7.68
8.31
9.14
10.09
11.04
11.88
12.56
13.14
13.76
14.65
15.96
17.91
20.32
22.90
25.38
27.58
29.57
31.68
34.32
37.81
42.54
48.15
54.10
59.83
64.97
69.58
74.14
79.34
85.71
93.76
103.00
112.62
121.73
129.77
136.75
143.30
150.75
157.77
166.64
177.95
191.79
206.97
220.57
228.25
225.36
208.53
176.87
132.76
80.05
23.07
-34.94
-92.44
-149.16
-205.23
-260.37
-313.74
-363.87
-409.83
-450.91
-486.50
-515.74
-537.23
-549.22
-549.96
-538.37
-514.21
-478.67
-433.88
-382.45
-327.02
-269.84
-212.63
-156.66
-102.95
-52.37
-5.90
35.58
71.43
101.35
125.50
144.38
158.69
169.15
176.37
180.75
182.57
182.07
179.51
175.23
169.65
163.18
156.15
148.81
141.30
133.69
126.02
118.33
110.69
103.16
95.80
88.68
81.83
75.25
68.95
62.95
57.25
51.86
46.78
42.03
37.59
33.45
29.61
26.07
22.81
19.83
17.11
14.67
12.48
10.54
8.83
7.35
6.07
4.97
4.05
3.27
2.62
2.09
1.65
1.30
1.01
0.79
0.61
0.47
0.37
0.29
0.23
0.18
0.15
0.13
0.12
0.12
0.13
0.14
0.16
0.18
0.22
0.25
0.29
0.34
0.39
0.44
0.49
0.55
0.62
0.68
0.75
0.83
0.90
0.98
1.07
1.16
1.26
1.37
1.48
1.61
1.76
1.92
2.11
2.32
2.55
2.80
3.09
3.41
3.75
4.13
4.55
4.99
5.48
6.00
6.56
7.16
7.82
8.52
9.27
10.08
10.94
11.85
12.82
13.83
14.92
16.07
17.29
18.56
19.88
21.22
22.54
23.79
24.89
25.77
26.31
26.43
26.04
25.07
23.47
21.23
18.37
14.92
10.98
6.64
1.99
-2.87
-7.82
-12.75
-17.56
-22.11
-26.26
-29.89
-32.90
-35.16
-36.62
-37.25
-37.03
-36.00
-34.22
-31.80
-28.84
-25.54
-22.11
-18.73
-15.58
-12.77
-10.33
-8.23
-6.24
-4.12
-1.72
1.13
4.54
8.52
13.06
18.09
23.55
29.34
35.41
41.28
46.55
50.78
53.65
54.91
54.52
52.65
49.78
46.58
43.23
39.99
37.04
34.34
31.72
28.93
25.76
22.13
18.27
13.92
9.17
4.20
-1.09
-7.47
-16.49
-30.37
-51.61
-76.88
-103.16
-126.25
-141.80
-146.94
-141.27
-126.85
-107.11
-85.62
-65.18
-48.48
-37.15
-31.49
-29.88
-28.50
-22.20
-6.59
19.55
53.00
86.19
110.59
119.67
110.82
85.71
48.95
6.51
-35.51
-71.48
-97.13
-109.65
-108.46
-95.48
-74.59
-50.28
-26.33
-4.87
13.69
29.81
44.11
56.69
67.11
74.65
78.82
79.55
77.23
72.54
66.08
58.31
49.48
39.74
29.36
18.81
8.69
-0.45
-8.50
-15.95
-23.74
-32.91
-44.15
-57.44
-72.21
-87.54
-102.31
-115.16
-124.26
-127.32
-122.24
-108.04
-85.77
-58.49
-30.41
-5.49
13.80
26.83
34.14
36.45
34.01
26.96
16.12
3.79
-6.34
-10.44
-6.27
5.67
21.92
37.54
48.02
50.94
46.65
37.75
27.68
19.50
14.80
13.24
12.43
8.60
-2.09
-21.78
-49.41
-80.48
-108.58
-128.08
-136.57
-135.79
-130.39
-125.23
-122.98
-123.15
-123.22
-120.49
-113.51
-102.33
-87.45
-69.00
-46.36
-18.84
13.30
48.45
83.86
116.55
144.14
165.26
179.51
187.08
188.58
185.04
177.87
168.97
160.23
153.15
148.37
145.50
143.27
140.05
134.34
125.28
112.79
97.54
80.61
63.06
45.75
29.17
13.71
-0.02
-11.07
-18.19
-19.96
-15.20
-3.54
14.13
35.24
55.61
70.26
75.03
68.12
51.17
28.95
7.85
-6.65
-11.99
-9.54
-3.71
-0.03
-2.73
-13.36
-30.64
-51.37
-71.89
-89.22
-101.41
-107.44
-106.86
-99.64
-86.37
-68.48
-48.36
-28.92
-12.79
-1.35
6.11
12.27
21.07
36.11
59.00
88.21
119.21
146.02
163.34
168.38
161.69
146.28
125.97
103.69
80.76
57.11
32.45
7.11
-17.59
-39.82
-57.93
-71.17
-79.75
-84.63
-87.00
-87.75
-87.25
-85.35
-81.63
-75.81
-68.03
-58.98
-49.71
-41.15
-33.89
-28.02
-23.32
-19.56
-16.74
-15.11
-14.76
-15.42
-16.23
-15.82
-12.88
-6.70
2.46
13.35
24.10
32.76
38.06
39.71
38.47
35.60
32.29
29.08
25.49
20.43
12.67
1.57
-12.37
-27.39
-40.82
-49.92
-52.71
-49.05
-41.01
-32.86
-29.92
-36.71
-54.89
-82.17
-112.69
-139.02
-155.02
-157.98
-149.50
-134.49
-118.88
-107.30
-101.44
-99.86
-98.78
-93.64
-80.56
-57.76
-26.27
10.04
45.24
73.23
89.58
92.87
84.84
69.43
51.49
35.63
25.78
24.99
35.23
56.55
86.42
119.60
149.18
168.74
174.33
165.59
144.98
116.14
82.60
47.27
13.00
-16.88
-38.85
-50.55
-51.90
-45.43
-35.28
-25.28
-17.55
-12.30
-8.73
-6.25
-5.18
-6.51
-10.96
-18.30
-27.14
-35.49
-41.36
-43.29
-40.52
-33.08
-21.55
-7.09
8.89
25.07
40.48
54.50
66.76
76.80
84.00
87.73
87.74
84.35
78.37
70.75
62.27
53.35
44.35
35.84
28.98
25.28
26.01
31.63
41.42
53.60
65.91
76.34
83.72
87.70
88.56
86.67
82.27
75.27
65.64
53.42
38.92
22.46
4.39
-14.99
-35.15
-55.15
-73.64
-89.03
-99.99
-106.08
-108.06
-107.98
-108.46
-111.81
-119.03
-129.25
-140.12
-148.65
-152.51
-150.86
-144.47
-135.21
-125.19
-116.15
-109.16
-104.74
-102.96
-103.44
-105.08
-105.89
-103.30
-95.03
-80.11
-59.58
-36.18
-13.23
6.85
23.38
37.33
50.13
62.28
72.66
78.95
78.91
71.87
59.32
44.32
30.22
19.17
11.51
6.16
1.64
-2.92
-7.37
-10.58
-11.36
-9.16
-4.59
0.58
4.04
3.53
-2.39
-14.14
-31.02
-51.45
-73.14
-93.46
-109.79
-120.15
-123.71
-121.19
-114.66
-106.70
-99.36
-93.23
-87.40
-80.08
-69.70
-55.73
-38.82
-20.12
-0.61
19.31
39.83
61.25
83.46
105.86
127.35
146.49
161.68
171.24
173.90
169.16
157.80
141.77
123.65
105.63
88.81
73.28
58.59
44.60
31.78
20.88
12.08
4.45
-4.03
-15.42
-30.71
-48.98
-67.59
-83.20
-93.10
-96.26
-93.49
-86.91
-78.89
-71.11
-64.20
-57.74
-50.73
-42.03
-31.10
-18.34
-5.43
5.03
10.34
8.81
0.58
-12.25
-26.45
-38.95
-47.82
-52.66
-54.01
-52.54
-48.43
-41.41
-31.41
-19.12
-6.36
4.38
10.72
11.20
5.80
-3.98
-15.65
-26.54
-34.59
-39.01
-40.18
-39.34
-37.69
-35.83
-33.39
-28.96
-20.24
-4.42
20.87
56.20
98.84
142.07
176.02
190.22
176.95
134.29
67.29
-13.27
-94.10
-163.23
-212.83
-240.14
-246.72
-236.64
-214.95
-186.76
-156.93
-129.69
-107.82
-91.89
-79.89
-67.85
-51.41
-27.90
2.42
36.36
69.12
96.28
115.45
126.80
132.69
136.39
140.81
147.61
156.86
167.33
177.17
184.49
187.81
186.15
178.76
165.08
144.90
118.77
88.17
55.28
22.45
-8.67
-37.40
-63.97
-88.98
-112.59
-134.15
-152.17
-164.89
-171.13
-171.10
-166.57
-160.66
-156.70
-156.64
-160.09
-164.05
-163.97
-155.52
-136.47
-107.57
-72.32
-35.54
-1.58
26.78
49.10
66.80
82.58
99.29
118.79
140.99
163.52
182.26
192.83
192.20
179.96
158.37
131.50
103.70
78.39
57.56
41.93
31.30
24.93
21.59
19.61
17.22
13.04
6.37
-2.73
-13.91
-27.02
-42.26
-60.03
-80.44
-102.63
-124.50
-142.63
-152.79
-150.61
-132.55
-97.05
-45.53
17.14
83.19
143.74
191.14
221.26
234.45
234.85
228.21
219.54
211.36
203.62
194.70
183.05
168.26
151.20
133.36
116.06
99.81
84.39
69.36
54.66
40.84
29.11
20.75
16.49
15.78
16.62
15.92
10.61
-1.04
-18.55
-39.13
-58.67
-73.33
-80.95
-81.58
-77.04
-69.70
-61.37
-52.67
-43.19
-32.24
-19.53
-5.64
8.22
20.64
30.57
37.66
42.26
45.12
47.03
48.51
49.75
50.79
51.76
52.88
54.28
55.69
56.34
55.21
51.46
45.02
36.63
27.52
18.85
11.14
4.04
-3.34
-11.87
-21.71
-32.06
-41.40
-47.94
-50.45
-48.66
-43.29
-35.76
-27.57
-19.82
-13.01
-7.10
-1.92
2.51
5.99
8.18
8.87
7.94
5.44
1.38
-4.18
-10.98
-18.36
-25.23
-30.36
-32.87
-32.74
-30.99
-29.28
-29.24
-31.75
-36.63
-42.72
-48.44
-52.54
-54.46
-54.36
-53.00
-51.23
-49.94
-49.87
-51.61
-55.53
-61.54
-68.90
-76.18
-81.58
-83.38
-80.55
-73.23
-62.74
-51.15
-40.46
-31.89
-25.45
-20.09
-14.41
-7.40
1.01
9.94
18.29
25.39
31.53
37.53
44.02
50.60
55.71
57.14
53.21
43.67
30.04
14.96
1.18
-9.48
-16.58
-20.86
-23.50
-25.48
-27.08
-28.05
-28.00
-26.88
-25.18
-23.86
-24.06
-26.47
-31.20
-37.53
-44.19
-49.69
-52.79
-52.78
-49.58
-43.59
-35.43
-25.81
-15.42
-4.86
5.35
14.70
22.82
29.53
34.93
39.32
43.08
46.44
49.35
51.60
52.94
53.19
52.33
50.49
47.86
44.56
40.74
36.54
31.98
26.94
21.31
14.96
8.10
1.21
-5.11
-10.37
-14.59
-18.26
-22.16
-26.99
-33.07
-40.33
-48.48
-57.14
-65.88
-74.08
-80.77
-84.70
-84.72
-80.28
-71.78
-60.57
-48.56
-37.65
-29.18
-23.67
-20.89
-20.03
-20.12
-20.31
-20.02
-18.97
-17.02
-14.18
-10.37
-5.67
-0.23
5.68
11.90
18.47
25.82
34.50
45.04
57.41
70.92
84.30
96.06
104.95
110.33
112.21
111.16
107.98
103.43
98.03
91.85
84.60
75.73
64.72
51.27
35.54
18.20
0.46
-16.17
-30.11
-40.04
-45.20
-45.56
-41.87
-35.39
-27.63
-19.96
-13.41
-8.41
-4.97
-2.68
-1.02
0.47
2.06
3.68
5.06
5.92
6.12
5.79
5.19
4.53
3.80
2.81
1.32
-0.76
-3.18
-5.58
-7.67
-9.46
-11.28
-13.62
-16.75
-20.61
-24.84
-29.10
-33.25
-37.49
-42.29
-48.01
-54.73
-62.10
-69.31
-75.28
-78.80
-78.85
-74.76
-66.45
-54.50
-40.14
-25.01
-10.70
1.60
11.37
18.85
24.70
29.70
34.38
39.03
43.66
48.27
52.87
57.54
62.24
66.83
71.06
74.80
78.01
80.80
83.34
85.59
87.18
87.60
86.16
82.31
75.84
67.03
56.59
45.46
34.43
24.00
14.11
4.37
-5.77
-16.75
-28.82
-41.91
-55.60
-69.14
-81.47
-91.33
-97.67
-99.90
-98.18
-93.31
-86.46
-78.76
-70.93
-63.19
-55.34
-47.17
-38.53
-29.56
-20.62
-12.30
-5.12
0.63
4.90
7.95
10.16
11.84
13.00
13.53
13.15
11.65
8.90
4.79
-0.73
-7.73
-16.05
-25.14
-34.17
-42.16
-48.42
-52.82
-55.88
-58.50
-61.59
-65.72
-70.88
-76.45
-81.29
-83.97
-83.16
-78.00
-68.30
-54.73
-38.50
-21.08
-3.75
12.66
27.72
41.32
53.31
63.54
71.82
78.10
82.54
85.45
87.11
87.70
87.26
85.81
83.45
80.38
76.85
73.01
68.77
63.75
57.47
49.67
40.47
30.48
20.51
11.33
3.31
-3.67
-10.04
-16.40
-23.22
-30.83
-39.22
-48.06
-56.61
-63.76
-68.21
-68.94
-65.47
-58.20
-48.27
-37.17
-26.29
-16.50
-8.06
-0.86
5.44
11.10
16.26
20.91
24.94
28.20
30.51
31.82
32.14
31.65
30.55
29.08
27.35
25.35
23.00
20.18
16.89
13.14
8.95
4.34
-0.67
-6.08
-11.75
-17.44
-22.78
-27.34
-30.84
-33.22
-34.78
-36.20
-38.19
-41.35
-45.71
-50.64
-54.86
-56.99
-55.90
-51.12
-43.08
-32.84
-21.88
-11.45
-2.43
4.93
10.88
15.87
20.33
24.42
28.06
31.09
33.31
34.66
35.18
35.02
34.22
32.81
30.75
28.00
24.48
20.25
15.48
10.41
5.34
0.58
-3.73
-7.64
-11.35
-15.20
-19.45
-24.19
-29.30
-34.35
-38.96
-42.79
-45.88
-48.74
-52.27
-57.36
-64.43
-73.04
-81.67
-88.23
-90.72
-88.05
-80.61
-70.09
-59.01
-49.79
-44.25
-43.04
-45.73
-50.67
-55.07
-54.94
-45.91
-24.49
10.28
55.67
105.55
152.06
188.15
209.86
216.92
212.09
199.22
181.62
161.47
140.18
119.14
99.92
83.86
71.29
61.29
51.96
41.58
29.54
16.70
4.72
-4.92
-11.60
-16.02
-19.53
-23.56
-28.96
-35.67
-42.74
-48.52
-51.05
-48.64
-40.54
-27.37
-11.14
5.27
19.17
28.92
34.40
36.64
37.16
37.14
37.04
36.76
35.95
34.29
31.60
27.87
23.25
18.10
13.00
8.65
5.59
3.94
3.27
2.79
1.77
-0.22
-3.02
-6.17
-9.14
-11.66
-13.83
-15.98
-18.39
-21.20
-24.31
-27.47
-30.46
-33.17
-35.60
-37.90
-40.29
-43.09
-46.76
-51.65
-57.87
-64.79
-70.98
-74.31
-72.59
-64.29
-49.36
-29.33
-7.05
14.24
31.87
44.35
51.62
54.70
55.08
54.18
52.99
52.03
51.41
50.93
50.31
49.20
47.37
44.74
41.39
37.60
33.77
30.31
27.61
25.81
24.77
24.03
22.83
20.38
15.95
9.21
0.26
-10.37
-21.93
-33.57
-44.77
-55.40
-65.78
-76.51
-88.21
-101.06
-114.69
-128.31
-140.96
-152.06
-161.72
-170.66
-179.72
-189.05
-197.68
-203.80
-205.37
-201.19
-191.30
-176.76
-158.75
-138.06
-115.02
-89.94
-63.91
-38.88
-16.99
0.40
13.44
23.66
32.87
42.10
50.99
58.09
61.97
62.14
59.39
55.36
51.72
49.48
48.68
48.71
48.78
48.42
47.54
46.34
45.04
43.54
41.30
37.57
31.69
23.51
13.55
2.97
-7.02
-15.52
-22.32
-28.03
-33.75
-40.70
-49.84
-61.47
-75.18
-89.67
-102.90
-112.46
-116.12
-112.55
-101.78
-85.31
-65.65
-45.48
-26.81
-10.35
4.29
18.12
31.98
45.98
59.44
71.23
80.36
86.46
89.76
90.98
90.84
89.87
88.31
86.18
83.60
80.70
77.53
74.13
70.31
65.93
60.86
55.10
48.68
41.53
33.49
24.30
13.85
2.24
-10.06
-22.35
-33.97
-44.45
-53.71
-62.06
-70.21
-79.11
-89.68
-102.60
-117.78
-133.99
-148.82
-159.04
-161.38
-153.68
-135.70
-109.48
-78.77
-47.77
-19.87
3.28
21.82
37.12
50.67
63.31
75.02
85.13
93.06
98.72
102.65
105.63
108.24
110.52
112.05
112.34
111.22
109.01
106.40
104.03
102.05
100.02
96.96
91.84
84.02
73.58
61.26
48.28
35.83
24.66
14.85
5.88
-3.13
-13.13
-24.91
-38.82
-54.76
-71.89
-88.49
-102.21
-110.47
-111.25
-103.78
-88.90
-68.65
-45.64
-22.26
-0.26
19.27
35.67
48.54
57.76
63.65
66.92
68.58
69.40
69.78
69.61
68.60
66.60
63.85
60.99
58.78
57.74
57.97
58.99
59.91
59.64
57.25
52.24
44.70
35.27
24.85
14.25
4.02
-5.85
-15.74
-26.39
-38.62
-53.02
-69.47
-86.72
-102.24
-112.63
-114.39
-105.33
-85.31
-56.71
-23.59
9.57
39.15
63.31
81.88
95.67
105.71
112.70
117.06
119.12
119.47
118.91
118.10
117.33
116.34
114.44
111.07
106.04
99.78
93.18
87.13
82.20
78.24
74.44
69.60
62.61
52.96
40.97
27.73
14.68
3.07
-6.59
-14.72
-22.43
-31.22
-42.40
-56.56
-73.15
-90.41
-105.56
-115.34
-116.96
-109.08
-92.34
-69.33
-43.76
-19.31
1.42
17.48
29.33
38.10
44.92
50.39
54.61
57.37
58.52
58.10
56.25
53.12
48.81
43.41
37.14
30.34
23.64
17.75
13.24
10.43
9.22
9.12
9.32
8.98
7.34
4.01
-1.00
-7.29
-14.26
-21.29
-28.06
-34.57
-41.32
-49.03
-58.47
-70.11
-83.70
-98.09
-111.23
-120.51
-123.52
-118.62
-105.63
-85.83
-61.72
-36.29
-12.17
8.88
26.19
40.00
50.99
59.88
67.09
72.79
76.91
79.35
80.11
79.40
77.61
75.26
72.84
70.76
69.12
67.89
66.85
65.79
64.58
63.10
61.25
58.80
55.34
50.48
43.92
35.71
26.28
16.28
6.40
-2.84
-11.26
-19.04
-26.69
-34.97
-44.59
-55.93
-68.68
-81.45
-91.96
-97.51
-95.90
-86.19
-69.25
-47.50
-24.06
-1.84
17.19
32.26
43.48
51.41
56.56
59.29
59.86
58.60
56.03
52.79
49.44
46.28
43.35
40.47
37.47
34.24
30.82
27.33
23.82
20.26
16.51
12.41
7.84
2.71
-2.94
-9.05
-15.47
-21.95
-28.14
-33.67
-38.25
-41.86
-44.82
-47.80
-51.57
-56.91
-64.36
-74.05
-85.44
-97.22
-107.39
-113.54
-113.52
-106.22
-91.95
-72.55
-50.77
-29.42
-10.51
5.16
17.91
28.60
38.10
46.87
54.87
61.80
67.30
71.15
73.31
73.83
72.88
70.70
67.66
64.24
61.05
58.51
56.90
56.10
55.70
55.01
53.36
50.25
45.49
39.27
32.10
24.65
17.43
10.69
4.27
-2.21
-9.19
-16.88
-25.19
-33.79
-42.34
-50.57
-58.39
-65.92
-73.42
-81.38
-90.39
-101.04
-113.46
-126.87
-139.38
-148.30
-150.80
-144.99
-130.65
-109.42
-84.15
-58.02
-33.52
-11.98
6.40
22.01
35.34
46.67
56.06
63.53
69.26
73.63
77.12
80.05
82.50
84.27
85.03
84.55
82.81
80.14
77.08
74.17
71.80
69.93
68.11
65.65
61.86
56.39
49.34
41.25
32.85
24.73
17.14
9.97
2.91
-4.32
-11.75
-19.10
-25.87
-31.58
-35.95
-39.04
-41.21
-43.09
-45.45
-49.03
-54.51
-62.14
-71.53
-81.37
-89.65
-93.95
-92.30
-83.88
-69.39
-50.90
-31.12
-12.53
3.32
15.97
25.77
33.48
39.81
45.21
50.00
54.40
58.59
62.69
66.71
70.43
73.46
75.43
76.15
75.70
74.48
72.96
71.62
70.75
70.35
70.16
69.70
68.36
65.51
60.69
53.86
45.43
36.20
27.03
18.54
10.80
3.47
-4.05
-12.21
-21.16
-30.73
-40.53
-50.14
-59.20
-67.44
-74.72
-81.05
-86.72
-92.20
-98.10
-104.81
-112.16
-119.13
-123.99
-124.74
-119.79
-108.57
-91.91
-71.85
-51.02
-31.84
-15.90
-3.68
5.26
11.85
16.96
21.15
24.60
27.21
28.83
29.49
29.40
28.88
28.22
27.55
26.81
25.85
24.57
23.09
21.58
20.25
19.14
18.00
16.41
13.88
10.22
5.51
0.17
-5.20
-9.99
-13.78
-16.47
-18.28
-19.69
-21.42
-24.20
-28.78
-35.59
-44.65
-55.32
-66.24
-75.55
-81.25
-81.80
-76.60
-66.25
-52.40
-37.18
-22.62
-10.11
-0.16
7.47
13.29
17.85
21.51
24.40
26.56
28.09
29.16
29.91
30.37
30.51
30.23
29.52
28.49
27.47
26.71
26.31
26.13
25.76
24.78
22.83
19.82
15.81
10.97
5.45
-0.59
-7.01
-13.59
-20.07
-26.21
-31.82
-36.88
-41.39
-45.40
-49.06
-52.59
-56.47
-61.31
-67.62
-75.42
-83.80
-90.96
-94.57
-92.52
-83.82
-68.96
-49.83
-28.99
-8.87
8.94
23.96
36.46
47.05
56.25
64.27
71.11
76.68
80.93
83.83
85.36
85.47
84.16
81.56
77.94
73.69
69.30
64.98
60.83
56.69
52.32
47.56
42.37
36.82
31.10
25.42
19.96
14.88
10.18
5.69
1.06
-4.16
-10.31
-17.41
-25.07
-32.66
-39.47
-45.13
-49.82
-54.31
-59.56
-66.37
-74.87
-84.22
-92.62
-97.77
-97.58
-90.92
-78.11
-60.91
-42.00
-24.08
-9.15
1.92
9.45
14.47
18.13
21.33
24.42
27.33
29.78
31.49
32.33
32.38
31.78
30.78
29.65
28.69
28.10
28.05
28.49
29.10
29.36
28.73
26.80
23.47
19.08
14.21
9.39
4.97
0.98
-2.82
-6.73
-10.94
-15.40
-19.85
-23.98
-27.48
-30.34
-32.80
-35.41
-38.99
-44.32
-51.83
-61.24
-71.36
-80.09
-85.01
-84.04
-76.19
-62.00
-43.43
-23.18
-3.88
12.59
25.46
34.94
41.76
46.71
50.47
53.44
55.77
57.46
58.38
58.25
56.81
53.90
49.66
44.52
39.15
34.27
30.40
27.72
25.97
24.53
22.65
19.65
15.24
9.63
3.48
-2.36
-7.18
-10.65
-13.03
-14.99
-17.37
-20.89
-25.85
-32.07
-38.96
-45.74
-51.79
-56.97
-61.76
-67.18
-74.45
-84.55
-97.59
-112.62
-127.52
-139.49
-145.82
-144.76
-136.15
-121.67
-104.18
-86.85
-71.82
-59.50
-48.51
-36.31
-20.36
0.85
27.19
56.95
87.30
115.10
137.62
153.24
161.81
164.48
163.23
160.21
156.94
154.07
151.42
148.27
144.04
138.43
131.54
123.71
115.51
107.52
100.44
94.94
91.51
90.12
90.15
90.47
89.74
86.85
81.23
72.86
62.21
49.86
36.46
22.56
8.56
-5.26
-18.79
-32.15
-45.56
-59.22
-73.13
-87.01
-100.29
-112.04
-120.97
-125.57
-124.44
-116.96
-103.80
-87.03
-69.48
-53.61
-40.61
-30.18
-21.09
-12.14
-2.75
6.85
15.92
23.34
27.87
28.32
24.01
15.33
4.15
-6.47
-13.44
-14.95
-11.34
-4.81
1.77
6.33
8.36
8.60
8.15
7.66
6.95
5.55
3.20
0.22
-2.68
-4.75
-5.72
-6.01
-6.53
-8.36
-12.25
-18.35
-26.10
-34.46
-42.24
-48.54
-53.03
-55.90
-57.86
-59.77
-62.51
-66.73
-72.73
-80.37
-88.93
-97.08
-103.02
-104.89
-101.27
-91.77
-77.27
-59.65
-41.20
-23.99
-9.32
2.44
11.59
18.79
24.76
30.08
35.10
39.94
44.52
48.57
51.67
53.50
53.94
53.20
51.75
50.19
48.95
48.14
47.52
46.68
45.01
42.09
37.69
31.92
25.19
18.11
11.30
5.26
0.11
-4.33
-8.45
-12.62
-17.05
-21.73
-26.45
-30.98
-35.28
-39.53
-44.12
-49.55
-56.22
-64.19
-72.92
-81.23
-87.49
-89.93
-87.30
-79.28
-66.75
-51.43
-35.45
-20.60
-7.88
2.49
10.92
18.01
24.27
29.93
35.02
39.50
43.28
46.30
48.52
49.91
50.52
50.44
49.87
48.96
47.85
46.55
45.03
43.15
40.78
37.77
34.04
29.53
24.22
18.18
11.52
4.47
-2.79
-10.01
-17.07
-23.98
-30.83
-37.73
-44.75
-51.93
-59.30
-67.02
-75.39
-84.66
-94.74
-104.90
-113.69
-119.24
-119.81
-114.55
-103.86
-89.34
-73.23
-57.72
-44.30
-33.52
-25.04
-18.04
-11.48
-4.52
3.45
12.69
23.10
34.29
45.57
56.11
65.08
72.02
76.94
80.45
83.55
87.16
91.65
96.78
101.63
105.23
106.79
106.08
103.22
98.33
91.45
82.41
71.21
58.15
44.13
30.31
17.87
7.55
-0.43
-6.56
-11.69
-16.84
-22.87
-30.18
-38.55
-47.03
-54.03
-57.68
-56.36
-49.14
-36.13
-18.47
2.00
23.29
43.63
61.75
76.78
88.20
95.68
99.19
99.12
96.31
91.85
86.74
81.58
76.36
70.74
64.37
57.22
49.68
42.47
36.33
31.73
28.66
26.75
25.37
23.80
21.50
18.18
13.81
8.57
2.69
-3.62
-10.26
-17.20
-24.37
-31.66
-38.85
-45.69
-52.00
-57.64
-62.65
-67.23
-71.68
-76.37
-81.62
-87.58
-94.05
-100.56
-106.26
-110.06
-110.80
-107.46
-99.52
-87.17
-71.44
-54.00
-36.65
-20.85
-7.20
4.49
14.99
25.07
35.06
44.70
53.25
59.98
64.45
66.78
67.61
67.79
68.15
69.13
70.69
72.23
72.67
70.80
65.54
56.27
43.00
26.33
7.29
-12.84
-32.84
-51.46
-67.67
-80.56
-89.47
-94.19
-94.99
-92.66
-88.38
-83.47
-79.12
-76.17
-75.11
-76.00
-78.57
-82.11
-85.53
-87.33
-85.94
-80.11
-69.42
-54.52
-37.09
-19.21
-2.77
11.10
22.18
30.90
38.01
44.19
49.79
54.93
59.44
63.16
65.95
67.80
68.82
69.23
69.31
69.38
69.75
70.61
71.92
73.34
74.24
73.86
71.70
67.67
62.15
55.85
49.43
43.11
36.64
29.38
20.68
10.11
-2.22
-15.74
-29.66
-43.16
-55.66
-66.88
-76.87
-85.83
-94.11
-102.06
-109.71
-116.66
-121.87
-123.90
-121.28
-113.16
-99.70
-82.20
-62.69
-43.30
-25.55
-10.16
3.01
14.47
24.86
34.56
43.72
52.23
59.87
66.36
71.46
74.97
76.92
77.54
77.21
76.41
75.53
74.83
74.34
73.95
73.47
72.60
71.00
68.37
64.56
59.70
54.16
48.49
43.20
38.57
34.55
30.75
26.62
21.66
15.63
8.62
1.08
-6.41
-13.38
-19.65
-25.51
-31.61
-38.78
-47.74
-58.74
-71.29
-84.14
-95.43
-103.11
-105.48
-101.73
-92.23
-78.54
-62.88
-47.51
-34.05
-23.27
-15.04
-8.68
-3.36
1.59
6.54
11.50
16.25
20.35
23.39
25.09
25.46
24.90
24.08
23.70
24.29
25.91
28.25
30.54
32.00
32.00
30.22
26.81
22.22
16.99
11.57
6.13
0.61
-5.24
-11.60
-18.43
-25.43
-32.09
-37.87
-42.42
-45.68
-48.01
-49.98
-52.36
-55.87
-60.94
-67.43
-74.44
-80.32
-83.09
-81.01
-73.34
-60.59
-44.57
-27.64
-12.00
1.02
11.16
19.02
25.53
31.42
36.91
41.78
45.60
48.00
48.86
48.21
46.32
43.57
40.43
37.46
35.22
34.19
34.52
36.03
38.20
40.25
41.42
41.19
39.42
36.40
32.68
28.89
25.40
22.19
18.82
14.55
8.81
1.43
-7.16
-16.11
-24.46
-31.55
-37.26
-42.00
-46.64
-52.15
-59.22
-68.01
-77.81
-87.11
-93.83
-95.99
-92.30
-82.75
-68.51
-51.74
-34.70
-19.17
-5.93
5.12
14.60
23.22
31.36
38.98
45.78
51.29
55.17
57.23
57.44
55.94
52.99
48.99
44.61
40.52
37.40
35.66
35.34
36.07
37.18
38.00
38.00
36.87
34.59
31.27
27.23
22.72
18.06
13.38
8.71
3.92
-1.19
-6.75
-12.69
-18.75
-24.47
-29.43
-33.40
-36.52
-39.31
-42.62
-47.32
-54.03
-62.72
-72.59
-81.92
-88.61
-90.70
-87.05
-77.81
-64.37
-48.87
-33.52
-19.88
-8.52
0.87
9.04
16.71
24.25
31.59
38.37
44.11
48.52
51.47
53.06
53.62
53.50
53.03
52.42
51.77
51.11
50.43
49.73
49.01
48.18
47.00
45.18
42.43
38.67
34.07
29.06
24.16
19.70
15.72
11.96
7.99
3.42
-1.82
-7.52
-13.25
-18.48
-22.85
-26.28
-29.10
-31.96
-35.77
-41.33
-49.06
-58.61
-68.86
-77.99
-83.95
-85.01
-80.36
-70.31
-56.30
-40.46
-24.94
-11.38
-0.54
7.70
13.98
19.13
23.84
28.52
33.34
38.27
43.09
47.49
51.10
53.65
54.94
54.90
53.60
51.25
48.12
44.63
41.20
38.22
35.79
33.75
31.70
29.19
25.93
22.03
17.93
14.20
11.28
9.22
7.65
5.89
3.26
-0.66
-5.85
-11.98
-18.55
-25.15
-31.62
-38.02
-44.58
-51.54
-59.13
-67.43
-76.18
-84.68
-91.77
-95.90
-95.55
-89.84
-78.94
-64.12
-47.38
-30.86
-16.17
-3.96
6.01
14.47
22.19
29.63
36.88
43.65
49.61
54.47
58.11
60.57
61.98
62.60
62.67
62.56
62.53
62.84
63.54
64.52
65.42
65.77
65.12
63.14
59.76
55.11
49.55
43.55
37.55
31.90
26.73
21.98
17.37
12.57
7.29
1.38
-5.05
-11.67
-18.04
-23.73
-28.54
-32.60
-36.40
-40.65
-46.18
-53.60
-63.09
-74.23
-85.86
-96.29
-103.53
-105.74
-101.99
-92.40
-78.32
-61.86
-45.24
-30.13
-17.21
-6.24
3.52
12.84
22.10
31.17
39.52
46.55
51.91
55.48
57.44
58.08
57.74
56.67
55.04
53.06
50.94
48.88
47.04
45.44
43.90
42.10
39.71
36.57
32.75
28.70
25.02
22.19
20.35
19.11
17.75
15.39
11.46
5.88
-0.97
-8.40
-15.76
-22.59
-28.78
-34.53
-40.14
-45.99
-52.46
-59.72
-67.60
-75.41
-81.93
-85.54
-84.76
-78.84
-68.16
-54.25
-39.26
-25.30
-13.67
-4.65
2.37
8.41
14.33
20.54
27.04
33.63
40.18
46.68
53.12
59.45
65.44
70.81
75.39
79.20
82.50
85.58
88.60
91.58
94.34
96.59
97.98
98.18
96.74
93.27
87.45
79.28
69.16
57.95
46.65
36.14
26.85
18.65
11.01
3.30
-4.89
-13.58
-22.30
-30.35
-37.06
-42.06
-45.43
-47.65
-49.57
-52.06
-55.77
-60.93
-67.11
-73.09
-77.07
-77.12
-71.84
-60.88
-45.20
-26.63
-7.44
10.58
26.45
40.02
51.69
62.06
71.55
80.35
88.44
95.71
102.05
107.42
111.92
115.78
119.32
122.78
126.09
128.70
129.62
127.70
121.93
111.96
98.23
81.89
64.40
47.11
30.92
16.22
3.15
-8.28
-18.00
-26.08
-32.91
-39.46
-47.04
-56.91
-69.78
-85.40
-102.62
-119.79
-135.40
-148.54
-159.11
-167.70
-175.24
-182.71
-190.81
-199.93
-210.11
-220.80
-230.79
-238.09
-240.29
-235.16
-221.53
-199.95
-172.73
-143.30
-115.12
-90.65
-70.86
-55.24
-42.46
-31.07
-19.97
-8.62
2.94
14.41
25.24
35.00
43.42
50.56
56.70
62.13
67.05
71.54
75.77
80.17
85.51
92.24
99.84
106.50
109.52
106.29
95.40
77.46
54.53
29.32
4.29
-18.79
-38.67
-54.06
-63.47
-65.60
-60.34
-49.49
-36.71
-26.32
-21.85
-24.57
-33.32
-45.18
-57.02
-66.77
-74.08
-80.02
-86.19
-93.60
-101.95
-109.77
-114.90
-115.41
-110.38
-100.04
-85.77
-69.47
-53.22
-38.51
-26.19
-16.41
-8.82
-2.87
2.01
6.32
10.39
14.36
18.14
21.45
23.95
25.46
26.06
26.16
26.33
27.21
29.26
32.63
37.07
42.09
47.08
51.49
54.92
57.12
58.03
57.62
56.01
53.42
50.19
46.66
43.12
39.66
36.13
32.03
26.74
19.68
10.44
-0.90
-13.81
-27.35
-40.37
-51.96
-61.62
-69.49
-76.31
-83.20
-91.24
-101.16
-112.89
-125.53
-137.29
-145.91
-149.26
-145.73
-134.68
-116.57
-92.52
-63.79
-31.20
5.02
45.01
88.37
133.44
177.06
215.27
244.46
262.62
270.03
268.90
262.28
252.88
242.22
230.81
218.56
205.52
192.25
179.63
168.40
158.84
150.59
142.99
135.21
126.61
116.95
106.34
95.20
84.16
73.93
65.11
57.92
52.05
46.74
40.99
34.02
25.63
16.29
6.80
-2.06
-10.12
-17.85
-26.16
-35.91
-47.37
-59.91
-72.07
-82.02
-88.22
-89.76
-86.71
-79.92
-70.74
-60.60
-50.65
-41.62
-33.77
-27.03
-21.17
-15.98
-11.45
-7.79
-5.18
-3.66
-2.98
-2.77
-2.66
-2.65
-3.29
-5.33
-9.36
-15.29
-22.25
-28.85
-33.69
-36.04
-36.25
-35.70
-36.15
-39.15
-45.46
-54.68
-65.40
-75.76
-83.89
-88.31
-88.22
-83.92
-77.11
-70.70
-68.09
-71.77
-82.01
-96.32
-110.33
-119.70
-122.25
-119.11
-114.14
-112.06
-116.22
-127.32
-143.24
-160.27
-174.45
-182.63
-182.78
-174.02
-156.45
-131.32
-100.90
-68.28
-36.85
-9.53
11.92
27.20
37.36
44.30
49.98
55.92
62.77
70.21
77.40
83.35
87.48
89.80
90.92
91.72
92.96
94.78
96.68
97.66
96.67
93.03
86.75
78.57
69.55
60.56
52.00
43.67
35.07
25.76
15.79
5.70
-3.74
-11.84
-18.31
-23.41
-27.92
-32.78
-39.06
-47.59
-58.81
-72.37
-86.84
-99.72
-107.93
-108.62
-100.16
-82.80
-58.60
-30.80
-2.84
22.48
43.57
59.92
71.80
79.87
84.84
87.34
87.88
86.96
85.09
82.86
80.87
79.62
79.41
80.25
81.89
83.86
85.68
86.84
86.91
85.49
82.38
77.50
71.13
63.85
56.39
49.36
43.07
37.41
31.88
25.86
18.94
11.08
2.67
-5.62
-13.22
-19.95
-26.17
-32.68
-40.42
-49.94
-61.03
-72.52
-82.27
-87.71
-86.55
-77.47
-60.80
-38.49
-13.51
10.88
32.11
48.73
60.58
68.51
73.82
77.84
81.51
85.15
88.52
91.10
92.33
92.00
90.28
87.58
84.22
80.39
76.06
71.24
66.13
61.12
56.42
51.87
46.81
40.40
32.07
21.97
10.99
0.47
-8.35
-14.90
-19.41
-22.80
-26.05
-29.90
-34.59
-39.79
-45.00
-49.80
-54.16
-58.57
-63.90
-71.07
-80.66
-92.60
-105.85
-118.58
-128.45
-133.16
-131.06
-121.67
-105.89
-85.69
-63.57
-41.97
-22.65
-6.40
6.86
17.82
27.34
36.17
44.60
52.46
59.27
64.31
67.08
67.53
66.20
64.04
62.12
61.31
61.92
63.68
65.92
67.87
68.86
68.44
66.44
62.90
58.03
52.12
45.57
38.76
31.80
24.54
16.62
7.68
-2.33
-13.01
-23.58
-33.23
-41.47
-48.34
-54.47
-60.86
-68.39
-77.34
-87.05
-95.91
-101.63
-101.99
-95.67
-82.73
-64.60
-43.66
-22.44
-2.86
14.01
27.93
39.21
48.25
55.52
61.36
66.00
69.70
72.51
74.41
75.29
74.98
73.43
70.73
67.25
63.52
60.10
57.37
55.40
53.83
51.96
49.13
44.84
39.01
32.01
24.48
17.20
10.89
5.93
2.43
-0.02
-2.08
-4.61
-8.25
-13.27
-19.48
-26.26
-32.97
-39.13
-44.59
-49.67
-54.98
-61.32
-69.34
-79.41
-91.26
-103.78
-115.09
-122.88
-124.98
-120.12
-108.43
-91.48
-71.85
-52.28
-34.93
-20.77
-9.58
-0.38
8.07
16.63
25.53
34.41
42.48
48.94
53.24
55.26
55.28
53.91
51.84
49.70
47.99
47.04
46.95
47.62
48.74
49.78
50.12
49.39
47.46
44.59
41.22
37.74
34.19
30.35
25.87
20.57
14.55
8.31
2.40
-2.77
-7.11
-10.87
-14.40
-18.03
-21.89
-25.87
-29.79
-33.44
-36.90
-40.52
-44.93
-50.88
-59.01
-69.58
-82.28
-96.01
-108.91
-118.62
-122.76
-119.52
-108.21
-89.52
-65.37
-38.33
-11.01
14.58
37.32
56.97
73.77
88.07
100.06
109.67
116.75
121.14
122.95
122.49
120.22
116.60
112.03
106.92
101.68
96.69
92.35
88.78
85.76
82.78
79.08
74.01
67.23
58.85
49.46
39.91
31.07
23.45
17.10
11.56
6.08
-0.08
-7.29
-15.35
-23.58
-31.08
-37.18
-41.77
-45.35
-48.95
-53.73
-60.61
-69.81
-80.85
-92.40
-102.56
-109.17
-110.42
-105.33
-94.13
-78.29
-60.12
-42.02
-25.83
-12.36
-1.53
7.25
14.62
21.04
26.57
31.11
34.47
36.54
37.32
36.92
35.69
34.03
32.25
30.52
28.73
26.66
24.10
21.07
17.87
14.77
11.98
9.43
6.83
3.90
0.56
-3.03
-6.64
-10.07
-13.28
-16.43
-19.75
-23.37
-27.36
-31.63
-36.06
-40.49
-44.72
-48.58
-51.96
-54.97
-57.94
-61.40
-65.98
-72.00
-79.39
-87.43
-94.86
-100.12
-101.68
-98.51
-90.34
-77.88
-62.56
-46.15
-30.31
-16.17
-4.22
5.52
13.46
20.09
25.87
31.09
35.84
40.05
43.57
46.21
48.01
48.98
49.24
48.81
47.70
45.90
43.48
40.69
37.83
35.17
32.82
30.72
28.64
26.26
23.28
19.48
14.91
9.91
5.02
0.83
-2.35
-4.61
-6.50
-8.83
-12.28
-17.14
-23.17
-29.80
-36.29
-42.16
-47.30
-52.07
-57.10
-63.14
-70.71
-79.89
-89.98
-99.48
-106.37
-108.47
-104.27
-93.39
-76.90
-56.98
-36.37
-17.48
-1.86
10.10
18.96
25.71
31.31
36.34
40.87
44.73
47.66
49.47
50.14
49.73
48.41
46.47
44.26
42.22
40.74
39.98
39.87
39.99
39.78
38.67
36.24
32.33
27.08
20.91
14.49
8.53
3.66
0.16
-2.19
-3.96
-5.96
-8.86
-13.01
-18.35
-24.46
-30.72
-36.49
-41.37
-45.34
-48.83
-52.59
-57.55
-64.48
-73.70
-84.83
-96.80
-107.90
-116.09
-119.42
-116.57
-107.31
-92.65
-74.64
-55.73
-38.12
-23.15
-11.15
-1.72
6.00
12.78
19.16
25.42
31.55
37.45
42.90
47.70
51.72
54.97
57.55
59.62
61.23
62.28
62.69
62.42
61.62
60.53
59.31
57.93
56.09
53.41
49.66
44.87
39.39
33.81
28.60
24.01
19.89
15.78
11.17
5.71
-0.65
-7.65
-14.95
-22.19
-29.26
-36.21
-43.22
-50.57
-58.57
-67.58
-77.82
-89.13
-100.58
-110.46
-116.52
-116.64
-109.67
-95.86
-76.88
-55.31
-33.79
-14.30
2.17
15.58
26.49
35.64
43.53
50.37
56.06
60.41
63.15
64.21
63.75
62.16
60.01
57.98
56.69
56.50
57.51
59.40
61.58
63.21
63.42
61.47
56.89
49.68
40.29
29.59
18.64
8.38
-0.59
-8.18
-14.71
-20.58
-26.07
-31.22
-35.84
-39.71
-42.81
-45.40
-48.11
-51.68
-56.83
-63.89
-72.42
-81.05
-87.67
-89.91
-86.12
-75.96
-60.68
-42.75
-24.94
-9.41
2.94
12.39
19.97
26.79
33.57
40.47
47.21
53.29
58.22
61.74
63.80
64.52
64.15
62.96
61.20
59.25
57.61
56.72
56.89
57.93
59.18
59.64
58.42
55.08
49.86
43.59
37.29
31.77
27.37
23.87
20.68
16.97
12.10
5.73
-2.02
-10.65
-19.38
-27.61
-35.03
-41.85
-48.59
-56.00
-64.70
-75.01
-86.73
-99.01
-110.33
-118.76
-122.30
-119.64
-110.56
-96.17
-78.55
-60.19
-43.13
-28.56
-16.69
-7.09
1.01
8.26
15.03
21.21
26.41
29.99
31.25
29.79
25.63
19.29
11.75
4.10
-2.73
-8.32
-12.89
-17.16
-22.20
-29.15
-38.88
-51.74
-67.18
-83.33
-96.99
-104.19
-101.20
-86.07
-59.56
-25.16
11.80
46.09
74.03
94.35
107.79
116.15
121.11
123.55
123.64
121.20
116.16
108.80
99.59
88.93
76.98
63.73
49.19
33.89
18.96
6.08
-2.95
-6.90
-5.72
-0.48
6.91
14.50
20.98
26.01
30.05
33.80
37.75
41.95
46.01
49.47
51.93
53.34
53.78
53.46
52.68
51.85
51.44
51.94
53.65
56.59
60.28
63.98
66.83
68.01
67.06
64.06
59.83
55.67
53.15
53.51
57.08
62.93
69.09
73.29
73.74
69.84
62.19
52.09
40.81
29.03
16.71
3.46
-11.09
-26.84
-43.14
-58.89
-72.75
-83.42
-89.91
-91.71
-88.88
-81.93
-71.81
-59.61
-46.43
-33.16
-20.50
-8.87
1.52
10.71
18.84
26.14
32.78
38.84
44.17
48.45
51.32
52.47
51.79
49.44
45.85
41.57
37.08
32.56
27.91
22.92
17.42
11.50
5.45
-0.28
-5.35
-9.66
-13.34
-16.67
-19.88
-23.05
-26.14
-29.00
-31.47
-33.36
-34.63
-35.31
-35.66
-36.28
-38.02
-41.88
-48.58
-58.09
-69.30
-80.10
-87.82
-90.16
-86.04
-76.04
-62.10
-46.87
-32.69
-20.90
-11.68
-4.33
2.09
8.30
14.51
20.56
26.08
30.74
34.39
37.01
38.69
39.54
39.63
39.06
37.94
36.42
34.77
33.22
32.05
31.50
31.74
32.81
34.53
36.23
36.83
35.02
29.67
20.37
7.73
-6.54
-19.98
-30.03
-34.72
-33.40
-27.11
-18.39
-10.70
-7.15
-9.43
-17.18
-28.11
-39.00
-47.04
-50.93
-51.19
-49.63
-48.47
-49.44
-53.22
-59.42
-66.80
-73.64
-78.08
-78.58
-74.22
-64.89
-51.35
-35.10
-17.96
-1.75
12.02
22.48
29.53
33.84
36.54
38.89
41.76
45.37
49.22
52.41
54.14
53.98
52.01
48.80
45.11
41.66
38.92
37.05
35.95
35.30
34.79
34.21
33.42
32.40
31.07
29.44
27.55
25.58
23.75
22.16
20.66
18.73
15.82
11.57
6.02
-0.32
-6.73
-12.67
-17.92
-22.56
-26.82
-30.99
-35.30
-40.06
-45.62
-52.11
-59.24
-66.08
-71.17
-73.07
-70.74
-64.05
-53.76
-41.24
-28.03
-15.42
-4.28
4.99
12.26
17.46
20.61
21.74
21.04
18.83
15.57
11.74
7.76
3.93
0.42
-2.61
-5.07
-6.83
-7.78
-7.89
-7.27
-6.20
-5.08
-4.39
-4.58
-5.99
-8.70
-12.53
-17.11
-21.97
-26.67
-30.94
-34.76
-38.25
-41.69
-45.33
-49.35
-53.82
-58.67
-63.72
-68.84
-74.01
-79.40
-85.46
-92.64
-101.29
-111.23
-121.56
-130.67
-136.58
-137.60
-133.02
-123.47
-110.85
-97.71
-86.45
-78.55
-74.29
-73.05
-73.66
-75.01
-76.42
-77.66
-78.77
-79.81
-80.75
-81.17
-80.17
-76.54
-68.97
-56.56
-39.24
-18.03
5.25
28.48
50.03
69.22
86.23
101.80
116.51
130.21
141.64
148.44
147.37
135.25
110.14
72.92
28.19
-16.22
-51.08
-68.60
-64.83
-40.57
-0.72
47.54
96.56
139.63
171.62
189.17
191.00
177.96
153.04
120.99
87.54
58.36
38.02
29.10
31.63
43.08
58.94
74.03
84.18
87.48
84.82
79.22
74.44
73.45
77.24
84.51
92.27
96.97
95.81
87.85
74.42
58.52
43.48
31.59
23.29
17.39
12.22
6.65
0.79
-4.44
-8.23
-10.59
-12.68
-16.03
-21.68
-29.37
-37.58
-44.24
-47.72
-47.66
-44.99
-41.47
-38.89
-38.36
-40.15
-43.83
-48.55
-53.37
-57.33
-59.53
-59.17
-55.78
-49.42
-40.65
-30.52
-20.18
-10.64
-2.53
3.91
8.69
12.02
14.18
15.45
16.11
16.35
16.26
15.84
15.03
13.86
12.45
10.99
9.75
8.88
8.60
9.07
10.41
12.74
15.94
19.70
23.42
26.31
27.59
26.67
23.33
17.82
10.82
3.16
-4.37
-11.36
-17.88
-24.40
-31.53
-39.80
-49.31
-59.66
-69.87
-78.58
-84.25
-85.62
-82.02
-73.72
-61.91
-48.33
-34.84
-22.86
-13.07
-5.40
0.57
5.50
9.93
14.24
18.51
22.68
26.43
29.35
30.99
31.13
29.92
27.90
25.88
24.63
24.66
26.05
28.42
31.19
33.78
35.75
36.89
37.14
36.42
34.62
31.54
27.05
21.18
14.25
6.82
-0.56
-7.54
-14.13
-20.68
-27.71
-35.72
-44.88
-55.08
-65.77
-76.03
-84.62
-90.17
-91.43
-87.60
-78.72
-65.76
-50.38
-34.56
-19.99
-7.76
1.86
9.20
15.00
20.10
25.19
30.50
35.88
40.74
44.33
45.99
45.46
42.93
39.00
34.46
29.98
26.01
22.72
20.05
17.93
16.32
15.21
14.58
14.24
13.85
12.96
11.23
8.60
5.30
1.75
-1.64
-4.64
-7.37
-10.13
-13.30
-17.25
-22.33
-28.78
-36.71
-45.93
-55.78
-65.02
-72.14
-75.62
-74.57
-68.98
-59.80
-48.65
-37.24
-26.78
-17.80
-10.10
-3.05
4.00
11.32
18.73
25.82
32.03
37.00
40.60
42.91
44.05
44.19
43.51
42.20
40.59
39.04
37.84
37.10
36.77
36.57
36.18
35.29
33.73
31.43
28.53
25.19
21.60
17.82
13.85
9.61
5.12
0.49
-4.10
-8.45
-12.40
-15.98
-19.33
-22.81
-26.85
-31.91
-38.24
-45.62
-53.32
-60.15
-64.71
-65.91
-63.21
-56.91
-47.92
-37.51
-26.88
-16.89
-8.03
-0.32
6.43
12.57
18.47
24.32
30.19
35.87
40.98
45.14
48.08
49.81
50.57
50.70
50.56
50.38
50.29
50.20
49.97
49.35
48.06
45.90
42.81
38.80
33.93
28.20
21.67
14.39
6.62
-1.12
-8.21
-14.05
-18.31
-21.07
-22.83
-24.36
-26.49
-29.80
-34.49
-40.31
-46.50
-51.93
-55.46
-56.10
-53.36
-47.44
-39.12
-29.57
-19.92
-11.03
-3.26
3.50
9.54
15.15
20.46
25.46
30.03
33.98
37.14
39.27
40.12
39.67
38.09
35.80
33.37
31.18
29.33
27.60
25.61
23.14
20.19
17.04
14.05
11.48
9.23
7.06
4.56
1.49
-2.23
-6.45
-10.80
-14.98
-18.75
-21.97
-24.68
-27.02
-29.21
-31.57
-34.45
-38.17
-42.79
-47.92
-52.71
-55.87
-56.17
-52.89
-46.09
-36.68
-26.12
-15.91
-7.14
-0.29
4.80
8.57
11.54
14.07
16.32
18.25
19.66
20.37
20.26
19.32
17.73
15.82
14.02
12.80
12.62
13.69
15.99
19.16
22.55
25.38
26.99
27.04
25.61
23.13
20.28
17.60
15.35
13.44
11.53
9.18
6.10
2.32
-1.94
-6.31
-10.41
-14.09
-17.49
-21.04
-25.32
-30.74
-37.31
-44.37
-50.71
-54.87
-55.59
-52.34
-45.46
-36.06
-25.64
-15.50
-6.59
0.78
6.61
11.18
14.76
17.60
19.94
21.91
23.60
24.98
25.97
26.58
26.85
26.94
27.09
27.34
27.74
28.17
28.46
28.43
27.92
26.74
24.80
22.02
18.45
14.23
9.59
4.91
0.61
-3.03
-5.81
-7.79
-9.27
-10.66
-12.37
-14.60
-17.24
-19.94
-22.23
-23.79
-24.60
-24.99
-25.57
-26.97
-29.72
-34.01
-39.61
-45.86
-51.72
-55.96
-57.48
-55.60
-50.31
-42.32
-32.89
-23.40
-15.04
-8.50
-3.94
-0.97
1.18
3.36
6.28
10.26
15.18
20.49
25.46
29.47
32.10
33.23
33.00
31.74
29.89
27.96
26.29
25.07
24.20
23.38
22.24
20.59
18.55
16.43
14.60
13.36
12.80
12.77
13.01
13.22
13.17
12.75
11.94
10.86
9.63
8.39
7.14
5.77
4.14
2.04
-0.71
-4.20
-8.34
-12.90
-17.47
-21.69
-25.47
-29.05
-33.06
-38.13
-44.49
-51.66
-58.38
-62.95
-63.86
-60.32
-52.65
-42.11
-30.36
-19.01
-9.12
-1.15
4.99
9.62
13.14
15.95
18.36
20.59
22.81
25.02
27.07
28.68
29.50
29.30
28.10
26.15
23.90
21.88
20.49
19.79
19.62
19.57
19.31
18.57
17.35
15.79
14.06
12.30
10.52
8.62
6.51
4.11
1.54
-1.09
-3.66
-6.18
-8.83
-11.76
-14.99
-18.21
-20.91
-22.59
-22.96
-22.17
-20.74
-19.43
-18.91
-19.63
-21.76
-25.22
-29.52
-33.86
-37.16
-38.28
-36.38
-31.26
-23.51
-14.33
-5.11
3.06
9.50
14.17
17.34
19.33
20.40
20.68
20.18
18.98
17.25
15.27
13.37
11.80
10.65
9.83
9.11
8.32
7.49
6.77
6.32
6.27
6.62
7.19
7.72
7.96
7.67
6.69
4.96
2.67
0.10
-2.37
-4.54
-6.38
-8.13
-10.03
-12.18
-14.37
-16.26
-17.54
-18.22
-18.71
-19.68
-21.79
-25.50
-30.74
-37.03
-43.44
-48.87
-52.25
-52.75
-50.04
-44.34
-36.39
-27.19
-17.83
-9.13
-1.63
4.51
9.39
13.23
16.29
18.81
20.99
22.96
24.82
26.51
27.96
29.05
29.63
29.70
29.39
28.90
28.47
28.21
28.16
28.21
28.22
28.05
27.55
26.45
24.47
21.41
17.27
12.33
7.12
2.22
-1.99
-5.41
-8.25
-10.87
-13.51
-16.24
-18.95
-21.39
-23.48
-25.39
-27.52
-30.56
-35.24
-42.05
-51.01
-61.39
-71.71
-80.00
-84.41
-83.65
-77.50
-66.83
-53.29
-38.72
-24.70
-12.23
-1.69
6.96
13.99
19.62
24.15
27.80
30.80
33.30
35.25
36.48
36.73
35.85
33.99
31.58
29.29
27.74
27.34
28.16
29.92
32.17
34.39
36.10
36.97
36.86
35.70
33.62
30.85
27.69
24.40
21.10
17.74
14.10
9.83
4.60
-1.68
-8.90
-16.65
-24.33
-31.39
-37.41
-42.36
-46.58
-50.69
-55.44
-61.35
-68.36
-75.72
-81.93
-85.24
-84.15
-78.00
-67.22
-53.18
-37.83
-23.06
-10.27
-0.12
7.46
13.03
17.48
21.76
26.52
32.02
38.08
44.09
49.33
53.13
55.24
55.77
55.15
53.98
52.83
52.00
51.49
51.08
50.47
49.43
47.92
46.00
43.79
41.37
38.70
35.75
32.49
29.04
25.68
22.63
19.99
17.60
15.08
12.01
8.02
2.93
-3.15
-9.96
-17.16
-24.39
-31.42
-38.14
-44.55
-50.78
-57.09
-63.87
-71.50
-80.03
-89.00
-97.16
-102.75
-103.94
-99.50
-89.28
-74.40
-56.90
-39.02
-22.61
-8.66
2.63
11.73
19.34
26.15
32.64
39.00
45.25
51.23
56.71
61.50
65.45
68.45
70.37
71.08
70.54
68.93
66.65
64.29
62.35
60.92
59.71
58.12
55.55
51.74
46.96
41.81
37.06
33.27
30.58
28.66
26.87
24.54
21.09
16.27
10.16
3.11
-4.44
-11.99
-19.28
-26.15
-32.81
-39.68
-47.34
-56.27
-66.52
-77.53
-87.96
-96.04
-100.02
-98.76
-92.18
-81.24
-67.73
-53.60
-40.25
-28.23
-17.28
-6.74
4.04
15.29
26.71
37.68
47.55
55.88
62.48
67.53
71.30
74.14
76.23
77.70
78.58
78.92
78.79
78.39
77.86
77.23
76.36
74.89
72.41
68.65
63.71
57.98
52.02
46.19
40.45
34.23
26.57
16.63
3.99
-11.09
-27.75
-44.82
-61.32
-76.81
-91.35
-105.32
-119.17
-133.12
-147.08
-160.70
-173.28
-183.83
-191.01
-193.38
-189.87
-180.16
-164.98
-145.94
-124.96
-103.71
-82.93
-62.52
-41.87
-20.47
1.57
23.29
43.20
59.95
72.90
82.48
89.90
96.52
103.13
109.92
116.96
124.74
134.14
145.66
158.37
169.60
175.94
175.02
167.03
154.82
142.47
133.10
127.46
123.91
120.08
114.48
107.35
100.00
93.41
87.35
80.48
71.43
59.83
46.47
32.63
19.37
6.81
-5.66
-18.96
-33.68
-49.85
-66.97
-84.03
-99.53
-111.57
-118.09
-117.45
-109.08
-93.92
-74.25
-52.98
-32.74
-15.26
-1.25
9.34
16.83
21.55
23.81
24.02
22.87
21.23
20.00
19.88
21.19
23.81
27.41
31.46
35.49
39.08
41.96
43.99
45.26
45.98
46.54
47.26
48.32
49.49
50.24
49.90
47.95
44.23
39.02
32.78
26.09
19.44
13.09
7.07
1.13
-5.15
-12.26
-20.59
-30.18
-40.65
-51.28
-61.05
-68.99
-74.62
-78.08
-80.38
-83.14
-88.07
-96.33
-107.84
-120.96
-132.79
-139.97
-139.89
-131.48
-115.58
-94.56
-71.43
-48.88
-28.69
-11.58
2.54
14.15
23.84
32.07
39.18
45.41
50.89
55.71
59.84
63.24
65.82
67.57
68.52
68.91
69.13
69.54
70.40
71.68
73.05
74.08
74.33
73.64
72.14
70.12
67.80
65.25
62.34
58.77
54.33
48.98
42.91
36.50
30.15
24.13
18.51
13.06
7.27
0.57
-7.55
-17.16
-28.00
-39.35
-50.41
-60.55
-69.49
-77.48
-85.12
-93.16
-102.32
-112.89
-124.44
-135.54
-143.90
-146.82
-142.08
-128.78
-107.93
-82.23
-55.18
-30.09
-9.07
7.26
19.48
28.73
36.22
42.85
49.10
55.21
61.14
66.71
71.57
75.34
77.71
78.58
78.14
76.86
75.34
74.05
73.18
72.50
71.45
69.34
65.70
60.46
54.05
47.17
40.51
34.46
28.99
23.70
18.14
12.03
5.47
-1.12
-7.06
-11.81
-15.18
-17.50
-19.57
-22.27
-26.21
-31.43
-37.39
-43.23
-48.34
-52.50
-56.11
-59.97
-64.99
-72.00
-81.53
-93.60
-107.39
-121.02
-131.72
-136.35
-132.37
-118.96
-97.39
-70.76
-42.96
-17.50
3.46
19.32
30.70
38.76
44.62
49.07
52.58
55.36
57.46
58.82
59.31
58.83
57.38
55.24
52.96
51.20
50.55
51.32
53.38
56.17
58.91
60.78
61.12
59.68
56.53
51.96
46.47
40.59
34.69
29.04
23.59
18.14
12.43
6.36
0.13
-5.84
-11.14
-15.67
-19.81
-24.29
-29.82
-36.77
-44.93
-53.60
-61.92
-69.18
-75.16
-80.24
-85.35
-91.74
-100.58
-112.32
-126.27
-140.24
-150.87
-154.64
-148.94
-133.12
-108.75
-79.07
-48.05
-19.18
5.21
24.18
37.94
47.39
53.76
58.27
61.98
65.61
69.38
73.03
75.93
77.39
76.96
74.71
71.17
67.31
63.99
61.86
61.06
61.23
61.70
61.76
60.92
58.96
56.00
52.37
48.52
44.83
41.53
38.59
35.62
32.16
27.80
22.40
16.18
9.67
3.43
-2.21
-7.24
-12.01
-17.04
-22.81
-29.50
-36.90
-44.48
-51.61
-57.94
-63.48
-68.78
-74.84
-82.84
-93.64
-107.40
-123.07
-138.38
-150.04
-154.67
-149.82
-134.86
-111.27
-82.36
-52.01
-23.77
0.17
19.07
33.41
44.14
52.36
58.96
64.52
69.40
73.71
77.29
79.77
80.78
80.02
77.54
73.78
69.53
65.69
63.02
61.96
62.38
63.65
64.79
64.75
62.74
58.49
52.39
45.25
38.14
31.90
26.82
22.54
18.31
13.38
7.37
0.44
-6.86
-13.84
-20.14
-25.74
-31.06
-36.60
-42.82
-49.84
-57.43
-65.08
-72.16
-78.10
-82.67
-86.17
-89.46
-93.72
-100.20
-109.50
-121.19
-133.54
-143.71
-148.41
-144.91
-131.98
-110.38
-82.73
-52.66
-23.78
1.33
21.43
36.59
47.64
55.63
61.47
65.79
69.03
71.47
73.24
74.34
74.76
74.49
73.70
72.68
71.82
71.50
71.89
72.90
74.30
75.68
76.59
76.60
75.33
72.56
68.23
62.41
55.27
47.01
37.85
28.09
18.09
8.33
-0.75
-8.99
-16.46
-23.59
-30.86
-38.65
-46.97
-55.41
-63.34
-70.13
-75.53
-79.74
-83.46
-87.64
-93.34
-101.38
-112.15
-125.12
-138.64
-149.89
-155.53
-152.62
-139.70
-117.48
-88.76
-57.53
-27.70
-2.04
18.27
33.49
44.61
52.83
59.11
64.16
68.36
71.92
74.81
76.89
77.92
77.72
76.29
74.00
71.42
69.27
68.07
67.95
68.68
69.81
70.77
71.24
70.99
69.98
68.18
65.53
61.98
57.55
52.34
46.45
40.05
33.23
26.09
18.78
11.49
4.33
-2.78
-10.08
-17.98
-26.78
-36.47
-46.62
-56.52
-65.45
-73.05
-79.59
-85.94
-93.35
-102.92
-115.16
-129.44
-143.85
-155.48
-161.15
-158.36
-146.20
-125.84
-100.11
-72.72
-47.04
-25.25
-7.98
5.41
16.15
25.50
34.37
43.22
52.13
60.87
69.00
75.84
80.72
83.22
83.31
81.52
78.69
75.72
73.36
71.94
71.39
71.42
71.57
71.43
70.64
68.94
66.17
62.36
57.67
52.38
46.80
41.20
35.81
30.67
25.72
20.73
15.44
9.56
2.93
-4.40
-12.17
-20.03
-27.63
-34.91
-42.14
-49.85
-58.78
-69.57
-82.55
-97.45
-113.21
-127.91
-138.96
-143.67
-140.00
-127.39
-107.01
-81.59
-54.59
-29.17
-7.46
9.82
23.06
33.29
41.68
49.18
56.28
63.07
69.24
74.39
78.11
80.21
80.78
80.17
78.89
77.48
76.38
75.91
76.14
76.95
78.02
78.87
78.94
77.70
74.83
70.22
64.11
57.02
49.63
42.59
36.35
30.91
25.91
20.83
15.22
9.04
2.63
-3.41
-8.51
-12.35
-15.16
-17.56
-20.45
-24.55
-30.18
-37.17
-44.91
-52.60
-59.65
-65.79
-71.27
-76.81
-83.41
-92.10
-103.45
-117.15
-131.57
-143.94
-150.91
-149.60
-138.66
-118.92
-93.15
-65.11
-38.38
-15.41
2.92
17.06
28.09
37.24
45.46
53.38
61.25
69.10
76.60
83.28
88.54
91.94
93.34
93.06
91.79
90.42
89.77
90.33
92.04
94.41
96.58
97.63
96.84
93.84
88.72
81.92
74.10
65.98
58.10
50.89
44.57
39.17
34.51
30.36
26.41
22.48
18.48
14.53
10.79
7.40
4.31
1.25
-2.28
-6.88
-12.98
-20.69
-29.75
-39.57
-49.50
-58.98
-67.74
-75.81
-83.51
-91.32
-99.87
-109.73
-121.18
-133.74
-145.99
-155.42
-159.09
-154.55
-140.85
-119.08
-92.21
-64.04
-38.04
-16.32
0.59
13.48
23.64
32.35
40.41
48.17
55.67
62.78
69.22
74.64
78.68
81.07
81.82
81.20
79.75
78.04
76.56
75.51
74.90
74.48
73.83
72.64
70.67
67.92
64.54
60.80
56.87
52.85
48.68
44.45
40.29
36.56
33.56
31.35
29.57
27.57
24.65
20.46
15.06
9.00
2.92
-2.63
-7.51
-11.87
-16.11
-20.66
-25.83
-31.67
-38.04
-44.66
-51.25
-57.54
-63.43
-69.01
-74.56
-80.66
-88.02
-97.32
-108.67
-121.16
-132.72
-140.32
-140.98
-132.87
-116.00
-92.51
-65.86
-39.73
-16.97
1.10
14.54
24.32
31.72
37.85
43.49
49.02
54.50
59.69
64.08
67.10
68.37
67.84
65.91
63.28
60.78
59.11
58.70
59.54
61.29
63.27
64.63
64.60
62.69
58.86
53.56
47.50
41.47
36.00
31.25
26.95
22.58
17.64
11.85
5.28
-1.69
-8.40
-14.29
-18.92
-22.25
-24.52
-26.34
-28.41
-31.29
-35.36
-40.56
-46.45
-52.48
-58.12
-63.10
-67.57
-72.05
-77.37
-84.44
-93.87
-105.57
-118.39
-130.04
-137.48
-137.80
-129.29
-111.98
-87.96
-60.67
-33.85
-10.42
8.11
21.64
31.10
37.75
42.82
47.24
51.64
56.32
61.20
65.89
69.85
72.56
73.87
74.06
73.69
73.41
73.70
74.67
76.11
77.60
78.61
78.64
77.29
74.34
69.77
63.82
56.85
49.34
41.74
34.41
27.57
21.29
15.56
10.28
5.32
0.57
-4.08
-8.67
-13.15
-17.35
-21.00
-23.89
-25.99
-27.54
-29.13
-31.50
-35.18
-40.38
-46.82
-53.92
-61.09
-67.98
-74.68
-81.58
-89.29
-98.42
-109.25
-121.38
-133.57
-143.62
-148.75
-146.50
-135.53
-116.29
-91.00
-62.96
-35.65
-11.70
7.46
21.54
31.08
37.01
40.47
42.63
44.60
47.23
50.89
55.24
59.53
62.90
64.68
64.81
63.73
62.26
61.17
60.97
61.84
63.54
65.49
67.06
67.68
66.89
64.61
61.03
56.55
51.58
46.33
40.80
34.81
28.15
20.85
13.14
5.38
-2.10
-9.20
-16.00
-22.77
-29.71
-36.75
-43.66
-50.04
-55.59
-60.23
-64.21
-68.12
-72.76
-79.00
-87.57
-98.74
-111.84
-125.08
-135.82
-141.04
-138.36
-126.78
-107.19
-81.98
-54.40
-27.56
-3.79
15.76
30.85
41.95
49.80
55.21
58.94
61.62
63.71
65.46
66.88
67.86
68.22
67.87
66.80
65.26
63.63
62.40
61.93
62.37
63.51
64.75
65.30
64.44
61.73
57.25
51.52
45.37
39.58
34.63
30.58
27.11
23.62
19.58
14.64
8.81
2.48
-3.77
-9.33
-13.89
-17.65
-21.23
-25.49
-31.19
-38.59
-47.31
-56.52
-65.19
-72.65
-78.84
-84.34
-90.27
-97.90
-108.22
-121.43
-136.51
-151.09
-161.91
-165.54
-159.63
-143.70
-119.48
-90.39
-60.36
-32.78
-9.65
8.53
22.34
32.96
41.61
49.33
56.92
64.86
73.16
81.37
88.56
93.72
96.07
95.39
92.19
87.54
82.69
78.69
76.10
74.81
74.23
73.56
72.07
69.38
65.53
60.86
56.01
51.55
47.96
45.43
43.81
42.65
41.23
38.84
34.92
29.44
22.80
15.79
9.15
3.20
-2.28
-8.03
-14.90
-23.47
-33.69
-44.87
-56.00
-66.11
-74.61
-81.59
-87.71
-94.02
-101.68
-111.66
-124.28
-138.84
-153.38
-164.91
-170.04
-166.16
-152.31
-129.71
-101.36
-71.13
-42.58
-18.05
1.66
17.05
29.31
39.82
49.56
59.07
68.26
76.67
83.57
88.30
90.37
89.75
86.84
82.45
77.80
74.14
72.45
73.08
75.56
78.80
81.44
82.37
81.04
77.47
72.07
65.26
57.47
49.03
40.36
31.96
24.32
17.68
11.94
6.65
1.28
-4.53
-10.81
-17.30
-23.64
-29.53
-34.94
-40.17
-45.79
-52.56
-61.27
-72.62
-86.76
-103.10
-119.94
-134.56
-143.77
-144.80
-136.30
-118.88
-95.00
-68.24
-42.15
-19.28
-0.71
13.84
25.45
35.37
44.59
53.60
62.47
70.94
78.58
84.88
89.43
92.10
93.09
92.92
92.30
91.96
92.45
93.99
96.41
99.09
101.16
101.67
99.87
95.50
88.84
80.73
72.18
64.09
56.99
50.85
45.24
39.63
33.62
27.22
20.73
14.69
9.38
4.70
0.08
-5.26
-12.01
-20.34
-29.91
-39.98
-49.69
-58.51
-66.34
-73.61
-81.06
-89.63
-100.23
-113.36
-128.74
-145.04
-159.77
-169.78
-172.18
-165.27
-149.29
-126.39
-99.97
-73.68
-50.34
-31.41
-16.94
-5.95
2.98
11.28
20.01
29.67
40.24
51.30
62.09
71.88
80.05
86.13
89.98
91.65
91.44
89.75
86.93
83.28
78.91
73.92
68.47
62.87
57.50
52.79
49.02
46.27
44.26
42.55
40.58
37.73
33.55
27.83
20.70
12.67
4.48
-3.09
-9.43
-14.35
-18.10
-21.24
-24.49
-28.44
-33.35
-39.11
-45.35
-51.66
-57.80
-63.82
-69.98
-76.70
-84.39
-93.55
-104.62
-117.78
-132.53
-147.27
-159.35
-165.45
-162.76
-150.03
-128.15
-100.02
-69.55
-40.40
-15.03
5.71
22.13
35.14
45.80
54.93
63.18
70.90
78.22
84.98
90.72
95.07
97.83
99.20
99.70
99.98
100.55
101.66
103.24
105.02
106.63
107.65
107.65
106.35
103.58
99.38
94.09
88.10
81.91
75.92
70.46
65.66
61.36
57.22
52.68
47.17
40.32
32.11
22.92
13.44
4.30
-4.07
-11.78
-19.31
-27.49
-37.17
-48.97
-63.02
-78.69
-94.47
-108.07
-116.90
-118.72
-112.42
-98.50
-78.88
-56.44
-34.03
-13.86
2.94
16.24
26.61
34.87
41.88
48.28
54.36
60.15
65.29
69.28
71.61
71.95
70.31
66.92
62.29
57.08
52.07
47.93
45.11
43.69
43.24
42.98
41.96
39.42
35.00
28.89
21.68
14.10
6.89
0.41
-5.22
-10.16
-14.68
-19.02
-23.34
-27.59
-31.58
-34.89
-37.06
-37.67
-36.58
-34.35
-32.24
-32.26
-36.57
-46.90
-63.87
-86.50
-112.18
-136.99
-156.61
-167.15
-166.25
-153.58
-130.97
-101.86
-70.33
-40.02
-13.36
8.67
26.35
40.71
53.07
64.72
76.55
88.92
101.44
113.09
122.50
128.50
130.51
128.78
124.25
118.07
111.33
104.65
98.34
92.50
87.08
81.83
76.12
68.91
59.08
46.00
30.07
12.87
-3.31
-16.36
-25.22
-30.33
-33.35
-36.37
-41.13
-48.38
-57.79
-68.40
-79.04
-88.85
-97.48
-105.16
-112.66
-120.90
-130.62
-141.78
-153.12
-162.35
-166.56
-163.22
-151.01
-130.38
-103.43
-73.29
-43.27
-16.14
6.35
23.49
35.38
42.75
46.66
48.30
48.82
49.16
49.82
50.98
52.36
53.40
53.56
52.56
50.44
47.66
44.82
42.51
40.92
39.94
39.10
37.82
35.67
32.46
28.38
23.74
19.03
14.67
10.82
7.33
3.79
-0.42
-5.89
-12.76
-20.80
-29.25
-37.21
-43.87
-48.99
-52.96
-56.72
-61.49
-68.38
-77.97
-89.98
-102.98
-114.54
-121.63
-121.57
-112.82
-95.82
-72.89
-47.50
-23.14
-2.30
13.96
25.96
34.67
41.16
46.24
50.39
53.76
56.34
58.04
58.66
58.16
56.70
54.78
52.96
51.74
51.33
51.55
52.00
52.20
51.79
50.53
48.29
45.05
40.71
35.25
28.68
21.16
12.91
4.26
-4.45
-12.92
-20.90
-28.22
-34.89
-41.12
-47.38
-54.43
-63.12
-74.19
-87.69
-102.66
-116.93
-127.43
-131.03
-125.56
-110.65
-88.06
-61.06
-33.55
-8.82
11.11
25.80
36.00
43.16
48.78
54.03
59.59
65.59
71.78
77.74
83.03
87.48
91.19
94.52
97.85
101.43
105.20
108.73
111.36
112.39
111.22
107.56
101.50
93.39
83.77
73.03
61.42
49.05
35.99
22.46
8.87
-4.28
-16.47
-27.40
-37.10
-45.91
-54.55
-63.91
-74.80
-87.57
-101.63
-115.31
-125.97
-130.75
-127.50
-115.59
-96.24
-72.12
-46.49
-22.25
-1.31
15.57
28.63
38.62
46.45
52.93
58.64
63.76
68.15
71.32
72.71
71.82
68.60
63.43
57.15
50.74
45.07
40.65
37.53
35.36
33.56
31.54
28.94
25.56
21.42
16.59
11.16
5.15
-1.50
-8.81
-16.71
-25.07
-33.60
-42.11
-50.47
-58.70
-67.02
-75.82
-85.59
-96.84
-109.77
-123.93
-137.90
-149.33
-155.64
-154.66
-145.53
-129.13
-107.71
-84.19
-61.14
-40.16
-21.69
-5.39
9.45
23.38
36.69
49.26
60.77
70.80
78.92
84.79
88.28
89.49
88.75
86.61
83.58
80.22
76.92
73.83
70.95
68.12
65.09
61.63
57.55
52.69
46.94
40.17
32.42
23.87
14.86
5.83
-2.88
-11.16
-19.20
-27.45
-36.43
-46.63
-58.50
-72.24
-87.77
-104.37
-120.44
-133.73
-141.76
-142.68
-135.99
-122.73
-105.20
-86.08
-67.58
-50.87
-36.06
-22.48
-9.37
3.75
16.80
29.16
39.98
48.48
54.23
57.37
58.57
58.66
58.49
58.47
58.68
58.93
58.96
58.60
57.67
55.95
53.08
48.61
42.28
34.17
24.89
15.47
7.09
0.75
-3.05
-4.48
-4.15
-2.96
-1.74
-1.08
-1.26
-2.44
-4.86
-8.98
-15.47
-24.89
-37.21
-51.41
-65.39
-76.45
-81.92
-80.21
-71.19
-56.36
-38.20
-19.35
-1.83
13.28
25.99
36.85
46.61
55.82
64.62
72.76
79.75
85.14
88.72
90.61
91.13
90.58
89.10
86.61
83.04
78.61
73.89
69.66
66.67
65.15
64.69
64.39
63.18
60.23
55.30
48.74
41.37
34.12
27.67
22.19
17.35
12.44
6.71
-0.35
-8.76
-18.17
-27.99
-37.77
-47.38
-57.19
-67.96
-80.49
-95.26
-111.93
-128.97
-143.95
-153.90
-156.28
-149.79
-134.89
-113.61
-89.00
-64.11
-41.22
-21.52
-5.06
8.70
20.57
31.17
40.85
49.70
57.63
64.51
70.24
74.71
77.80
79.35
79.36
78.06
76.04
74.06
72.86
72.83
73.87
75.33
76.27
75.87
73.54
69.18
63.10
55.89
48.16
40.40
32.91
25.67
18.51
11.21
3.69
-3.95
-11.40
-18.43
-25.01
-31.51
-38.67
-47.54
-59.15
-74.08
-92.04
-111.52
-129.88
-143.80
-150.22
-147.24
-134.82
-114.79
-90.28
-64.82
-41.27
-21.26
-5.07
7.99
19.02
29.04
38.60
47.77
56.26
63.64
69.45
73.42
75.43
75.49
73.88
71.07
67.80
64.83
62.87
62.27
62.81
63.74
63.94
62.34
58.25
51.67
43.33
34.35
25.84
18.50
12.38
6.90
1.24
-5.30
-13.00
-21.60
-30.50
-39.06
-46.91
-54.13
-61.28
-69.30
-79.19
-91.60
-106.28
-121.81
-135.71
-144.96
-146.96
-140.45
-126.00
-105.75
-82.78
-60.07
-39.73
-22.58
-8.43
3.52
14.22
24.35
34.27
44.00
53.28
61.71
68.90
74.62
78.83
81.64
83.35
84.29
84.80
85.18
85.69
86.40
87.22
87.81
87.61
86.04
82.66
77.32
70.29
62.14
53.52
44.96
36.72
28.71
20.49
11.54
1.56
-9.41
-20.80
-31.74
-41.37
-49.14
-55.14
-60.05
-64.99
-71.22
-79.73
-91.05
-104.89
-120.09
-134.58
-145.79
-151.07
-148.54
-137.70
-119.71
-97.06
-72.82
-49.76
-29.67
-13.03
0.68
12.53
23.52
34.21
44.60
54.37
63.07
70.43
76.32
80.86
84.17
86.38
87.57
87.85
87.46
86.74
86.07
85.66
85.36
84.73
83.12
80.03
75.25
69.02
61.85
54.38
47.07
40.11
33.39
26.57
19.25
11.06
1.86
-8.26
-18.89
-29.43
-39.29
-48.01
-55.55
-62.20
-68.59
-75.44
-83.49
-93.16
-104.29
-115.89
-125.99
-132.08
-131.75
-123.59
-107.85
-86.50
-62.56
-39.17
-18.63
-1.90
11.23
21.65
30.39
38.27
45.60
52.39
58.45
63.60
67.72
70.88
73.18
74.73
75.59
75.92
75.91
75.94
76.37
77.48
79.25
81.28
82.87
83.18
81.49
77.38
70.85
62.27
52.31
41.73
31.24
21.32
12.16
3.64
-4.58
-12.86
-21.50
-30.46
-39.54
-48.35
-56.52
-63.92
-70.63
-77.07
-83.87
-91.80
-101.58
-113.59
-127.48
-141.97
-154.75
-162.91
-163.74
-155.58
-138.43
-113.90
-84.76
-54.00
-24.13
3.11
26.72
46.26
61.63
73.02
81.02
86.46
90.17
92.68
94.01
93.82
91.70
87.54
81.70
74.85
67.75
61.06
55.30
50.82
47.88
46.54
46.59
47.45
48.34
48.46
47.17
44.20
39.60
33.75
27.15
20.39
14.07
8.67
4.28
0.65
-2.81
-6.77
-11.81
-18.14
-25.63
-33.95
-42.80
-51.98
-61.49
-71.48
-82.14
-93.67
-106.07
-118.92
-131.21
-141.12
-146.39
-144.93
-135.47
-118.21
-94.91
-68.45
-41.95
-18.03
1.72
16.87
27.90
35.77
41.58
46.24
50.36
54.16
57.54
60.23
61.82
61.98
60.54
57.66
53.72
49.42
45.48
42.57
41.04
40.75
41.06
40.95
39.32
35.44
29.21
21.28
12.86
5.28
-0.41
-3.87
-5.48
-6.17
-6.89
-8.34
-10.57
-13.20
-15.58
-17.23
-18.09
-18.70
-20.03
-23.24
-29.29
-38.65
-51.04
-65.29
-79.45
-91.08
-97.80
-97.88
-90.78
-77.38
-59.72
-40.38
-21.76
-5.39
8.29
19.63
29.31
37.74
44.91
50.43
53.94
55.39
55.15
53.73
51.78
49.75
48.02
46.93
46.84
47.97
50.24
53.15
55.94
57.71
57.83
56.14
53.00
49.05
44.93
41.02
37.28
33.29
28.61
22.88
16.18
8.88
1.56
-5.37
-11.90
-18.46
-25.67
-34.19
-44.29
-55.73
-67.66
-78.63
-86.79
-90.32
-87.82
-78.85
-64.19
-45.76
-26.09
-7.63
7.98
20.18
29.39
36.61
42.86
48.83
54.73
60.23
64.72
67.60
68.45
67.25
64.27
59.93
54.63
48.62
42.08
35.15
28.06
21.05
14.25
7.58
0.81
-6.31
-13.73
-21.14
-27.97
-33.77
-38.42
-42.28
-46.02
-50.30
-55.44
-61.17
-66.80
-71.49
-74.66
-76.32
-77.08
-78.05
-80.42
-85.16
-92.66
-102.51
-113.33
-122.96
-128.73
-128.18
-119.66
-103.01
-79.67
-52.37
-24.31
1.62
23.58
41.04
54.61
65.46
74.89
83.80
92.43
100.44
107.18
111.95
114.35
114.31
112.15
108.36
103.48
97.95
92.15
86.28
80.49
74.83
69.24
63.54
57.38
50.34
42.06
32.30
21.25
9.39
-2.56
-13.82
-23.84
-32.43
-39.75
-46.19
-52.16
-57.99
-63.77
-69.43
-74.76
-79.56
-83.71
-87.29
-90.63
-94.29
-98.96
-105.31
-113.65
-123.55
-133.72
-142.03
-145.99
-143.56
-133.95
-117.89
-97.60
-75.95
-55.65
-38.42
-24.80
-14.38
-6.26
0.50
6.55
12.27
17.68
22.58
26.72
29.76
31.60
32.39
32.54
32.65
33.26
34.78
37.28
40.60
44.26
47.57
49.69
49.95
48.00
43.98
38.56
32.65
27.10
22.38
18.41
14.78
10.92
6.56
1.83
-2.90
-7.19
-10.86
-14.20
-17.75
-22.13
-27.88
-35.22
-43.97
-53.35
-61.95
-67.83
-68.89
-63.53
-51.39
-33.58
-12.50
8.88
27.96
43.13
53.97
61.05
65.44
68.17
70.06
71.61
73.00
74.14
74.77
74.54
73.04
70.11
65.89
60.94
56.07
52.12
49.58
48.35
47.84
47.11
45.31
41.92
37.02
31.14
24.96
19.15
14.10
9.82
5.96
2.05
-2.40
-7.63
-13.64
-20.21
-27.02
-33.90
-40.97
-48.58
-57.28
-67.63
-79.97
-94.07
-108.90
-122.69
-133.11
-137.84
-135.31
-125.32
-109.04
-88.84
-67.45
-47.27
-29.72
-15.20
-3.23
7.03
16.43
25.46
34.34
42.92
50.88
57.89
63.65
68.01
70.93
72.51
72.90
72.36
71.19
69.76
68.38
67.19
66.11
64.73
62.41
58.59
53.00
45.90
38.01
30.22
23.26
17.34
12.08
6.67
0.28
-7.57
-16.78
-26.77
-36.64
-45.65
-53.46
-60.26
-66.69
-73.69
-82.14
-92.56
-104.64
-117.10
-127.68
-133.63
-132.58
-123.38
-106.69
-84.83
-61.05
-38.46
-19.14
-3.82
7.95
17.23
25.19
32.61
39.86
46.97
53.77
59.94
65.12
69.00
71.27
71.82
70.70
68.32
65.36
62.62
60.86
60.38
60.95
61.82
62.06
60.77
57.55
52.52
46.33
39.90
34.13
29.61
26.33
23.67
20.61
16.07
9.45
0.82
-9.08
-19.13
-28.44
-36.59
-43.93
-51.34
-59.91
-70.43
-83.04
-96.91
-110.26
-120.59
-125.29
-122.48
-111.58
-93.72
-71.52
-48.21
-26.73
-8.96
4.62
14.69
22.54
29.41
36.14
42.99
49.71
55.87
61.06
65.04
67.81
69.55
70.54
71.07
71.33
71.49
71.61
71.59
71.27
70.36
68.60
65.81
61.92
57.04
51.33
44.97
38.13
31.06
24.02
17.28
11.09
5.52
0.42
-4.58
-9.91
-16.00
-23.01
-30.85
-39.12
-47.39
-55.30
-62.77
-70.10
-77.94
-87.06
-98.08
-111.24
-125.97
-140.79
-153.43
-161.12
-161.41
-152.94
-136.00
-112.61
-85.97
-59.46
-35.77
-16.24
-0.90
11.24
21.50
31.04
40.61
50.45
60.41
70.09
79.04
86.85
93.19
97.91
101.02
102.65
103.13
102.89
102.30
101.61
100.78
99.56
97.48
94.21
89.58
83.72
76.97
69.74
62.40
55.31
48.64
42.54
36.99
31.83
26.79
21.55
15.93
9.85
3.34
-3.54
-10.76
-18.34
-26.24
-34.41
-42.81
-51.55
-60.92
-71.42
-83.39
-96.67
-110.23
-122.11
-129.79
-130.94
-124.22
-109.86
-89.74
-66.81
-44.13
-24.06
-7.67
5.28
15.69
24.57
32.60
39.84
46.17
51.38
55.55
58.86
61.59
63.88
65.63
66.63
66.62
65.56
63.66
61.35
59.18
57.55
56.54
55.79
54.63
52.33
48.40
42.86
36.31
29.63
23.65
18.78
14.96
11.65
8.20
4.08
-0.95
-6.86
-13.32
-19.96
-26.43
-32.56
-38.34
-43.98
-50.02
-57.13
-65.91
-76.65
-88.82
-100.97
-110.70
-115.38
-112.85
-102.31
-84.66
-62.32
-38.49
-16.14
2.69
17.20
27.67
34.98
40.10
43.82
46.61
48.66
50.05
50.80
50.97
50.52
49.49
47.89
45.95
43.97
42.39
41.63
41.93
43.23
45.07
46.79
47.61
46.87
44.30
40.02
34.45
28.29
22.27
16.93
12.54
8.88
5.42
1.37
-3.95
-10.89
-19.34
-28.76
-38.32
-47.26
-55.07
-61.74
-67.83
-74.30
-82.18
-92.27
-104.62
-118.16
-130.73
-139.43
-141.42
-134.94
-119.98
-98.44
-73.59
-48.99
-27.45
-10.32
2.49
12.01
19.64
26.47
33.11
39.68
45.95
51.49
55.81
58.49
59.34
58.53
56.52
54.03
51.74
50.31
50.04
50.92
52.60
54.53
56.10
56.77
56.31
54.72
52.17
48.93
45.16
41.04
36.63
32.06
27.50
23.17
19.23
15.59
11.92
7.74
2.54
-3.94
-11.56
-19.81
-28.11
-36.00
-43.41
-50.79
-58.95
-68.70
-80.45
-93.74
-107.11
-118.17
-124.24
-123.13
-113.87
-97.21
-75.38
-51.47
-28.55
-8.98
6.06
16.60
23.60
28.45
32.49
36.71
41.49
46.66
51.72
56.10
59.33
61.17
61.56
60.68
58.79
56.32
53.76
51.60
50.19
49.62
49.64
49.80
49.43
47.99
45.13
40.80
35.33
29.15
22.78
16.68
11.12
6.13
1.51
-3.10
-8.07
-13.61
-19.57
-25.46
-30.55
-34.30
-36.58
-37.86
-39.08
-41.29
-45.36
-51.71
-60.25
-70.48
-81.37
-91.35
-98.42
-100.35
-95.40
-82.87
-63.58
-39.77
-14.43
9.52
30.09
46.53
59.13
68.90
76.95
84.15
91.00
97.60
103.84
109.45
114.11
117.55
119.58
120.05
118.95
116.46
112.91
108.71
104.18
99.35
93.77
86.73
77.60
66.26
53.39
40.33
28.71
19.83
14.24
11.57
10.70
10.14
8.49
4.88
-0.91
-8.48
-17.17
-26.46
-36.21
-46.87
-59.13
-73.51
-89.74
-106.46
-121.06
-130.41
-131.70
-123.55
-106.70
-83.94
-59.32
-36.82
-19.13
-7.08
0.18
4.54
7.80
11.14
14.91
18.96
22.84
26.29
29.26
31.80
34.01
35.86
37.25
38.17
38.87
39.79
41.60
44.85
49.70
55.69
61.88
67.15
70.53
71.39
69.47
64.63
56.92
46.47
33.77
19.43
4.06
-12.27
-30.09
-50.30
-73.54
-99.60
-127.07
-153.75
-177.40
-196.59
-211.08
-221.65
-229.39
-234.96
-237.97
-237.06
-230.45
-216.76
-195.92
-169.50
-140.37
-111.84
-86.42
-65.22
-47.82
-32.79
-18.78
-5.09
8.09
20.12
30.45
38.96
46.05
52.26
57.88
62.78
66.50
68.75
69.60
69.69
69.95
71.21
73.79
77.28
80.83
83.42
84.42
83.76
81.85
79.28
76.47
73.40
69.79
65.17
59.38
52.62
45.38
38.20
31.43
24.98
18.44
11.31
3.36
-5.23
-13.92
-21.97
-28.89
-34.65
-39.74
-44.95
-51.14
-58.98
-68.87
-80.68
-93.71
-106.49
-116.85
-122.37
-121.06
-112.13
-96.42
-76.06
-53.80
-32.09
-12.45
4.69
19.60
32.80
44.67
55.33
64.62
72.34
78.13
81.80
83.32
82.99
81.40
79.26
77.19
75.46
74.02
72.56
70.72
68.14
64.50
59.63
53.49
46.29
38.57
31.05
24.45
19.25
15.34
12.11
8.59
3.83
-2.80
-11.38
-21.38
-31.91
-41.99
-50.94
-58.52
-64.98
-70.88
-76.84
-83.20
-90.01
-97.07
-104.25
-111.61
-119.46
-128.36
-138.83
-151.20
-165.44
-180.84
-195.88
-208.29
-215.39
-214.74
-204.82
-185.58
-158.65
-126.81
-93.36
-61.21
-32.40
-7.93
12.09
28.03
40.71
51.20
60.67
70.21
80.42
91.24
101.91
111.29
118.35
122.64
124.39
124.35
123.42
122.20
120.85
119.23
117.05
114.06
110.09
105.12
99.20
92.43
85.05
77.28
69.21
60.81
51.83
42.04
31.40
20.19
9.00
-1.57
-11.19
-20.01
-28.70
-38.19
-49.41
-62.97
-78.79
-95.74
-111.68
-123.64
-128.50
-124.06
-109.91
-87.79
-61.16
-34.03
-9.64
10.53
26.63
39.90
51.74
62.87
73.30
82.58
90.30
96.44
101.33
105.42
109.06
112.24
114.73
116.28
116.83
116.65
116.14
115.73
115.59
115.46
114.71
112.61
108.50
102.21
94.03
84.69
75.05
65.80
57.25
49.21
41.11
32.32
22.46
11.57
0.06
-11.41
-22.27
-32.23
-41.42
-50.26
-59.42
-69.74
-81.93
-96.28
-112.14
-127.68
-139.94
-145.57
-141.89
-127.99
-105.09
-76.38
-45.88
-17.32
6.83
25.63
39.53
49.72
57.57
64.30
70.67
77.01
83.30
89.24
94.36
98.19
100.38
100.81
99.59
97.18
94.21
91.40
89.35
88.36
88.31
88.58
88.29
86.50
82.67
76.83
69.68
62.28
55.68
50.33
46.04
42.00
37.17
30.74
22.39
12.40
1.43
-9.77
-20.55
-30.61
-40.05
-49.28
-59.06
-70.21
-83.32
-98.22
-113.71
-127.48
-136.46
-137.83
-129.89
-112.78
-88.52
-60.60
-32.80
-8.21
11.50
26.17
36.76
44.70
51.25
57.14
62.53
67.27
71.01
73.45
74.40
73.79
71.66
68.14
63.69
58.87
54.41
50.88
48.51
47.00
45.64
43.56
40.04
34.81
28.16
20.71
13.05
5.46
-2.16
-10.16
-18.83
-28.11
-37.57
-46.60
-54.68
-61.64
-67.79
-73.85
-80.84
-89.75
-101.09
-114.52
-128.52
-140.46
-147.26
-146.37
-136.77
-119.42
-97.02
-73.10
-50.84
-32.31
-18.22
-8.16
-1.06
4.27
8.90
13.67
19.05
25.11
31.47
37.50
42.52
46.08
48.15
49.14
49.78
50.83
52.84
56.01
59.90
63.54
65.75
65.45
62.19
56.26
48.51
40.04
31.63
23.56
15.59
7.20
-2.06
-12.36
-23.51
-34.92
-45.91
-55.83
-64.36
-71.63
-78.29
-85.38
-94.18
-105.71
-120.28
-137.02
-153.72
-167.01
-173.32
-170.10
-157.00
-136.09
-111.29
-86.91
-66.11
-50.06
-38.04
-28.26
-18.96
-9.03
1.85
13.53
25.75
38.18
50.35
61.59
71.00
77.80
81.63
82.75
82.09
80.95
80.65
82.27
86.16
91.97
98.66
104.94
109.55
111.80
111.62
109.45
105.88
101.23
95.40
87.96
78.59
67.45
55.23
42.95
31.62
21.71
13.12
5.31
-2.47
-10.91
-20.60
-31.88
-44.46
-57.13
-67.68
-73.28
-71.49
-61.26
-43.67
-21.64
0.96
20.60
35.07
43.82
47.59
47.77
45.77
42.72
39.29
35.90
32.70
29.80
27.32
25.46
24.41
24.15
24.46
24.90
25.07
24.87
24.46
24.11
23.94
23.64
22.63
20.28
16.39
11.39
6.14
1.61
-1.61
-3.60
-5.04
-6.93
-10.12
-15.03
-21.46
-28.68
-35.83
-42.24
-47.66
-52.46
-57.45
-63.76
-72.44
-84.18
-98.97
-115.82
-132.66
-146.63
-154.76
-154.79
-146.02
-129.61
-108.26
-85.31
-63.68
-45.04
-29.71
-16.88
-5.30
6.15
18.05
30.44
42.80
54.32
64.19
71.80
76.91
79.72
80.81
80.92
80.69
80.60
80.91
81.64
82.61
83.61
84.30
84.43
83.75
82.16
79.62
76.17
71.81
66.59
60.58
53.98
46.93
39.58
31.96
23.96
15.39
6.11
-3.93
-14.55
-25.46
-36.31
-46.80
-56.73
-66.10
-75.09
-84.21
-94.09
-105.44
-118.57
-132.92
-146.75
-157.36
-161.72
-157.58
-144.25
-123.14
-97.18
-69.96
-44.58
-22.89
-5.31
8.84
20.73
31.44
41.65
51.54
60.88
69.24
76.06
80.89
83.48
83.82
82.11
78.82
74.63
70.32
66.72
64.42
63.57
63.83
64.36
64.20
62.57
59.14
54.11
48.11
41.94
36.29
31.59
27.92
24.95
22.03
18.41
13.40
6.70
-1.45
-10.43
-19.37
-27.56
-34.68
-41.00
-47.27
-54.52
-63.86
-76.15
-91.57
-109.28
-127.21
-142.34
-151.34
-151.54
-141.96
-123.55
-98.95
-71.62
-44.83
-20.91
-0.94
15.10
27.84
38.02
46.29
53.04
58.43
62.69
66.03
68.74
71.00
72.82
74.11
74.75
74.83
74.73
74.95
75.92
77.76
80.13
82.31
83.47
82.93
80.31
75.60
69.16
61.63
53.71
45.99
38.74
31.82
24.76
16.94
7.99
-2.12
-13.03
-24.18
-35.12
-45.67
-55.95
-66.38
-77.51
-89.88
-103.87
-119.54
-136.21
-152.28
-165.27
-172.24
-170.67
-159.38
-139.10
-112.33
-82.57
-53.27
-26.98
-4.91
12.85
26.89
38.02
46.98
54.37
60.55
65.69
69.74
72.55
74.02
74.17
73.27
71.83
70.36
69.40
69.40
70.67
73.23
76.75
80.46
83.30
84.20
82.39
77.65
70.34
61.26
51.33
41.33
31.74
22.71
14.11
5.64
-3.04
-12.13
-21.59
-31.10
-40.10
-48.00
-54.43
-59.45
-63.65
-68.04
-73.84
-82.01
-92.65
-104.55
-115.21
-121.32
-119.87
-109.25
-89.94
-64.37
-36.15
-8.82
15.09
34.44
49.21
60.08
67.88
73.44
77.45
80.50
82.98
84.93
85.98
85.54
83.04
78.28
71.53
63.61
55.73
49.07
44.46
42.07
41.31
41.11
40.23
37.88
33.87
28.58
22.74
17.00
11.71
6.97
2.74
-1.14
-4.83
-8.51
-12.46
-17.05
-22.59
-29.33
-37.42
-46.94
-57.96
-70.48
-84.35
-98.87
-112.83
-124.28
-130.89
-130.61
-122.30
-106.28
-84.38
-59.55
-34.97
-13.14
4.56
18.06
28.18
36.09
42.78
48.76
54.07
58.36
61.24
62.58
62.55
61.66
60.59
59.89
59.85
60.43
61.21
61.61
61.05
59.02
55.25
49.78
42.97
35.31
27.41
19.71
12.43
5.47
-1.50
-8.84
-16.84
-25.49
-34.45
-43.12
-50.87
-57.30
-62.53
-67.33
-72.90
-80.54
-90.90
-103.44
-116.11
-125.80
-129.12
-123.71
-109.07
-86.81
-60.12
-32.68
-7.57
13.47
30.07
42.85
52.86
61.12
68.33
74.91
80.95
86.34
90.62
93.24
93.66
91.63
87.32
81.42
74.93
68.89
64.00
60.53
58.24
56.57
54.77
52.15
48.12
42.31
34.65
25.36
14.99
4.29
-6.01
-15.34
-23.46
-30.49
-36.80
-42.93
-49.39
-56.61
-64.84
-74.22
-84.68
-95.79
-106.66
-115.79
-121.30
-121.42
-115.17
-102.83
-86.02
-67.15
-48.64
-32.22
-18.53
-7.53
1.14
7.72
12.27
14.88
15.91
16.01
15.86
15.77
15.57
14.64
12.18
7.60
0.72
-8.15
-18.07
-27.63
-35.03
-38.42
-36.45
-28.74
-16.30
-1.53
12.12
20.97
22.09
14.13
-2.27
-24.40
-47.94
-67.69
-78.57
-76.85
-61.64
-35.62
-4.81
23.02
40.84
44.83
35.62
17.64
-3.05
-21.06
-33.19
-38.52
-37.29
-30.01
-17.25
-0.08
19.14
37.11
50.56
57.75
59.34
58.02
57.04
58.57
62.73
67.81
71.44
71.91
69.03
64.04
58.85
55.22
54.06
55.33
58.22
61.70
64.87
67.17
68.38
68.62
68.17
67.28
66.06
64.38
61.94
58.36
53.23
46.50
38.45
29.69
21.14
13.71
8.01
4.11
1.48
-0.89
-4.15
-9.17
-16.24
-25.02
-34.63
-43.86
-51.51
-56.59
-58.54
-57.20
-52.77
-45.67
-36.34
-25.26
-12.98
-0.25
11.99
22.66
30.87
36.25
39.26
41.08
43.12
46.57
51.90
58.75
66.12
72.45
75.81
74.04
65.17
48.24
23.95
-4.98
-34.41
-60.15
-79.47
-91.89
-98.99
-103.25
-106.56
-109.47
-111.33
-111.15
-108.33
-103.08
-96.06
-87.84
-78.58
-68.06
-56.33
-44.02
-32.32
-22.66
-16.22
-13.68
-15.19
-20.69
-30.03
-42.76
-58.04
-74.33
-89.49
-101.00
-106.39
-103.74
-92.00
-71.34
-43.18
-10.22
24.02
55.84
82.28
101.74
114.07
120.12
120.98
117.59
110.68
101.09
90.05
79.01
69.19
60.97
53.95
47.29
40.39
33.46
27.25
22.55
19.49
17.21
14.18
8.98
1.03
-9.13
-20.02
-29.86
-37.25
-41.76
-43.92
-45.03
-46.58
-49.80
-55.22
-62.64
-71.20
-79.80
-87.55
-94.05
-99.57
-104.92
-111.14
-119.12
-129.29
-141.41
-154.27
-165.60
-172.26
-170.89
-159.04
-136.17
-104.14
-66.72
-28.31
7.55
38.89
65.27
86.85
103.61
115.17
121.26
122.42
120.25
116.88
114.09
112.40
110.95
108.02
101.91
91.69
77.41
59.85
40.05
18.94
-2.55
-23.38
-42.29
-58.03
-69.84
-77.87
-83.23
-87.55
-92.08
-97.13
-101.91
-105.31
-106.67
-106.44
-105.97
-106.69
-109.32
-113.54
-118.39
-123.15
-127.90
-133.57
-141.12
-150.58
-160.42
-167.84
-169.60
-163.38
-148.65
-126.92
-101.04
-74.28
-49.27
-27.46
-9.08
6.41
19.77
31.51
41.74
50.31
57.06
62.06
65.66
68.39
70.66
72.60
74.07
74.80
74.69
74.00
73.22
72.82
72.90
73.02
72.34
69.96
65.40
58.76
50.80
42.48
34.64
27.58
20.98
14.09
6.15
-3.18
-13.69
-24.70
-35.41
-45.35
-54.58
-63.80
-74.01
-86.26
-101.22
-118.70
-137.33
-154.58
-167.15
-171.79
-166.26
-150.34
-125.96
-96.71
-66.64
-39.08
-15.65
3.68
19.98
34.41
47.72
60.04
71.14
80.88
89.35
96.74
103.11
108.26
111.87
113.74
114.10
113.62
113.29
113.96
116.06
119.39
123.15
126.11
126.99
124.90
119.58
111.62
102.15
92.50
83.69
76.03
69.11
62.06
54.01
44.46
33.64
22.21
11.06
0.83
-8.49
-17.52
-27.41
-39.42
-54.58
-73.10
-93.91
-114.60
-131.65
-141.28
-140.62
-128.74
-107.05
-78.95
-48.70
-20.21
4.02
23.19
37.92
49.50
59.23
68.01
76.26
84.06
91.29
97.73
103.16
107.32
110.03
111.26
111.18
110.17
108.72
107.24
105.90
104.55
102.80
100.15
96.25
90.99
84.50
77.05
68.95
60.38
51.43
42.12
32.50
22.68
12.81
3.02
-6.64
-16.38
-26.61
-37.91
-50.77
-65.28
-80.70
-95.39
-106.91
-112.66
-110.69
-100.41
-82.82
-60.29
-35.88
-12.45
7.97
24.41
36.85
45.93
52.56
57.71
62.20
66.55
70.95
75.25
79.05
81.92
83.62
84.14
83.79
83.02
82.36
82.09
82.24
82.43
82.09
80.50
77.21
72.05
65.34
57.71
49.85
42.27
35.13
28.27
21.34
14.10
6.56
-1.02
-8.32
-15.08
-21.31
-27.36
-33.82
-41.43
-50.91
-62.62
-76.20
-90.35
-102.81
-110.84
-112.02
-105.03
-90.27
-69.65
-46.07
-22.54
-1.37
16.20
29.97
40.42
48.28
54.23
58.74
62.07
64.41
65.83
66.47
66.35
65.37
63.31
59.95
55.32
49.82
44.17
39.23
35.54
33.19
31.70
30.30
28.24
25.13
21.00
16.29
11.51
7.00
2.67
-1.93
-7.44
-14.33
-22.57
-31.61
-40.47
-48.21
-54.32
-58.89
-62.61
-66.48
-71.57
-78.52
-87.32
-97.08
-106.04
-111.87
-112.25
-105.70
-92.08
-72.75
-50.23
-27.38
-6.63
10.66
24.18
34.49
42.47
49.02
54.69
59.79
64.37
68.39
71.81
74.68
77.04
78.94
80.29
81.01
81.05
80.44
79.39
78.26
77.39
76.87
76.45
75.59
73.59
69.98
64.69
58.15
51.14
44.47
38.67
33.83
29.47
24.84
19.16
11.92
3.04
-7.11
-17.89
-28.62
-38.79
-48.23
-57.12
-65.94
-75.29
-85.65
-97.15
-109.22
-120.47
-128.92
-132.44
-129.52
-119.82
-104.38
-85.32
-65.17
-46.22
-29.97
-16.92
-6.77
1.33
8.36
15.18
22.37
30.08
38.06
45.77
52.55
57.78
61.12
62.55
62.40
61.17
59.41
57.54
55.73
54.03
52.35
50.60
48.66
46.51
44.08
41.30
38.05
34.31
30.16
25.80
21.51
17.47
13.75
10.24
6.70
2.89
-1.38
-6.23
-11.64
-17.57
-23.92
-30.54
-37.25
-43.77
-49.92
-55.76
-61.61
-68.13
-75.98
-85.34
-95.56
-104.97
-111.25
-112.10
-106.15
-93.52
-75.79
-55.49
-35.32
-17.35
-2.66
8.58
16.84
22.82
27.21
30.51
33.09
35.15
36.82
38.07
38.84
39.06
38.79
38.17
37.48
37.01
37.02
37.61
38.69
39.92
40.75
40.56
38.79
35.16
29.80
23.30
16.51
10.28
5.08
0.88
-2.82
-6.72
-11.31
-16.65
-22.33
-27.74
-32.32
-35.95
-38.96
-42.01
-45.94
-51.44
-58.88
-67.97
-77.69
-86.31
-91.65
-91.63
-85.02
-71.89
-53.82
-33.40
-13.58
3.24
15.74
23.84
28.38
30.62
31.74
32.55
33.38
34.20
34.73
34.69
33.90
32.34
30.21
27.80
25.50
23.78
23.01
23.48
25.20
27.83
30.68
32.83
33.39
31.77
27.87
22.17
15.54
8.99
3.27
-1.33
-5.12
-8.73
-12.81
-17.70
-23.26
-28.96
-34.15
-38.38
-41.61
-44.23
-46.89
-50.37
-55.28
-61.92
-69.93
-78.27
-85.22
-88.74
-87.14
-79.64
-66.78
-50.36
-32.76
-16.32
-2.58
7.94
15.61
21.27
25.80
29.71
33.17
36.06
38.21
39.52
40.07
40.10
39.91
39.74
39.72
39.93
40.33
40.81
41.25
41.46
41.28
40.49
38.87
36.23
32.43
27.45
21.50
15.02
8.59
2.75
-2.09
-5.87
-8.88
-11.60
-14.42
-17.53
-20.82
-23.94
-26.59
-28.75
-30.70
-33.05
-36.44
-41.45
-48.42
-57.28
-67.57
-78.26
-87.76
-94.10
-95.37
-90.42
-79.26
-63.27
-44.80
-26.42
-10.13
3.02
12.96
20.28
25.72
29.99
33.59
36.91
40.14
43.28
46.08
48.21
49.37
49.49
48.81
47.77
46.77
46.02
45.51
45.07
44.44
43.36
41.62
39.00
35.37
30.71
25.31
19.69
14.55
10.55
8.06
6.94
6.62
6.09
4.43
1.02
-4.19
-10.76
-17.91
-24.83
-31.00
-36.30
-41.04
-45.83
-51.50
-58.78
-68.00
-78.76
-89.71
-98.75
-103.51
-102.12
-93.87
-79.52
-61.06
-41.08
-22.01
-5.50
7.72
17.65
24.77
29.59
32.59
34.17
34.74
34.74
34.61
34.70
35.17
35.97
36.91
37.78
38.51
39.18
39.94
40.82
41.63
41.89
41.09
38.84
35.17
30.51
25.54
20.90
16.99
13.80
10.96
7.94
4.13
-0.84
-7.08
-14.32
-21.97
-29.32
-35.82
-41.25
-46.00
-50.98
-57.21
-65.49
-75.90
-87.50
-98.44
-106.34
-108.95
-104.82
-93.86
-77.35
-57.59
-37.23
-18.49
-2.72
9.76
19.39
27.03
33.46
39.24
44.56
49.35
53.38
56.37
58.10
58.45
57.50
55.55
53.10
50.70
48.87
47.88
47.68
47.97
48.27
47.99
46.61
43.82
39.56
34.11
27.90
21.45
15.21
9.36
3.89
-1.36
-6.56
-11.78
-16.94
-21.84
-26.29
-30.16
-33.59
-36.96
-40.87
-46.08
-53.27
-62.87
-74.75
-87.98
-100.78
-110.84
-115.89
-114.34
-105.97
-91.96
-74.54
-56.29
-39.30
-24.75
-12.78
-2.75
6.19
14.73
23.16
31.43
39.25
46.35
52.52
57.68
61.74
64.70
66.50
67.21
67.02
66.28
65.44
64.87
64.71
64.80
64.69
63.85
61.87
58.63
54.36
49.49
44.54
39.91
35.80
32.10
28.54
24.60
19.76
13.55
5.82
-3.21
-12.95
-22.58
-31.40
-39.11
-45.96
-52.67
-60.20
-69.38
-80.51
-93.11
-105.81
-116.57
-123.00
-123.11
-115.86
-101.66
-82.26
-60.38
-38.85
-19.84
-4.46
7.21
15.74
21.82
26.11
28.99
30.83
31.97
32.74
33.38
33.90
34.11
33.63
31.97
28.74
23.82
17.56
10.94
5.72
4.11
8.28
19.51
37.58
60.47
84.91
107.30
124.85
136.32
142.14
143.91
143.55
142.48
141.26
139.75
137.55
134.45
130.61
126.42
122.06
117.20
111.01
102.40
90.50
74.97
56.25
35.36
13.77
-6.65
-23.89
-35.96
-41.50
-40.25
-33.35
-23.25
-12.85
-4.57
0.41
2.31
2.37
2.05
2.29
3.24
4.46
5.31
5.47
5.08
4.58
4.38
4.49
4.44
3.57
1.38
-2.04
-6.07
-9.78
-12.46
-14.00
-14.83
-15.75
-17.42
-20.12
-23.65
-27.67
-31.88
-36.11
-40.47
-45.15
-50.29
-55.81
-61.46
-66.78
-71.24
-74.41
-76.10
-76.47
-76.01
-75.39
-75.26
-76.17
-78.45
-82.04
-86.34
-90.15
-91.73
-89.32
-81.74
-69.03
-52.66
-35.06
-18.85
-5.90
3.15
8.82
12.35
14.89
17.13
19.24
21.06
22.37
23.11
23.43
23.46
23.32
22.99
22.40
21.57
20.65
19.91
19.61
19.78
20.18
20.25
19.35
17.06
13.31
8.40
2.91
-2.58
-7.66
-12.20
-16.30
-20.19
-24.06
-27.95
-31.80
-35.40
-38.70
-41.80
-45.00
-48.79
-53.68
-59.95
-67.45
-75.35
-82.20
-86.13
-85.41
-78.99
-67.06
-51.00
-33.14
-15.89
-1.08
10.49
18.96
25.06
29.61
33.22
36.28
38.96
41.34
43.31
44.65
44.98
43.97
41.50
37.72
33.04
28.05
23.29
19.13
15.81
13.33
11.45
9.80
7.86
5.22
1.66
-2.69
-7.40
-11.89
-15.59
-18.25
-19.97
-21.18
-22.49
-24.41
-27.13
-30.42
-33.69
-36.33
-37.93
-38.62
-39.02
-40.09
-42.74
-47.48
-54.06
-61.42
-67.85
-71.38
-70.35
-63.98
-52.66
-37.86
-21.76
-6.47
6.52
16.68
24.15
29.50
33.33
36.06
38.01
39.44
40.62
41.69
42.59
43.12
43.00
42.11
40.65
39.05
37.77
37.17
37.30
38.00
38.92
39.62
39.73
38.97
37.25
34.70
31.58
28.20
24.78
21.34
17.77
13.93
9.73
5.28
0.75
-3.74
-8.17
-12.68
-17.44
-22.54
-27.87
-33.11
-37.95
-42.08
-45.46
-48.29
-51.01
-54.21
-58.41
-63.97
-70.91
-78.71
-86.11
-91.27
-92.16
-87.20
-75.91
-59.30
-39.66
-19.81
-2.22
11.66
21.54
28.15
32.62
35.95
38.85
41.65
44.41
47.10
49.64
51.91
53.73
54.93
55.32
54.82
53.50
51.60
49.48
47.54
46.05
45.06
44.27
43.22
41.40
38.45
34.40
29.59
24.60
20.02
16.22
13.20
10.66
8.16
5.36
2.16
-1.22
-4.47
-7.35
-9.78
-11.98
-14.37
-17.31
-21.04
-25.50
-30.44
-35.44
-40.17
-44.45
-48.31
-52.01
-55.94
-60.51
-65.96
-72.21
-78.64
-83.99
-86.62
-84.69
-76.94
-63.09
-44.17
-22.34
-0.34
19.33
35.02
46.22
53.46
57.76
60.30
61.95
63.26
64.50
65.76
67.03
68.21
69.13
69.49
69.05
67.61
65.11
61.65
57.44
52.79
47.92
43.05
38.23
33.39
28.44
23.30
18.07
12.90
8.02
3.61
-0.35
-4.00
-7.56
-11.19
-14.95
-18.70
-22.32
-25.71
-28.95
-32.21
-35.61
-39.26
-42.99
-46.53
-49.57
-52.11
-54.42
-57.15
-61.09
-66.85
-74.52
-83.43
-92.11
-98.53
-100.64
-96.95
-87.14
-72.12
-53.81
-34.55
-16.42
-0.80
11.76
21.41
28.60
33.98
38.14
41.64
44.84
47.91
50.73
52.95
54.22
54.29
53.20
51.17
48.61
45.92
43.48
41.50
40.03
38.94
37.93
36.59
34.62
31.97
28.80
25.51
22.49
19.94
17.81
15.90
14.03
12.12
10.27
8.57
6.94
5.09
2.56
-1.04
-5.87
-11.71
-18.02
-24.13
-29.52
-34.12
-38.26
-42.71
-48.37
-56.03
-65.96
-77.63
-89.53
-99.30
-104.26
-102.27
-92.48
-75.77
-54.66
-32.49
-12.34
3.84
15.57
23.63
29.41
34.18
38.76
43.37
47.90
52.04
55.46
57.98
59.47
59.96
59.67
58.93
58.20
57.82
57.92
58.34
58.65
58.26
56.65
53.41
48.44
41.97
34.58
26.98
19.88
13.71
8.56
4.18
0.27
-3.39
-6.88
-10.21
-13.46
-16.93
-20.95
-25.80
-31.39
-37.22
-42.62
-46.89
-49.69
-51.14
-51.80
-52.55
-54.39
-58.26
-64.77
-73.98
-85.05
-96.22
-104.89
-108.21
-103.87
-91.01
-70.62
-45.41
-19.03
5.13
24.73
38.97
48.40
54.25
57.92
60.49
62.67
64.76
66.81
68.56
69.61
69.61
68.32
65.89
62.72
59.35
56.29
53.73
51.53
49.33
46.67
43.18
38.70
33.33
27.38
21.21
15.19
9.56
4.43
-0.15
-4.17
-7.52
-10.16
-12.19
-13.90
-15.79
-18.35
-21.82
-26.07
-30.64
-34.96
-38.62
-41.53
-43.98
-46.44
-49.57
-54.08
-60.66
-69.69
-80.81
-92.69
-102.88
-108.35
-106.40
-95.70
-76.99
-52.83
-26.92
-2.89
16.75
31.01
40.23
45.62
48.71
50.80
52.79
55.09
57.74
60.45
62.87
64.68
65.71
65.97
65.52
64.54
63.25
61.98
61.17
61.14
61.80
62.56
62.37
60.06
54.89
46.85
36.86
26.38
16.83
9.07
3.12
-1.79
-6.74
-12.55
-19.40
-26.78
-33.82
-39.65
-43.85
-46.58
-48.56
-50.79
-54.36
-60.22
-68.76
-79.48
-90.75
-99.91
-103.91
-100.33
-88.29
-69.00
-45.46
-21.46
-0.33
15.91
26.93
33.69
37.77
40.64
43.32
46.22
49.37
52.48
55.21
57.17
58.14
58.05
57.02
55.36
53.47
51.75
50.49
49.74
49.28
48.53
46.74
43.19
37.51
29.94
21.33
12.92
5.85
0.73
-2.67
-5.30
-8.38
-12.92
-19.26
-26.90
-34.80
-41.82
-47.25
-51.12
-54.27
-58.10
-64.07
-73.14
-85.35
-99.34
-112.39
-120.93
-121.56
-112.28
-93.31
-67.40
-38.84
-12.06
9.73
25.30
35.32
41.55
45.81
49.36
52.76
56.12
59.36
62.38
65.09
67.36
68.93
69.59
69.26
68.05
66.27
64.27
62.44
60.97
59.73
58.44
56.59
53.72
49.54
44.07
37.58
30.51
23.30
16.19
9.10
1.72
-6.36
-15.44
-25.58
-36.42
-47.29
-57.38
-65.91
-72.48
-77.11
-80.31
-82.97
-86.12
-90.81
-97.79
-107.13
-117.85
-127.74
-133.75
-132.78
-122.80
-103.86
-78.28
-50.03
-23.32
-1.32
14.72
25.39
32.36
37.49
42.07
46.69
51.48
56.24
60.80
64.92
68.34
70.69
71.63
71.02
68.97
65.88
62.39
59.27
57.15
56.41
56.95
58.21
59.27
59.13
57.06
52.83
46.78
39.68
32.54
26.17
20.97
16.75
12.82
8.24
2.30
-5.22
-13.79
-22.38
-29.77
-35.15
-38.44
-40.43
-42.47
-46.08
-52.43
-61.92
-73.92
-86.65
-97.39
-103.06
-101.09
-90.28
-71.51
-47.60
-22.42
0.26
17.96
30.01
37.27
41.34
43.70
45.33
46.68
47.92
49.23
50.77
52.59
54.47
55.92
56.35
55.31
52.72
48.99
44.83
41.00
37.98
35.68
33.51
30.57
26.07
19.69
11.75
3.10
-5.21
-12.35
-18.02
-22.54
-26.66
-31.20
-36.67
-43.11
-50.05
-56.85
-62.97
-68.29
-73.07
-77.99
-83.80
-91.22
-100.68
-111.98
-124.15
-135.24
-142.51
-143.12
-135.00
-117.71
-92.72
-63.06
-32.32
-3.64
21.11
41.37
57.53
70.23
79.96
86.76
90.52
91.08
88.45
82.82
74.48
63.83
51.50
38.28
25.21
13.36
3.65
-3.28
-7.13
-7.92
-5.81
-1.12
5.66
13.87
22.76
31.44
39.01
44.52
46.66
43.76
34.06
16.51
-8.20
-37.16
-65.75
-89.21
-104.63
-112.17
-114.96
-117.53
-123.74
-135.18
-150.95
-168.66
-185.59
-199.73
-209.75
-214.71
-213.74
-206.33
-192.75
-174.56
-154.31
-134.89
-118.56
-106.32
-97.72
-91.28
-85.25
-78.27
-69.78
-60.16
-50.34
-41.33
-33.74
-27.47
-21.80
-15.73
-8.40
0.62
11.26
23.12
35.60
48.06
59.70
69.61
76.90
80.90
81.51
79.22
74.98
69.77
64.28
58.67
52.79
46.32
39.18
31.54
23.84
16.45
9.47
2.59
-4.91
-13.99
-25.63
-40.49
-58.50
-78.52
-98.14
-113.96
-122.44
-120.84
-108.07
-84.98
-54.21
-19.29
16.25
49.61
79.12
104.23
125.35
143.36
159.26
173.74
187.03
198.79
208.51
215.72
220.34
222.71
223.35
222.78
221.34
219.18
216.36
212.85
208.59
203.32
196.60
187.88
176.73
163.17
147.77
131.50
115.46
100.45
86.68
73.81
61.31
48.79
36.25
24.06
12.66
2.27
-7.33
-16.88
-27.31
-39.58
-54.23
-71.06
-88.85
-105.30
-117.45
-122.37
-118.15
-104.64
-83.65
-58.44
-32.61
-9.08
10.60
26.26
38.60
48.52
56.59
62.92
67.31
69.57
69.76
68.32
65.94
63.35
61.15
59.61
58.65
57.91
56.96
55.48
53.39
50.82
47.96
44.84
41.29
36.89
31.19
23.84
14.75
4.14
-7.47
-19.40
-30.96
-41.70
-51.46
-60.52
-69.59
-79.72
-91.95
-107.01
-124.66
-143.38
-160.36
-171.98
-174.81
-166.80
-148.09
-121.18
-90.08
-59.15
-31.75
-9.47
7.76
21.07
31.81
40.83
48.33
54.01
57.50
58.61
57.54
54.85
51.23
47.38
43.83
40.83
38.31
35.93
33.14
29.31
23.98
16.89
8.14
-1.96
-13.12
-25.24
-38.65
-53.89
-71.56
-91.87
-114.28
-137.43
-159.05
-176.35
-186.66
-188.11
-180.40
-165.22
-146.05
-127.35
-113.01
-104.93
-102.14
-100.90
-96.13
-83.11
-59.24
-24.90
16.95
61.89
105.63
145.03
178.59
206.11
228.01
244.80
256.96
265.04
269.79
272.12
272.84
272.26
270.21
266.32
260.79
254.55
248.97
244.85
241.53
236.64
227.09
210.44
186.18
155.94
122.62
89.08
57.01
26.84
-1.56
-28.18
-52.49
-73.84
-92.07
-107.93
-122.79
-137.97
-154.13
-171.10
-188.11
-204.29
-219.02
-231.74
-241.71
-247.59
-247.64
-240.31
-224.98
-202.64
-175.67
-147.13
-119.62
-94.62
-72.25
-51.68
-31.94
-12.26
7.58
27.57
47.60
67.50
87.10
105.94
123.23
137.94
149.20
156.61
160.53
161.97
162.27
162.44
162.80
162.89
161.70
158.33
152.34
144.10
134.49
124.65
115.63
108.01
101.73
95.95
89.25
80.05
67.21
50.61
31.32
11.38
-7.08
-22.62
-35.10
-45.73
-56.51
-69.40
-85.41
-104.00
-122.96
-138.88
-148.03
-147.51
-136.17
-115.04
-87.02
-56.11
-26.31
-0.58
19.57
34.09
43.97
50.67
55.57
59.57
63.04
65.91
67.80
68.32
67.22
64.55
60.59
55.92
51.22
47.14
44.18
42.39
41.36
40.29
38.27
34.63
29.21
22.33
14.67
6.89
-0.58
-7.59
-14.17
-20.37
-26.17
-31.45
-36.07
-39.97
-43.18
-45.86
-48.41
-51.53
-56.26
-63.66
-74.39
-87.96
-102.44
-114.55
-120.57
-117.56
-104.53
-82.83
-55.72
-27.22
-0.78
21.53
39.15
52.63
62.82
70.34
75.41
77.98
78.05
75.92
72.11
67.25
61.85
56.14
50.16
43.94
37.69
31.69
26.31
21.73
17.76
14.00
9.91
5.17
-0.30
-6.24
-12.23
-17.92
-23.10
-27.75
-32.03
-36.14
-40.28
-44.56
-49.07
-53.91
-59.27
-65.61
-73.57
-83.69
-96.06
-109.78
-122.92
-132.66
-136.18
-131.56
-118.60
-98.94
-75.52
-51.73
-30.26
-12.58
1.11
11.55
19.76
26.67
32.79
38.23
42.85
46.26
48.00
47.69
45.16
40.57
34.48
27.76
21.28
15.58
10.67
6.08
1.07
-4.97
-12.24
-20.47
-29.15
-37.86
-46.40
-54.89
-63.59
-72.68
-82.03
-91.21
-99.61
-106.59
-111.75
-114.95
-116.37
-116.45
-115.92
-115.82
-117.28
-121.20
-127.67
-135.34
-141.51
-142.63
-135.51
-118.63
-92.75
-60.85
-27.09
4.60
31.54
52.77
68.73
80.63
89.84
97.42
104.07
110.07
115.46
120.08
123.69
126.12
127.33
127.42
126.59
125.09
123.27
121.37
119.56
117.85
115.87
113.02
108.60
102.13
93.56
83.34
72.30
61.18
50.50
40.26
30.19
19.91
9.22
-1.71
-12.44
-22.52
-31.73
-40.30
-48.91
-58.56
-70.26
-84.66
-101.71
-120.50
-139.12
-154.94
-165.20
-167.83
-162.13
-149.14
-131.37
-111.92
-93.40
-77.27
-63.63
-51.62
-40.17
-28.54
-16.60
-4.72
6.52
16.53
24.92
31.39
35.87
38.45
39.43
39.40
39.05
39.00
39.57
40.63
41.69
42.02
41.00
38.36
34.29
29.32
24.14
19.22
14.64
10.09
5.07
-0.85
-7.77
-15.43
-23.30
-30.90
-37.97
-44.62
-51.33
-58.77
-67.70
-78.65
-91.57
-105.64
-118.94
-128.69
-131.99
-126.71
-112.37
-90.47
-64.06
-36.78
-11.66
9.59
26.82
40.88
53.00
64.09
74.54
84.19
92.63
99.48
104.54
107.90
109.96
111.18
112.16
113.34
115.01
117.12
119.37
121.36
122.77
123.58
124.04
124.56
125.37
126.33
126.94
126.55
124.63
121.02
115.90
109.65
102.60
94.85
86.32
76.88
66.46
54.92
42.06
27.54
11.22
-6.43
-23.83
-38.30
-46.64
-46.32
-36.59
-19.09
2.55
23.94
41.37
52.83
58.16
58.45
55.07
49.10
41.08
31.24
19.89
7.55
-5.11
-17.35
-28.60
-38.40
-46.52
-52.82
-57.37
-60.46
-62.51
-64.16
-66.04
-68.73
-72.65
-77.96
-84.50
-91.92
-99.61
-106.94
-113.35
-118.42
-121.97
-124.07
-124.90
-124.73
-123.79
-122.35
-120.77
-119.67
-119.86
-122.12
-126.75
-133.24
-140.17
-145.50
-147.21
-144.03
-135.79
-123.48
-108.81
-93.61
-79.27
-66.46
-55.16
-44.83
-34.92
-25.07
-15.29
-5.99
2.27
8.97
13.77
16.70
18.04
18.31
18.11
18.02
18.46
19.56
21.15
22.79
23.90
23.90
22.53
19.86
16.33
12.51
8.88
5.61
2.55
-0.69
-4.48
-8.96
-13.91
-18.81
-23.08
-26.26
-28.35
-29.82
-31.62
-34.92
-40.79
-49.73
-61.21
-73.42
-83.33
-87.28
-82.11
-66.41
-41.27
-10.19
21.99
50.85
73.76
90.49
102.66
112.46
121.43
129.74
136.43
140.01
139.32
133.98
124.46
111.82
97.62
83.53
71.08
61.26
54.32
49.59
45.65
40.87
33.88
24.05
11.59
-2.67
-17.56
-31.96
-44.86
-55.59
-63.78
-69.51
-73.30
-76.13
-79.06
-82.94
-87.97
-93.60
-98.68
-101.86
-102.24
-99.73
-95.30
-90.70
-87.96
-88.72
-93.70
-102.37
-112.93
-122.70
-128.56
-127.78
-118.76
-101.53
-77.89
-50.87
-23.92
0.16
19.76
34.68
45.64
53.78
60.19
65.59
70.48
75.13
79.84
84.79
90.17
96.02
102.28
108.85
115.50
121.88
127.49
131.60
133.46
132.53
128.84
123.14
116.81
111.30
107.48
105.15
103.13
99.96
94.67
87.42
79.23
71.15
63.25
54.34
42.41
25.83
4.44
-20.15
-45.17
-67.94
-86.99
-102.50
-115.88
-128.85
-142.54
-157.01
-171.31
-183.84
-192.68
-195.84
-191.60
-178.87
-157.56
-128.88
-95.36
-60.30
-27.14
1.39
23.76
39.89
50.79
58.15
63.66
68.72
73.98
79.42
84.51
88.51
90.78
90.94
89.08
85.63
81.24
76.39
71.39
66.15
60.33
53.47
45.19
35.40
24.36
12.61
0.88
-10.12
-19.88
-28.18
-35.15
-41.14
-46.50
-51.45
-55.90
-59.58
-62.25
-63.88
-64.91
-66.13
-68.55
-73.01
-79.73
-88.02
-95.96
-100.80
-99.57
-90.17
-72.09
-46.96
-17.99
10.92
36.47
56.79
71.68
82.24
89.94
95.93
100.62
103.78
104.77
103.00
98.31
90.94
81.50
70.57
58.56
45.60
31.59
16.38
-0.03
-17.40
-35.14
-52.40
-67.98
-80.57
-88.95
-92.31
-90.57
-84.44
-75.30
-64.74
-54.11
-44.18
-34.97
-25.89
-16.12
-4.81
8.34
22.87
37.42
49.92
58.14
60.32
55.69
44.67
28.55
9.26
-11.06
-30.10
-45.50
-55.06
-57.28
-51.86
-40.12
-24.63
-8.44
6.06
17.92
27.83
37.53
48.81
62.69
78.81
95.67
111.17
123.30
130.79
133.19
131.00
125.17
116.80
106.86
96.03
84.65
72.85
60.73
48.50
36.44
24.87
13.98
3.74
-6.10
-15.63
-24.64
-32.44
-38.15
-41.14
-41.56
-40.44
-39.59
-40.83
-45.19
-52.49
-61.28
-69.48
-75.26
-77.72
-77.17
-74.93
-72.62
-71.56
-72.29
-74.44
-76.88
-77.90
-75.66
-68.46
-55.15
-35.48
-10.34
18.19
47.21
73.74
95.51
111.59
122.57
129.95
135.33
139.67
142.92
144.40
143.41
139.78
133.93
126.59
118.20
108.73
97.81
85.16
70.91
55.81
40.82
26.71
13.61
0.84
-12.73
-28.10
-45.43
-63.91
-82.15
-99.19
-115.44
-132.90
-154.34
-181.70
-214.47
-249.19
-280.46
-303.01
-313.81
-312.89
-302.87
-287.30
-268.92
-249.01
-227.58
-204.28
-179.21
-153.35
-128.13
-104.92
-84.56
-67.01
-51.68
-37.51
-23.67
-9.59
4.89
19.73
34.82
50.17
65.87
81.86
97.87
113.40
127.93
141.12
152.91
163.46
173.05
181.94
190.33
198.31
205.73
212.02
215.95
215.79
209.44
195.11
172.20
141.83
107.05
72.21
41.72
18.75
4.16
-3.48
-7.11
-9.76
-13.35
-18.24
-23.59
-28.39
-32.27
-35.86
-40.44
-47.22
-56.71
-68.64
-82.20
-96.28
-109.55
-120.16
-125.56
-122.85
-109.79
-86.20
-54.68
-20.28
10.99
34.25
47.36
51.14
48.51
42.81
36.58
30.98
25.95
20.78
14.39
5.76
-5.77
-20.01
-35.53
-49.60
-58.85
-60.50
-53.50
-39.21
-21.07
-3.47
9.68
15.94
14.75
7.00
-5.61
-21.04
-37.22
-52.14
-64.01
-71.61
-74.65
-73.98
-71.35
-68.89
-68.42
-71.10
-77.32
-86.96
-99.63
-114.61
-130.62
-145.58
-156.78
-161.38
-157.42
-144.53
-124.09
-98.86
-72.05
-46.37
-23.40
-3.60
13.44
28.48
42.29
55.37
67.81
79.39
89.63
98.10
104.69
109.71
113.74
117.25
120.48
123.30
125.41
126.60
126.87
126.30
124.87
122.27
117.98
111.62
103.20
93.23
82.51
71.72
61.11
50.46
39.35
27.50
15.01
2.50
-9.24
-19.51
-28.10
-35.54
-42.94
-51.70
-62.87
-76.69
-92.04
-106.54
-117.06
-120.58
-115.26
-101.07
-79.92
-55.01
-29.86
-7.14
11.82
27.18
40.04
51.69
62.94
73.87
83.99
92.54
99.02
103.31
105.65
106.44
105.91
104.15
101.18
97.18
92.65
88.23
84.58
81.99
80.34
79.10
77.52
74.87
70.66
64.71
57.25
48.75
39.82
31.06
22.84
15.26
8.12
0.95
-6.94
-16.36
-28.14
-42.71
-59.64
-77.34
-93.02
-103.35
-105.54
-98.41
-82.99
-62.17
-39.79
-19.24
-2.60
9.67
18.33
24.66
29.76
34.28
38.42
42.13
45.25
47.57
48.90
49.13
48.35
46.90
45.38
44.43
44.55
45.85
47.97
50.29
52.06
52.67
51.87
49.71
46.40
42.09
36.76
30.23
22.31
13.01
2.67
-8.02
-18.23
-27.29
-34.93
-41.43
-47.54
-54.24
-62.52
-72.98
-85.52
-99.04
-111.36
-119.67
-121.08
-113.83
-97.90
-75.30
-49.54
-24.42
-2.94
13.46
25.01
33.01
39.01
44.25
49.26
54.06
58.34
61.75
64.13
65.55
66.23
66.48
66.54
66.54
66.53
66.48
66.46
66.49
66.49
66.22
65.22
62.91
58.79
52.56
44.24
34.25
23.28
12.20
1.75
-7.61
-15.98
-23.85
-32.01
-41.23
-52.09
-64.77
-78.93
-93.66
-107.29
-117.56
-122.07
-118.92
-107.48
-88.85
-65.68
-41.36
-18.96
-0.39
13.94
24.77
33.39
40.92
48.00
54.75
60.96
66.29
70.44
73.24
74.63
74.64
73.44
71.34
68.70
65.89
63.20
60.71
58.23
55.37
51.76
47.04
41.13
34.18
26.50
18.37
10.01
1.58
-6.82
-15.05
-22.93
-30.29
-37.10
-43.56
-50.05
-57.12
-65.37
-75.38
-87.53
-101.68
-116.77
-130.76
-140.80
-144.07
-138.82
-125.13
-105.14
-82.29
-60.18
-41.44
-27.12
-16.82
-9.24
-2.97
3.01
9.21
15.65
22.03
27.98
33.11
37.15
39.94
41.51
42.04
41.80
41.18
40.67
40.71
41.55
43.16
45.09
46.53
46.67
44.86
40.94
35.30
28.74
22.20
16.38
11.39
6.80
1.75
-4.56
-12.53
-21.86
-31.67
-40.90
-48.72
-54.91
-60.02
-65.20
-71.72
-80.56
-91.87
-104.68
-116.83
-125.43
-127.66
-121.68
-107.33
-86.25
-61.43
-36.22
-13.46
5.27
19.70
30.64
39.30
46.83
53.88
60.71
67.10
72.72
77.26
80.51
82.51
83.41
83.55
83.34
83.22
83.60
84.70
86.52
88.75
90.79
91.88
91.32
88.58
83.63
76.88
69.16
61.43
54.42
48.41
43.03
37.56
31.14
23.28
14.08
4.17
-5.48
-14.15
-21.60
-28.22
-34.97
-42.87
-52.78
-65.03
-79.19
-93.91
-106.97
-115.65
-117.39
-110.72
-95.82
-74.70
-50.60
-26.92
-6.23
10.33
22.92
32.50
40.10
46.47
51.96
56.69
60.74
64.15
66.94
68.98
70.12
70.26
69.56
68.48
67.60
67.49
68.33
69.86
71.37
72.00
70.93
67.77
62.58
55.86
48.41
41.03
34.30
28.37
22.90
17.26
10.78
3.16
-5.47
-14.49
-23.15
-30.97
-37.88
-44.34
-51.10
-59.00
-68.58
-79.86
-91.99
-103.24
-111.15
-113.27
-107.94
-95.10
-76.47
-54.98
-33.82
-15.38
-0.65
10.61
19.41
26.83
33.61
40.07
46.15
51.67
56.40
60.09
62.57
63.69
63.57
62.37
60.49
58.37
56.46
55.11
54.45
54.36
54.42
53.96
52.34
49.13
44.32
38.32
31.87
25.72
20.37
15.88
11.86
7.70
2.89
-2.72
-8.76
-14.71
-20.07
-24.76
-29.17
-34.09
-40.34
-48.55
-58.85
-70.84
-83.40
-94.78
-102.85
-105.60
-101.75
-91.39
-75.97
-57.99
-40.11
-24.44
-11.93
-2.42
4.98
11.32
17.30
23.13
28.53
33.02
36.12
37.63
37.62
36.47
34.68
32.75
31.09
29.95
29.47
29.66
30.32
31.04
31.27
30.41
28.11
24.38
19.62
14.43
9.34
4.62
0.06
-4.80
-10.44
-17.07
-24.50
-32.14
-39.25
-45.27
-50.06
-53.99
-57.79
-62.37
-68.57
-76.74
-86.56
-96.79
-105.41
-110.00
-108.47
-99.89
-84.96
-65.86
-45.51
-26.54
-10.52
2.24
12.32
20.58
27.68
33.87
39.27
43.97
48.14
51.89
55.11
57.53
58.72
58.41
56.64
53.78
50.45
47.28
44.71
42.90
41.69
40.69
39.45
37.60
34.94
31.48
27.42
23.08
18.80
14.74
10.90
7.03
2.83
-1.99
-7.44
-13.31
-19.20
-24.79
-30.03
-35.17
-40.76
-47.47
-55.84
-66.08
-77.84
-90.01
-100.77
-107.81
-108.99
-103.10
-90.41
-72.74
-52.91
-33.81
-17.51
-4.83
4.60
11.81
17.85
23.49
29.07
34.63
40.11
45.29
49.91
53.62
56.08
57.08
56.61
54.88
52.32
49.47
46.92
45.04
43.99
43.52
43.05
41.83
39.22
34.93
29.16
22.55
15.94
10.10
5.40
1.73
-1.44
-4.84
-9.10
-14.57
-21.14
-28.33
-35.50
-42.06
-47.65
-52.37
-56.69
-61.40
-67.41
-75.37
-85.34
-96.51
-107.08
-114.63
-116.77
-111.97
-100.18
-82.97
-63.02
-43.28
-26.04
-12.38
-2.10
5.84
12.66
19.30
26.10
32.91
39.26
44.67
48.83
51.57
53.01
53.33
52.84
51.85
50.68
49.57
48.63
47.87
47.15
46.17
44.57
41.94
37.96
32.57
25.95
18.65
11.39
4.85
-0.56
-4.78
-8.05
-10.77
-13.33
-16.00
-18.96
-22.27
-25.93
-29.84
-33.89
-37.99
-42.18
-46.76
-52.14
-58.87
-67.34
-77.62
-89.18
-100.72
-110.25
-115.46
-114.31
-105.79
-90.40
-70.12
-47.84
-26.48
-8.14
6.34
17.28
25.61
32.41
38.45
44.09
49.44
54.47
59.06
63.13
66.60
69.35
71.32
72.43
72.65
72.10
71.03
69.88
69.04
68.68
68.54
67.98
66.25
62.84
57.76
51.56
45.08
39.10
33.97
29.58
25.41
20.85
15.46
9.12
2.09
-5.12
-12.01
-18.31
-24.07
-29.66
-35.72
-42.92
-51.86
-62.80
-75.41
-88.56
-100.23
-107.93
-109.34
-103.23
-89.95
-71.48
-50.78
-30.74
-13.36
0.64
11.67
20.62
28.34
35.31
41.63
47.25
52.11
56.16
59.37
61.65
62.76
62.53
60.93
58.24
54.96
51.81
49.40
48.11
47.83
48.04
47.87
46.43
43.15
38.00
31.51
24.55
17.99
12.41
7.81
3.77
-0.37
-5.20
-10.92
-17.31
-23.76
-29.63
-34.49
-38.24
-41.20
-43.95
-47.24
-51.89
-58.55
-67.47
-78.14
-89.05
-97.90
-102.14
-99.85
-90.54
-75.43
-57.12
-38.60
-22.31
-9.44
0.11
7.33
13.40
19.19
25.07
30.94
36.46
41.24
44.96
47.45
48.70
48.90
48.42
47.74
47.37
47.67
48.71
50.28
51.80
52.55
51.87
49.31
44.90
39.06
32.51
26.02
20.11
14.88
9.98
4.79
-1.25
-8.29
-15.92
-23.36
-29.78
-34.75
-38.46
-41.83
-46.15
-52.64
-62.00
-73.93
-86.97
-98.63
-106.05
-106.80
-99.78
-85.67
-66.75
-46.14
-26.78
-10.50
2.18
11.84
19.53
26.24
32.55
38.65
44.44
49.68
54.01
57.07
58.54
58.26
56.34
53.15
49.17
44.89
40.67
36.59
32.56
28.37
23.84
18.86
13.41
7.71
2.00
-3.41
-8.31
-12.63
-16.55
-20.38
-24.52
-29.23
-34.48
-39.93
-45.04
-49.39
-52.93
-56.17
-59.99
-65.49
-73.51
-84.38
-97.59
-111.76
-124.73
-133.86
-136.74
-131.88
-119.37
-101.02
-79.94
-59.63
-42.92
-31.16
-24.06
-20.20
-17.69
-14.99
-11.32
-6.66
-1.47
3.73
8.59
13.11
17.52
22.03
26.71
31.45
36.00
40.17
43.95
47.52
51.04
54.55
57.84
60.46
61.95
61.97
60.43
57.59
53.82
49.54
45.05
40.47
35.64
30.26
23.99
16.60
8.16
-0.94
-10.10
-18.75
-26.58
-33.67
-40.53
-48.00
-57.01
-68.22
-81.71
-96.55
-110.78
-121.72
-126.63
-123.56
-112.08
-93.47
-70.38
-45.94
-22.97
-3.26
12.51
24.69
34.15
41.93
48.95
55.79
62.69
69.60
76.23
82.22
87.14
90.60
92.38
92.50
91.31
89.43
87.65
86.61
86.62
87.48
88.53
88.81
87.50
84.09
78.65
71.72
64.13
56.72
50.05
44.28
39.09
33.91
28.09
21.25
13.41
4.98
-3.46
-11.35
-18.45
-24.92
-31.30
-38.33
-46.81
-57.31
-69.85
-83.71
-97.11
-107.53
-112.21
-109.04
-97.28
-77.99
-53.79
-28.00
-3.71
16.95
33.16
45.13
53.77
60.13
65.08
69.10
72.44
74.99
76.53
76.82
75.78
73.58
70.62
67.45
64.70
62.79
61.91
61.84
62.05
61.73
60.15
56.77
51.50
44.77
37.37
30.17
23.81
18.52
13.99
9.62
4.79
-0.82
-7.16
-13.80
-20.18
-25.82
-30.58
-34.78
-39.16
-44.78
-52.59
-63.04
-75.60
-88.58
-99.38
-105.16
-103.74
-94.40
-78.22
-57.70
-35.96
-15.77
1.16
14.49
24.89
33.53
41.43
49.07
56.33
62.71
67.65
70.81
72.20
72.21
71.29
69.91
68.29
66.57
64.81
63.13
61.73
60.72
60.00
59.19
57.65
54.77
50.25
44.28
37.52
30.87
25.07
20.40
16.57
12.90
8.52
2.82
-4.39
-12.77
-21.62
-30.08
-37.47
-43.52
-48.47
-52.96
-57.86
-63.96
-71.73
-81.06
-91.08
-100.17
-106.21
-107.14
-101.65
-89.67
-72.56
-52.74
-32.92
-15.33
-1.20
9.39
17.10
22.95
27.92
32.61
37.34
42.03
46.43
50.21
53.11
55.00
55.86
55.78
54.88
53.33
51.35
49.18
47.19
45.59
44.51
43.75
42.87
41.31
38.57
34.50
29.32
23.57
17.89
12.82
8.56
4.94
1.55
-2.12
-6.44
-11.52
-17.11
-22.74
-27.91
-32.34
-36.12
-39.76
-43.97
-49.51
-56.82
-65.91
-76.21
-86.45
-94.78
-99.16
-97.82
-90.05
-76.49
-59.13
-40.66
-23.57
-9.45
1.33
9.38
15.69
21.10
26.03
30.53
34.39
37.44
39.55
40.71
40.97
40.44
39.31
37.85
36.40
35.38
35.10
35.65
36.83
38.11
38.90
38.65
37.04
34.12
30.19
25.72
21.20
17.01
13.28
9.79
6.00
1.33
-4.59
-11.62
-19.07
-25.96
-31.45
-35.20
-37.65
-39.76
-42.71
-47.42
-54.28
-62.86
-71.98
-79.87
-84.52
-84.25
-78.18
-66.62
-51.10
-33.98
-17.67
-3.98
6.29
13.43
18.40
22.30
25.98
29.66
33.10
35.84
37.48
37.97
37.57
36.82
36.20
35.96
36.11
36.45
36.80
37.08
37.26
37.38
37.32
36.77
35.28
32.47
28.20
22.65
16.29
9.70
3.41
-2.35
-7.65
-12.79
-18.03
-23.41
-28.74
-33.61
-37.63
-40.61
-42.77
-44.60
-46.82
-50.17
-55.21
-62.04
-70.19
-78.53
-85.33
-88.71
-87.15
-80.00
-67.78
-51.94
-34.50
-17.50
-2.50
9.64
18.72
25.10
29.49
32.68
35.35
37.86
40.29
42.45
44.10
45.15
45.55
45.41
44.76
43.65
42.15
40.48
38.93
37.83
37.27
37.14
37.01
36.32
34.54
31.35
26.76
21.08
14.89
8.82
3.33
-1.55
-6.10
-10.86
-16.25
-22.32
-28.75
-34.94
-40.30
-44.57
-47.93
-50.94
-54.38
-59.02
-65.40
-73.51
-82.52
-90.82
-96.26
-96.73
-90.95
-79.03
-62.54
-43.97
-26.02
-10.78
0.80
8.83
14.17
17.96
21.19
24.47
28.02
31.74
35.27
38.25
40.29
41.13
40.69
39.07
36.59
33.71
30.89
28.47
26.58
25.12
23.85
22.46
20.67
18.30
15.29
11.77
7.99
4.34
1.14
-1.46
-3.65
-5.96
-9.01
-13.34
-19.14
-26.18
-33.79
-41.19
-47.66
-52.87
-57.07
-60.93
-65.45
-71.54
-79.73
-89.83
-100.91
-111.35
-119.11
-122.17
-119.11
-109.56
-94.39
-75.58
-55.64
-36.97
-21.12
-8.67
0.78
8.12
14.23
19.82
25.22
30.54
35.78
40.88
45.77
50.37
54.59
58.37
61.64
64.36
66.51
68.10
69.15
69.73
69.85
69.49
68.55
66.86
64.33
60.90
56.69
51.80
46.22
39.77
32.12
22.93
12.15
0.23
-11.99
-23.47
-33.37
-41.29
-47.46
-52.59
-57.61
-63.48
-70.92
-80.33
-91.55
-103.70
-115.08
-123.43
-126.52
-122.82
-112.15
-95.92
-76.63
-57.17
-39.87
-26.05
-15.83
-8.47
-2.80
2.38
8.06
14.87
23.02
32.29
42.07
51.57
60.03
66.86
71.85
75.09
76.96
77.97
78.74
79.72
81.13
82.74
83.91
83.76
81.56
77.06
70.58
62.92
55.08
47.87
41.72
36.57
32.02
27.50
22.46
16.54
9.65
2.00
-5.95
-13.61
-20.45
-26.28
-31.29
-36.19
-41.95
-49.59
-59.73
-72.18
-85.62
-97.70
-105.54
-106.56
-99.47
-84.69
-64.35
-41.52
-19.25
0.34
16.40
29.10
39.26
47.75
55.14
61.68
67.36
72.02
75.51
77.69
78.43
77.66
75.37
71.71
67.00
61.80
56.79
52.57
49.45
47.31
45.66
43.85
41.31
37.82
33.55
28.99
24.70
21.09
18.21
15.69
12.91
9.18
4.12
-2.27
-9.54
-17.00
-23.96
-30.05
-35.26
-40.03
-45.08
-51.15
-58.89
-68.58
-79.89
-91.72
-102.13
-108.74
-109.30
-102.49
-88.45
-68.95
-46.79
-24.97
-5.76
9.84
22.08
32.01
40.72
48.92
56.66
63.59
69.22
73.16
75.33
75.80
74.83
72.70
69.84
66.76
64.22
62.95
63.49
65.99
69.94
74.34
77.94
79.52
78.30
74.06
67.09
58.05
47.70
36.69
25.52
14.64
4.48
-4.63
-12.49
-19.16
-25.01
-30.58
-36.31
-42.34
-48.44
-54.25
-59.41
-63.90
-68.04
-72.53
-78.17
-85.69
-95.39
-106.77
-118.35
-127.80
-132.47
-130.19
-120.08
-103.02
-81.26
-57.79
-35.44
-16.09
-0.49
11.51
20.58
27.52
33.08
37.88
42.37
46.87
51.39
55.73
59.51
62.42
64.33
65.33
65.83
66.35
67.43
69.24
71.54
73.67
74.71
73.84
70.56
64.87
57.27
48.50
39.45
30.86
23.22
16.68
11.01
5.77
0.43
-5.37
-11.67
-18.18
-24.41
-29.91
-34.49
-38.30
-41.75
-45.46
-50.15
-56.41
-64.49
-74.03
-83.80
-91.89
-96.09
-94.60
-86.77
-73.31
-56.16
-37.81
-20.54
-5.78
5.95
14.86
21.50
26.47
30.29
33.43
36.27
39.09
41.93
44.53
46.48
47.49
47.50
46.77
45.73
44.83
44.32
44.19
44.25
44.20
43.68
42.44
40.34
37.39
33.74
29.57
25.07
20.34
15.35
10.11
4.64
-0.94
-6.47
-11.89
-17.28
-22.90
-29.06
-36.05
-44.04
-52.93
-62.30
-71.33
-78.74
-83.08
-83.01
-77.80
-67.63
-53.64
-37.62
-21.49
-6.87
5.39
15.15
22.76
28.86
34.01
38.56
42.49
45.49
47.22
47.49
46.42
44.49
42.31
40.29
38.54
36.89
35.07
32.95
30.65
28.48
26.69
25.32
24.10
22.56
20.14
16.48
11.47
5.39
-1.31
-8.08
-14.40
-20.01
-24.89
-29.13
-33.06
-37.06
-41.71
-47.62
-55.23
-64.45
-74.40
-83.32
-89.00
-89.43
-83.58
-71.82
-55.91
-38.37
-21.69
-7.53
3.46
11.65
17.85
22.94
27.31
30.96
33.65
35.13
35.44
34.91
34.09
33.50
33.48
34.08
35.05
36.00
36.56
36.47
35.63
34.08
31.86
29.04
25.57
21.43
16.59
11.13
5.18
-0.97
-7.01
-12.66
-17.68
-21.94
-25.46
-28.43
-31.34
-34.89
-39.90
-46.98
-56.03
-65.96
-74.79
-80.09
-79.89
-73.33
-61.04
-44.92
-27.43
-10.84
3.35
14.61
23.14
29.56
34.56
38.75
42.55
46.13
49.50
52.48
54.78
56.14
56.39
55.56
53.89
51.79
49.79
48.33
47.57
47.24
46.69
45.09
41.78
36.60
29.92
22.54
15.34
8.86
3.20
-1.94
-7.06
-12.48
-18.22
-23.96
-29.23
-33.71
-37.34
-40.49
-43.77
-47.92
-53.57
-60.94
-69.65
-78.58
-85.90
-89.48
-87.36
-78.68
-63.98
-45.24
-25.31
-7.01
7.75
18.37
25.41
30.08
33.69
37.11
40.71
44.36
47.61
49.89
50.75
49.98
47.79
44.68
41.29
38.17
35.63
33.67
32.15
30.86
29.53
27.90
25.61
22.25
17.60
11.69
5.00
-1.67
-7.54
-12.16
-15.68
-18.74
-22.08
-26.20
-30.98
-35.80
-39.79
-42.40
-43.67
-44.32
-45.46
-48.29
-53.60
-61.48
-71.13
-80.91
-88.62
-92.12
-89.89
-81.57
-68.08
-51.31
-33.44
-16.38
-1.38
11.08
21.13
29.14
35.61
41.00
45.59
49.42
52.27
53.73
53.45
51.44
48.07
44.02
40.11
36.92
34.62
33.04
31.74
30.20
28.00
24.86
20.70
15.55
9.55
2.92
-4.17
-11.54
-19.08
-26.65
-34.03
-40.88
-46.87
-51.72
-55.35
-58.03
-60.24
-62.68
-66.08
-71.02
-77.67
-85.58
-93.59
-99.94
-102.62
-100.01
-91.42
-77.43
-59.75
-40.73
-22.57
-6.83
6.02
16.34
25.09
33.23
41.39
49.67
57.69
64.83
70.48
74.31
76.27
76.62
75.79
74.22
72.35
70.48
68.83
67.45
66.22
64.94
63.23
60.75
57.23
52.67
47.30
41.50
35.73
30.28
25.07
19.73
13.84
7.07
-0.54
-8.60
-16.43
-23.41
-29.16
-33.73
-37.68
-41.91
-47.45
-55.08
-64.96
-76.37
-87.73
-96.84
-101.48
-100.10
-92.19
-78.59
-61.18
-42.41
-24.55
-9.18
3.12
12.66
20.37
27.26
34.03
40.91
47.67
53.82
58.90
62.67
65.24
66.94
68.14
69.13
69.97
70.55
70.66
70.22
69.23
67.78
65.90
63.46
60.25
56.04
50.78
44.67
38.08
31.45
25.19
19.53
14.56
10.18
6.19
2.28
-1.90
-6.61
-11.95
-17.70
-23.41
-28.64
-33.10
-36.86
-40.29
-43.94
-48.42
-54.19
-61.54
-70.30
-79.78
-88.59
-94.78
-96.35
-91.84
-80.94
-64.79
-45.62
-26.15
-8.67
5.46
16.03
23.71
29.68
35.07
40.71
46.87
53.43
59.86
65.61
70.19
73.38
75.31
76.39
77.18
78.28
80.13
82.89
86.29
89.70
92.10
92.34
89.45
82.94
73.04
60.67
47.23
34.24
22.86
13.65
6.52
0.88
-3.92
-8.30
-12.31
-15.67
-18.09
-19.48
-20.15
-20.70
-21.82
-24.01
-27.31
-31.42
-35.82
-40.01
-43.77
-47.29
-51.10
-55.84
-61.98
-69.61
-78.21
-86.67
-93.43
-96.84
-95.52
-88.83
-77.15
-61.80
-44.78
-28.20
-13.76
-2.42
5.70
11.10
14.59
17.06
19.21
21.54
24.23
27.25
30.31
33.03
35.17
36.65
37.65
38.43
39.23
40.12
41.01
41.73
42.13
42.14
41.69
40.72
39.08
36.68
33.49
29.69
25.58
21.60
18.05
15.04
12.41
9.74
6.56
2.56
-2.26
-7.60
-12.97
-17.84
-21.93
-25.20
-27.80
-30.04
-32.28
-34.90
-38.29
-42.79
-48.35
-54.44
-59.90
-63.17
-62.75
-57.84
-48.56
-36.12
-22.40
-9.40
1.38
9.22
14.15
16.79
17.87
18.05
17.73
17.06
16.11
14.94
13.73
12.67
11.95
11.60
11.50
11.48
11.36
11.15
11.07
11.43
12.56
14.40
16.59
18.40
19.05
18.02
15.29
11.36
7.04
3.10
-0.04
-2.49
-4.73
-7.45
-11.23
-16.19
-22.06
-28.15
-33.57
-37.61
-39.93
-40.66
-40.48
-40.36
-41.39
-44.42
-49.82
-57.19
-65.27
-72.09
-75.40
-73.37
-65.22
-51.53
-34.20
-15.79
1.26
15.26
25.62
32.61
37.08
39.92
41.79
43.09
43.96
44.39
44.37
43.96
43.34
42.67
42.14
41.85
41.77
41.95
42.46
43.54
45.30
47.62
49.92
51.31
50.80
47.75
42.13
34.57
26.08
17.60
9.66
2.28
-4.89
-12.27
-19.97
-27.71
-34.89
-40.71
-44.54
-46.04
-45.26
-42.66
-39.02
-35.32
-32.69
-32.26
-34.98
-41.33
-50.94
-62.45
-73.55
-81.58
-84.27
-80.55
-71.00
-57.58
-43.11
-30.28
-20.94
-15.87
-14.80
-16.79
-20.59
-24.88
-28.52
-30.61
-30.68
-28.65
-24.81
-19.70
-13.80
-7.61
-1.46
4.50
10.21
15.80
21.44
27.29
33.34
39.30
44.65
48.82
51.40
52.28
51.60
49.63
46.53
42.24
36.61
29.56
21.27
12.26
3.22
-5.08
-12.07
-17.57
-21.78
-25.22
-28.70
-33.11
-39.26
-47.63
-58.14
-69.89
-81.17
-89.81
-93.69
-91.46
-83.03
-69.66
-53.54
-37.14
-22.44
-10.51
-1.48
5.13
10.01
13.73
16.64
18.98
20.95
22.83
24.80
26.97
29.22
31.34
33.13
34.49
35.60
36.71
38.16
40.09
42.34
44.44
45.68
45.34
42.93
38.44
32.42
25.75
19.39
13.95
9.47
5.46
1.18
-3.99
-10.24
-17.34
-24.73
-31.86
-38.48
-44.68
-50.97
-57.97
-66.22
-75.86
-86.40
-96.60
-104.63
-108.58
-107.01
-99.53
-86.86
-70.63
-52.85
-35.28
-19.17
-5.11
6.81
16.90
25.60
33.43
40.78
47.81
54.40
60.22
64.89
68.21
70.24
71.21
71.46
71.26
70.77
70.16
69.62
69.28
69.20
69.20
68.83
67.50
64.64
59.98
53.58
45.84
37.42
28.99
21.02
13.70
6.80
-0.09
-7.42
-15.47
-24.19
-33.18
-41.89
-49.82
-56.74
-62.80
-68.60
-74.98
-82.84
-92.76
-104.71
-117.79
-130.25
-139.78
-144.20
-142.11
-133.44
-119.48
-102.50
-84.97
-68.86
-55.23
-44.16
-35.11
-27.27
-19.91
-12.59
-5.09
2.59
10.36
18.14
25.90
33.66
41.51
49.48
57.47
65.19
72.26
78.30
82.98
86.20
87.95
88.31
87.32
85.03
81.57
77.27
72.68
68.40
64.87
61.99
59.12
55.30
49.73
42.30
33.84
25.93
20.29
18.12
19.61
23.89
29.39
34.32
37.10
36.56
32.06
23.78
12.98
1.98
-6.20
-8.73
-4.04
7.47
23.48
40.54
55.42
66.03
71.86
73.66
72.68
70.05
66.44
62.31
58.02
53.98
50.56
47.83
45.41
42.54
38.42
32.58
25.15
16.82
8.65
1.59
-3.74
-7.29
-9.41
-10.80
-12.16
-14.05
-16.80
-20.42
-24.65
-28.94
-32.77
-35.74
-37.84
-39.52
-41.53
-44.66
-49.31
-55.44
-62.53
-69.96
-77.25
-84.29
-91.38
-99.06
-107.84
-118.05
-129.58
-141.64
-152.72
-160.69
-163.28
-158.63
-145.99
-126.06
-100.90
-73.38
-46.40
-22.16
-1.78
14.76
28.27
39.89
50.59
60.93
70.93
80.27
88.45
95.04
99.93
103.29
105.50
107.03
108.23
109.23
110.03
110.45
110.37
109.61
108.04
105.46
101.61
96.27
89.40
81.15
71.95
62.31
52.66
43.10
33.39
23.20
12.25
0.63
-11.11
-22.15
-31.72
-39.47
-45.75
-51.66
-58.64
-68.01
-80.23
-94.47
-108.51
-119.30
-123.72
-119.74
-107.09
-87.36
-63.50
-38.89
-16.32
2.64
17.63
29.28
38.66
46.79
54.40
61.82
69.03
75.79
81.73
86.56
90.04
92.09
92.75
92.18
90.66
88.55
86.17
83.73
81.26
78.62
75.51
71.63
66.71
60.61
53.36
45.16
36.37
27.46
18.98
11.31
4.57
-1.49
-7.38
-13.66
-20.72
-28.50
-36.61
-44.42
-51.46
-57.61
-63.29
-69.39
-76.99
-86.96
-99.70
-114.76
-130.79
-145.56
-156.36
-160.64
-156.71
-144.41
-125.15
-101.57
-76.73
-53.23
-32.70
-15.60
-1.53
10.27
20.57
29.88
38.47
46.43
53.72
60.28
65.96
70.59
74.03
76.27
77.43
77.84
77.97
78.29
79.03
80.18
81.38
82.10
81.83
80.23
77.23
72.93
67.52
61.25
54.33
47.11
40.00
33.41
27.57
22.37
17.38
12.04
5.93
-0.99
-8.38
-15.73
-22.61
-28.91
-34.88
-41.07
-48.13
-56.67
-67.08
-79.36
-92.91
-106.32
-117.44
-123.82
-123.42
-115.37
-100.37
-80.42
-58.32
-36.69
-17.35
-1.03
12.38
23.48
33.00
41.43
49.01
55.80
61.69
66.60
70.56
73.65
76.01
77.73
78.79
79.08
78.49
77.05
74.86
72.15
69.12
65.92
62.55
58.88
54.67
49.73
43.97
37.53
30.72
23.99
17.66
11.81
6.21
0.47
-5.75
-12.58
-19.80
-27.02
-33.78
-39.81
-45.10
-50.04
-55.19
-61.18
-68.44
-76.94
-85.99
-94.23
-99.88
-101.05
-96.36
-85.41
-69.03
-49.11
-28.15
-8.52
8.11
21.12
30.82
38.08
43.93
49.13
54.05
58.68
62.70
65.70
67.34
67.41
66.02
63.54
60.54
57.57
55.05
53.17
51.87
50.96
50.15
49.13
47.61
45.33
42.10
37.85
32.69
26.97
21.23
16.08
11.98
9.05
7.01
5.23
2.88
-0.72
-5.91
-12.47
-19.83
-27.28
-34.28
-40.62
-46.54
-52.55
-59.24
-67.14
-76.53
-87.17
-98.19
-108.02
-114.65
-116.06
-110.96
-99.35
-82.59
-63.13
-43.66
-26.43
-12.67
-2.49
4.81
10.32
15.12
19.98
25.16
30.56
35.70
40.08
43.23
44.97
45.41
44.85
43.67
42.22
40.81
39.60
38.69
38.01
37.28
36.07
33.90
30.37
25.28
18.70
11.06
3.07
-4.26
-9.88
-12.87
-12.77
-9.71
-4.49
1.77
7.83
12.72
15.92
17.39
17.45
16.54
15.06
13.19
10.78
7.41
2.47
-4.66
-14.44
-26.90
-41.36
-56.28
-69.40
-78.25
-80.96
-76.95
-67.31
-54.39
-40.98
-29.29
-20.34
-13.81
-8.60
-3.45
2.45
9.37
17.02
24.84
32.15
38.37
43.06
46.09
47.63
48.09
48.03
48.01
48.40
49.37
50.83
52.42
53.63
53.80
52.35
48.85
43.18
35.58
26.60
17.04
7.73
-0.67
-7.82
-13.77
-18.89
-23.69
-28.53
-33.50
-38.37
-42.74
-46.33
-49.07
-51.27
-53.52
-56.44
-60.52
-65.90
-72.17
-78.32
-82.87
-84.20
-80.98
-72.72
-60.06
-44.64
-28.63
-14.07
-2.31
6.35
12.31
16.38
19.21
21.14
22.22
22.44
22.00
21.33
20.90
20.95
21.37
21.76
21.73
21.13
20.30
19.89
20.51
22.33
24.66
26.03
24.46
18.01
5.46
-13.23
-36.73
-62.37
-86.71
-106.27
-118.57
-122.87
-120.53
-114.61
-108.72
-105.77
-106.80
-110.78
-115.10
-116.90
-114.33
-107.24
-97.14
-86.56
-77.97
-72.92
-71.54
-72.73
-74.54
-74.84
-72.00
-65.15
-54.34
-40.34
-24.32
-7.56
8.96
24.67
39.37
53.16
66.20
78.50
89.69
99.13
105.99
109.63
109.80
106.81
101.45
94.72
87.70
81.28
76.13
72.61
70.83
70.59
71.42
72.54
73.08
72.19
69.26
64.25
57.67
50.58
44.20
39.61
37.35
37.34
38.90
41.19
43.55
45.58
47.19
48.49
49.45
49.78
49.01
46.58
42.01
34.96
25.28
12.96
-1.83
-18.39
-35.27
-50.24
-60.65
-64.29
-60.40
-50.25
-37.03
-24.83
-17.30
-16.50
-22.53
-33.89
-48.36
-63.72
-78.25
-90.77
-100.64
-107.63
-111.98
-114.32
-115.52
-116.33
-117.06
-117.39
-116.48
-113.42
-107.70
-99.66
-90.55
-82.26
-76.67
-74.99
-77.20
-81.89
-86.64
-88.65
-85.80
-77.53
-65.23
-51.98
-41.57
-37.06
-39.64
-48.12
-59.38
-69.38
-74.48
-72.37
-62.61
-46.34
-25.86
-3.96
16.66
34.04
47.16
56.12
61.95
66.22
70.47
75.82
82.74
90.93
99.59
107.72
114.69
120.44
125.62
131.16
137.85
145.79
154.30
162.11
167.84
170.57
170.05
166.91
162.33
157.71
154.28
152.71
152.95
154.35
156.04
157.26
157.73
157.58
157.14
156.37
154.75
151.29
144.88
134.88
121.47
105.63
88.92
72.98
59.15
48.21
40.33
34.81
29.99
23.11
10.72
-10.30
-41.46
-81.60
-126.75
-171.04
-208.59
-235.19
-249.41
-252.39
-246.69
-234.97
-219.08
-200.14
-178.95
-156.70
-134.88
-114.97
-97.69
-82.61
-68.45
-53.67
-37.39
-19.70
-1.63
15.47
30.67
43.71
54.94
64.96
74.15
82.47
89.70
95.56
100.21
104.21
108.38
113.60
120.25
127.85
134.82
138.67
136.73
127.10
109.37
84.91
56.47
27.20
-0.29
-24.49
-45.07
-62.27
-76.62
-88.54
-98.48
-107.14
-115.53
-124.86
-136.17
-149.76
-164.80
-179.14
-189.58
-192.78
-186.30
-169.70
-144.91
-115.66
-86.34
-60.46
-39.84
-24.40
-12.84
-3.52
4.79
12.64
20.09
26.89
32.85
37.79
41.62
44.26
45.69
46.16
46.08
46.04
46.66
48.35
51.13
54.57
57.88
60.14
60.71
59.36
56.37
52.28
47.59
42.57
37.14
31.08
24.20
16.59
8.58
0.51
-7.58
-16.08
-25.69
-37.06
-50.41
-65.23
-80.40
-94.74
-107.37
-118.15
-127.56
-136.47
-145.70
-155.78
-166.70
-177.69
-187.09
-192.37
-190.70
-180.00
-159.98
-132.63
-101.85
-72.30
-47.61
-29.41
-17.09
-8.51
-1.22
6.56
15.53
25.52
35.87
45.84
54.74
62.00
67.12
69.84
70.16
68.52
65.76
62.95
61.23
61.37
63.47
66.97
70.70
73.38
73.99
72.22
68.52
63.94
59.68
56.72
55.48
55.71
56.53
56.75
55.16
50.86
43.55
33.53
21.59
8.69
-4.32
-16.74
-28.13
-38.27
-47.12
-55.03
-62.75
-71.31
-81.52
-93.49
-106.13
-117.14
-123.67
-123.16
-114.41
-97.98
-76.15
-52.09
-28.97
-9.00
6.95
19.21
28.94
37.42
45.58
53.76
61.69
68.78
74.36
78.00
79.69
79.78
78.88
77.73
77.07
77.47
79.32
82.60
86.90
91.32
94.64
95.53
93.06
87.02
78.11
67.78
57.72
49.14
42.37
36.78
31.24
24.70
16.71
7.59
-1.83
-10.65
-18.32
-24.79
-30.52
-36.16
-42.45
-50.04
-59.28
-70.09
-81.70
-92.50
-100.22
-102.46
-97.48
-84.95
-66.20
-43.96
-21.49
-1.67
13.91
25.15
33.15
39.58
45.88
52.76
60.05
66.94
72.46
75.82
76.73
75.32
71.95
67.05
61.01
54.24
47.36
41.27
36.93
35.10
35.91
38.70
42.08
44.35
44.12
40.74
34.68
27.26
20.21
14.96
12.08
10.96
10.20
8.21
3.89
-2.81
-10.94
-18.91
-25.20
-28.85
-29.70
-28.44
-26.50
-25.93
-29.20
-38.60
-55.18
-77.77
-102.60
-123.89
-135.81
-134.60
-120.06
-95.57
-66.64
-38.71
-15.45
1.95
14.15
22.59
28.49
32.48
34.92
36.17
36.88
37.77
39.26
41.26
43.22
44.45
44.61
44.00
43.57
44.46
47.50
52.77
59.52
66.42
72.05
75.35
75.85
73.62
69.11
62.99
55.90
48.45
41.14
34.37
28.32
22.96
18.14
13.60
9.19
4.86
0.70
-3.21
-6.97
-10.73
-14.53
-18.05
-20.52
-21.08
-19.15
-15.10
-10.16
-6.00
-3.82
-3.72
-4.45
-4.05
-0.74
6.13
15.79
26.46
36.04
42.97
46.49
46.61
43.77
38.74
32.56
26.60
22.47
21.63
24.66
30.75
37.65
42.46
42.66
37.25
27.09
14.46
1.97
-8.30
-15.25
-18.60
-18.57
-15.80
-11.42
-7.42
-6.31
-10.50
-21.23
-37.90
-58.20
-78.90
-97.21
-111.55
-121.76
-128.36
-131.71
-131.31
-125.75
-113.37
-93.20
-65.71
-33.03
1.51
34.13
61.60
81.84
94.33
99.90
100.30
97.66
93.86
90.14
86.92
83.98
80.79
77.03
72.82
68.74
65.50
63.59
63.19
64.31
67.03
71.46
77.44
84.08
89.46
90.95
85.99
73.15
52.84
27.32
-0.04
-25.84
-47.70
-64.82
-77.91
-88.77
-99.51
-111.85
-126.51
-142.94
-159.39
-173.49
-183.23
-187.80
-188.14
-186.53
-185.95
-188.66
-195.52
-205.39
-215.60
-222.59
-222.87
-213.79
-194.18
-164.55
-126.99
-84.81
-41.69
-0.92
35.31
66.26
92.25
114.12
132.45
147.33
158.41
165.38
168.48
168.45
166.30
162.79
158.17
152.20
144.61
135.36
124.92
113.99
103.19
92.99
83.49
74.74
66.84
59.97
54.28
49.71
45.92
42.42
38.69
34.40
29.63
24.57
19.38
13.95
7.84
0.51
-8.50
-19.35
-31.96
-46.22
-61.97
-78.88
-96.30
-113.11
-127.93
-139.51
-147.19
-151.18
-152.17
-150.86
-147.59
-142.16
-134.09
-123.17
-109.76
-94.79
-79.39
-64.50
-50.70
-38.23
-27.19
-17.81
-10.18
-4.29
0.23
4.06
7.87
12.04
16.35
20.13
22.59
23.28
22.31
20.48
18.82
18.22
19.16
21.62
25.37
30.13
35.78
42.33
49.84
58.25
67.30
76.81
86.75
97.36
109.08
122.20
136.53
151.08
164.25
174.16
179.25
178.51
171.66
158.87
140.43
116.52
87.34
53.37
16.05
-22.01
-57.16
-85.26
-102.69
-107.32
-99.13
-80.41
-55.13
-27.96
-3.19
16.22
29.01
35.48
36.82
34.47
29.70
23.52
16.76
10.21
4.59
0.16
-3.43
-7.03
-11.44
-16.83
-22.50
-27.08
-29.40
-29.28
-27.78
-26.81
-28.22
-32.87
-40.18
-48.48
-55.84
-60.95
-63.50
-64.17
-64.07
-64.19
-65.14
-67.03
-69.78
-73.21
-77.17
-81.58
-86.19
-90.62
-94.45
-97.42
-99.67
-101.96
-105.43
-111.18
-119.60
-129.84
-139.67
-145.91
-145.43
-136.21
-118.10
-92.94
-63.96
-34.69
-7.99
14.58
32.69
46.87
57.97
66.70
73.59
79.01
83.30
86.79
89.74
92.32
94.44
95.98
96.73
96.67
95.90
94.61
92.99
91.17
89.01
86.18
82.21
76.70
69.55
61.09
52.09
43.39
35.62
28.88
22.72
16.49
9.71
2.43
-4.81
-11.33
-16.57
-20.57
-23.91
-27.56
-32.57
-39.84
-49.85
-62.42
-76.50
-90.08
-100.44
-104.84
-101.41
-89.89
-71.84
-50.08
-27.80
-7.56
9.25
22.36
32.19
39.32
44.29
47.58
49.69
51.30
52.95
54.88
56.84
58.23
58.44
57.17
54.80
52.20
50.49
50.46
52.22
55.09
57.77
58.87
57.45
53.39
47.27
40.23
33.29
27.12
21.69
16.59
11.13
4.87
-2.24
-9.75
-16.84
-22.66
-26.67
-28.82
-29.70
-30.41
-32.25
-36.34
-43.14
-52.12
-61.48
-68.36
-69.65
-63.00
-47.78
-25.64
-0.02
24.96
45.75
60.50
69.12
72.95
73.80
73.33
72.52
71.76
71.05
70.29
69.33
68.06
66.24
63.60
59.85
54.99
49.37
43.75
38.98
35.66
33.80
32.81
31.75
29.80
26.62
22.41
17.65
12.68
7.46
1.55
-5.54
-14.10
-23.90
-34.31
-44.60
-54.20
-63.05
-71.56
-80.49
-90.62
-102.46
-116.01
-130.75
-145.64
-159.41
-170.69
-178.24
-181.27
-179.60
-173.82
-165.32
-155.92
-147.50
-141.44
-138.51
-138.70
-141.61
-146.65
-153.27
-160.92
-168.85
-175.86
-180.33
-180.55
-175.13
-163.46
-145.95
-123.90
-99.20
-74.01
-50.30
-29.42
-11.95
2.19
13.40
21.92
27.73
30.77
31.63
32.04
34.90
43.44
59.93
84.47
114.58
145.78
172.92
191.55
198.95
194.53
179.69
157.17
130.31
102.42
76.46
54.98
40.23
34.08
37.43
49.76
68.66
90.27
110.35
125.61
134.78
138.61
138.88
137.10
133.56
127.42
117.54
103.59
86.74
69.37
54.21
43.14
36.44
32.76
29.80
25.46
18.59
9.44
-0.79
-10.54
-18.62
-24.54
-28.54
-31.45
-34.54
-39.18
-46.66
-57.84
-72.85
-90.84
-110.18
-128.92
-145.35
-158.52
-168.36
-175.52
-180.95
-185.53
-189.80
-193.68
-196.58
-197.35
-194.49
-186.51
-172.44
-152.25
-127.31
-100.22
-74.38
-52.75
-37.02
-26.91
-20.34
-14.39
-6.42
5.14
20.53
39.01
59.23
79.53
98.13
113.53
125.13
133.84
141.82
151.60
164.47
179.48
193.54
202.75
204.36
198.19
186.53
172.92
160.40
150.36
142.37
134.90
126.42
116.01
103.50
89.26
73.62
56.60
37.88
17.11
-5.50
-28.72
-50.32
-67.64
-78.42
-81.74
-78.29
-70.03
-59.45
-48.69
-39.03
-30.90
-24.19
-18.75
-14.54
-11.74
-10.39
-10.14
-10.16
-9.18
-5.84
0.89
11.30
24.83
40.31
56.36
71.87
86.14
98.86
109.74
118.32
123.98
126.22
124.99
120.78
114.44
106.86
98.62
89.89
80.63
70.77
60.35
49.40
37.86
25.57
12.40
-1.63
-16.38
-31.72
-47.80
-64.94
-83.22
-101.73
-118.30
-129.77
-133.01
-126.18
-109.68
-86.17
-59.68
-34.16
-12.30
4.93
18.00
27.98
35.83
42.08
46.88
50.36
52.74
54.28
55.16
55.21
54.06
51.26
46.53
39.90
31.73
22.53
12.80
2.86
-7.21
-17.53
-28.35
-39.96
-52.48
-65.67
-78.90
-91.13
-101.17
-107.80
-110.15
-107.64
-100.00
-87.33
-70.12
-49.46
-27.21
-5.97
11.26
21.66
23.46
16.30
1.70
-17.54
-37.84
-55.72
-68.47
-74.63
-74.13
-68.08
-58.43
-47.44
-37.08
-28.76
-23.00
-19.64
-17.91
-16.61
-14.29
-9.36
-0.51
12.83
30.10
49.41
68.03
83.14
92.84
96.70
95.71
91.84
86.95
82.27
78.14
74.35
70.61
66.94
63.53
60.44
57.16
52.64
45.75
35.84
23.24
9.14
-4.98
-18.04
-29.89
-41.14
-52.53
-64.10
-74.74
-82.44
-85.09
-81.48
-71.89
-57.92
-41.76
-25.25
-9.38
5.84
20.67
35.12
48.58
60.02
68.52
73.77
76.30
77.23
77.76
78.77
80.58
83.03
85.70
88.17
90.02
91.00
90.83
89.29
86.17
81.35
74.81
66.68
57.29
47.06
36.46
25.95
15.86
6.47
-2.13
-9.87
-16.80
-22.93
-28.39
-33.30
-38.05
-43.19
-49.54
-57.93
-68.95
-82.39
-97.00
-110.56
-120.33
-123.90
-120.00
-108.93
-92.44
-73.12
-53.52
-35.47
-19.78
-6.34
5.35
15.78
25.18
33.42
40.28
45.60
49.40
51.90
53.43
54.30
54.73
54.88
54.78
54.56
54.35
54.26
54.25
54.10
53.37
51.58
48.37
43.74
37.99
31.80
25.88
20.82
16.79
13.61
10.79
7.73
3.94
-0.77
-6.22
-12.02
-17.65
-22.72
-27.15
-31.16
-35.32
-40.34
-46.98
-55.87
-67.21
-80.43
-94.13
-106.13
-113.98
-115.71
-110.47
-98.90
-82.80
-64.59
-46.47
-29.92
-15.55
-3.31
7.08
15.99
23.62
30.09
35.42
39.71
43.03
45.53
47.44
49.10
50.81
52.75
54.91
57.11
58.98
60.29
61.04
61.46
61.78
62.09
62.05
61.02
58.33
53.66
47.21
39.65
31.84
24.43
17.69
11.42
5.22
-1.30
-8.25
-15.47
-22.56
-29.14
-35.01
-40.19
-44.99
-49.82
-55.20
-61.61
-69.48
-79.01
-89.96
-101.29
-111.21
-117.35
-117.46
-110.17
-95.58
-75.32
-52.01
-28.51
-7.11
10.99
25.57
37.17
46.68
54.95
62.60
69.88
76.60
82.12
85.67
86.68
85.16
81.99
78.62
76.66
77.19
80.28
84.94
89.58
92.68
93.32
91.60
88.54
85.73
84.88
87.34
93.54
102.69
112.61
120.12
121.79
115.10
99.20
75.17
45.34
12.06
-23.48
-61.68
-103.81
-150.61
-200.80
-250.65
-294.77
-327.98
-347.20
-352.57
-347.16
-335.55
-321.95
-308.83
-296.37
-282.93
-266.13
-243.95
-215.68
-182.15
-145.71
-109.61
-77.12
-50.72
-31.29
-17.99
-8.47
0.32
11.16
25.59
43.37
62.61
80.63
95.21
105.65
113.15
120.28
129.58
142.25
157.33
171.94
182.21
184.58
176.86
158.92
132.89
102.78
73.66
50.32
36.01
31.31
34.08
40.26
45.41
46.02
40.24
27.77
9.39
-13.44
-38.74
-63.84
-85.62
-101.16
-108.64
-108.23
-102.26
-94.49
-88.80
-87.48
-90.37
-94.75
-96.54
-91.93
-79.00
-58.47
-33.31
-7.62
14.89
31.97
43.19
49.52
52.63
54.17
55.40
57.07
59.53
62.86
67.13
72.33
78.40
84.94
91.08
95.55
97.12
95.23
90.35
83.89
77.48
72.19
68.04
64.33
60.39
56.40
53.51
53.18
56.12
61.46
66.80
69.14
66.17
57.19
43.16
26.17
8.34
-8.88
-24.96
-39.95
-54.13
-67.62
-80.45
-92.75
-104.92
-117.50
-130.74
-144.02
-155.62
-162.98
-163.52
-155.66
-139.64
-117.54
-92.55
-67.84
-45.65
-26.82
-11.08
2.35
14.15
24.65
33.89
41.81
48.47
54.07
58.87
63.12
67.00
70.66
74.18
77.59
80.81
83.71
86.17
88.08
89.35
90.01
90.10
89.59
88.35
86.06
82.27
76.59
68.89
59.45
48.97
38.40
28.67
20.38
13.60
7.95
2.72
-2.92
-9.72
-18.15
-28.29
-39.63
-51.13
-61.56
-69.98
-76.24
-81.22
-86.40
-93.11
-101.62
-110.71
-117.93
-120.44
-116.20
-104.74
-87.25
-66.13
-44.07
-23.30
-5.21
9.61
21.11
29.59
35.66
40.24
44.61
50.11
57.64
67.20
77.73
87.37
94.26
97.18
96.05
91.89
86.28
80.75
76.30
73.22
71.21
69.67
67.87
65.13
60.87
54.72
46.65
36.99
26.47
16.12
6.95
-0.14
-4.70
-6.88
-7.50
-7.93
-9.67
-13.80
-20.52
-29.05
-38.09
-46.49
-53.85
-60.68
-67.97
-76.54
-86.49
-97.14
-107.41
-116.22
-122.60
-125.49
-123.42
-114.70
-98.07
-73.69
-43.72
-12.14
16.50
38.64
52.83
60.02
62.64
63.33
63.87
64.82
65.99
67.14
68.33
70.01
72.48
75.61
78.71
80.83
81.25
79.85
77.09
73.74
70.41
67.32
64.14
60.38
55.59
49.76
43.33
37.02
31.46
26.83
22.81
18.65
13.67
7.51
0.41
-6.97
-13.92
-20.05
-25.45
-30.64
-36.40
-43.50
-52.49
-63.54
-76.16
-89.11
-100.44
-107.89
-109.52
-104.38
-92.92
-76.74
-58.18
-39.56
-22.60
-8.24
3.35
12.45
19.53
25.13
29.65
33.43
36.66
39.36
41.50
43.04
44.03
44.65
45.15
45.74
46.53
47.51
48.51
49.24
49.44
48.84
47.29
44.72
41.15
36.77
31.82
26.70
21.75
17.17
12.96
8.87
4.51
-0.53
-6.44
-13.16
-20.43
-27.85
-35.11
-42.03
-48.53
-54.70
-60.63
-66.52
-72.66
-79.51
-87.56
-97.07
-107.75
-118.46
-127.32
-132.07
-130.87
-122.89
-108.73
-90.22
-69.83
-49.94
-32.24
-17.48
-5.64
3.82
11.61
18.38
24.59
30.51
36.15
41.38
46.03
49.92
52.98
55.15
56.41
56.80
56.47
55.73
55.03
54.74
54.99
55.49
55.58
54.58
52.01
47.88
42.59
36.81
31.13
25.87
21.02
16.33
11.45
6.22
0.66
-4.95
-10.30
-15.21
-19.81
-24.45
-29.60
-35.53
-42.22
-49.33
-56.38
-63.03
-69.20
-75.10
-81.19
-88.01
-96.05
-105.57
-116.35
-127.43
-137.15
-143.38
-144.16
-138.35
-126.08
-108.74
-88.47
-67.61
-48.02
-30.86
-16.55
-4.96
4.41
12.23
19.18
25.76
32.22
38.44
44.13
48.91
52.58
55.15
56.88
58.14
59.30
60.59
62.13
63.88
65.75
67.60
69.16
70.08
70.00
68.64
65.96
62.22
57.86
53.44
49.35
45.72
42.42
39.12
35.49
31.31
26.60
21.58
16.53
11.76
7.37
3.13
-1.38
-6.73
-13.34
-21.34
-30.43
-40.08
-49.67
-58.79
-67.39
-75.81
-84.71
-94.82
-106.69
-120.42
-135.29
-149.65
-161.10
-166.95
-165.12
-154.74
-136.59
-112.88
-86.64
-60.86
-37.81
-18.67
-3.52
8.36
18.09
26.69
34.88
42.80
50.16
56.42
61.17
64.36
66.35
67.74
69.16
71.05
73.63
76.95
80.91
85.33
89.91
94.19
97.61
99.68
100.07
98.78
96.15
92.73
89.13
85.70
82.42
78.88
74.49
68.67
61.25
52.62
43.57
35.08
27.81
21.93
17.02
12.26
6.86
0.25
-7.59
-16.28
-25.15
-33.53
-41.03
-47.63
-53.71
-59.95
-67.14
-75.95
-86.64
-98.85
-111.37
-122.20
-128.88
-129.08
-121.21
-104.98
-81.58
-53.29
-22.92
6.89
34.04
57.28
76.04
90.40
100.84
108.27
113.83
118.81
124.39
131.44
140.24
150.27
160.27
168.46
172.95
172.43
166.52
156.09
142.90
129.02
116.18
105.24
96.14
88.28
80.98
73.86
66.96
60.50
54.56
48.82
42.56
34.78
24.49
10.80
-6.96
-29.25
-56.20
-87.39
-121.69
-157.40
-192.52
-225.20
-253.90
-277.27
-293.97
-302.85
-303.32
-296.08
-283.43
-268.77
-255.53
-245.94
-240.29
-237.16
-234.28
-229.61
-221.83
-210.44
-195.25
-176.28
-153.79
-128.67
-102.45
-77.07
-54.25
-34.98
-19.21
-6.13
5.47
16.63
27.98
39.60
51.23
62.38
72.67
81.87
90.00
97.18
103.59
109.33
114.37
118.65
122.14
124.77
126.43
126.90
125.90
123.19
118.80
113.01
106.40
99.53
92.85
86.50
80.32
74.07
67.49
60.51
53.25
45.86
38.50
31.12
23.41
14.91
5.25
-5.65
-17.42
-29.37
-40.74
-51.18
-60.85
-70.57
-81.49
-94.73
-110.81
-129.28
-148.65
-166.54
-180.26
-187.36
-186.26
-176.59
-159.26
-136.26
-110.16
-83.70
-59.13
-37.86
-20.32
-6.05
5.96
16.75
27.02
36.98
46.46
55.13
62.84
69.65
75.72
81.20
86.04
90.06
93.08
95.20
96.81
98.40
100.32
102.40
103.92
103.87
101.36
96.05
88.37
79.31
70.02
61.27
53.20
45.35
36.97
27.46
16.72
5.12
-6.61
-17.78
-28.02
-37.43
-46.63
-56.55
-68.06
-81.81
-97.68
-114.69
-130.80
-143.35
-149.53
-147.16
-135.42
-115.15
-88.71
-59.33
-30.24
-3.90
18.31
36.16
50.15
61.10
69.81
76.90
82.75
87.56
91.43
94.39
96.48
97.77
98.37
98.48
98.34
98.25
98.35
98.54
98.55
97.84
95.88
92.18
86.45
78.68
69.04
57.96
45.99
33.77
21.89
10.89
1.03
-7.59
-15.09
-21.57
-26.97
-30.93
-32.82
-32.02
-28.13
-21.36
-12.45
-2.59
7.08
15.75
23.09
29.11
33.91
37.51
39.94
41.37
42.31
43.64
46.36
51.20
58.39
67.54
77.82
88.24
97.96
106.53
113.82
120.00
125.33
130.09
134.49
138.67
142.77
146.85
150.76
154.09
156.14
156.08
153.27
147.68
139.96
131.41
123.42
116.99
112.26
108.44
104.18
98.13
89.46
78.15
64.93
50.81
36.55
22.28
7.38
-9.27
-28.83
-52.02
-78.72
-107.80
-137.05
-163.46
-183.75
-195.22
-196.58
-188.46
-173.40
-155.11
-137.21
-122.34
-111.59
-104.80
-101.19
-99.89
-100.16
-101.18
-101.79
-100.75
-97.05
-90.51
-81.88
-72.52
-63.70
-56.03
-49.24
-42.50
-35.04
-26.59
-17.56
-8.89
-1.56
3.67
6.51
7.22
6.42
4.85
3.09
1.39
-0.41
-2.85
-6.50
-11.68
-18.32
-25.91
-33.76
-41.26
-48.24
-54.99
-62.25
-70.92
-81.82
-95.16
-110.30
-125.48
-138.00
-144.81
-143.30
-132.25
-112.30
-85.88
-56.48
-27.63
-2.02
19.08
35.72
48.77
59.28
67.98
75.18
80.88
85.04
87.79
89.43
90.29
90.64
90.67
90.50
90.24
90.00
89.78
89.36
88.31
86.07
82.28
76.88
70.12
62.44
54.24
45.69
36.80
27.52
17.84
7.86
-2.19
-12.11
-21.78
-31.30
-40.97
-51.24
-62.75
-76.07
-91.57
-109.06
-127.45
-144.53
-157.28
-162.49
-157.86
-142.83
-118.92
-89.35
-57.99
-28.23
-2.23
19.32
36.75
50.96
62.82
73.03
82.03
90.04
97.08
102.87
107.04
109.23
109.37
107.72
104.92
101.73
98.84
96.61
95.01
93.57
91.59
88.35
83.29
76.27
67.59
57.81
47.58
37.34
27.26
17.18
6.84
-3.95
-15.19
-26.69
-38.09
-49.10
-59.56
-69.63
-79.88
-91.18
-104.43
-120.04
-137.40
-154.56
-168.45
-175.68
-173.58
-161.17
-139.53
-111.41
-80.36
-49.76
-22.07
1.51
20.81
36.43
49.22
60.08
69.66
78.26
85.85
92.09
96.64
99.34
100.26
99.78
98.50
96.93
95.53
94.61
94.28
94.54
95.25
96.06
96.43
95.65
93.12
88.49
82.03
74.50
67.00
60.53
55.69
52.38
49.95
47.42
43.99
39.38
33.97
28.84
25.38
24.91
28.28
35.43
45.29
55.96
65.08
70.48
71.09
67.48
62.18
59.21
63.00
76.89
101.82
135.77
174.02
210.36
238.55
253.78
253.62
238.35
210.80
175.50
137.72
102.13
72.02
48.72
31.87
20.09
11.72
5.32
-0.26
-5.95
-12.43
-19.95
-28.08
-35.67
-41.21
-43.44
-42.01
-37.68
-32.09
-27.20
-24.55
-24.82
-27.77
-32.40
-37.51
-42.25
-46.43
-50.67
-55.98
-63.37
-73.20
-84.92
-97.17
-108.31
-116.93
-122.35
-124.59
-124.22
-121.95
-118.52
-114.59
-110.89
-108.30
-107.60
-109.30
-113.12
-117.92
-121.86
-122.88
-119.30
-110.39
-96.51
-79.07
-60.01
-41.48
-25.27
-12.58
-3.83
1.40
4.16
5.83
7.71
10.54
14.34
18.42
21.80
23.66
23.69
22.24
20.18
18.46
17.68
17.84
18.39
18.50
17.52
15.16
11.61
7.34
2.72
-2.09
-7.12
-12.45
-17.99
-23.52
-28.83
-33.88
-38.93
-44.31
-50.16
-56.21
-61.89
-66.59
-70.12
-72.82
-75.40
-78.56
-82.52
-86.92
-91.00
-94.14
-96.26
-98.04
-100.81
-106.14
-115.30
-128.65
-145.17
-162.34
-176.33
-182.85
-178.39
-161.45
-133.23
-97.50
-59.52
-24.49
3.83
23.86
36.14
42.56
45.48
46.96
48.22
49.67
51.04
51.81
51.50
50.01
47.58
44.78
42.12
39.97
38.49
37.63
37.31
37.40
37.67
37.70
36.95
34.94
31.44
26.68
21.21
15.84
11.27
7.97
5.97
4.81
3.71
1.81
-1.50
-6.34
-12.33
-18.67
-24.54
-29.35
-32.97
-35.73
-38.20
-41.08
-44.99
-50.38
-57.45
-66.00
-75.54
-85.38
-94.77
-103.30
-110.93
-118.08
-125.45
-133.63
-142.81
-152.25
-160.04
-163.34
-158.95
-144.31
-118.47
-82.74
-40.52
3.51
44.62
79.23
105.51
123.45
134.37
140.09
142.33
142.24
140.28
136.43
130.46
122.37
112.44
101.37
89.95
78.78
68.12
57.90
47.88
37.97
28.21
18.83
9.89
1.16
-7.90
-17.81
-28.76
-40.23
-51.16
-60.44
-67.51
-72.74
-77.20
-82.19
-88.52
-96.21
-104.74
-113.48
-122.17
-130.91
-139.70
-147.99
-154.61
-158.14
-157.68
-153.47
-146.93
-140.29
-135.93
-135.76
-141.00
-152.09
-168.63
-188.99
-210.14
-227.73
-237.01
-234.23
-218.18
-190.83
