1676872582.00
64.000000
-0.00
-0.00
-0.00
-0.00
-0.00
-0.00
-0.00
-0.00
-0.00
-0.00
0.00
0.01
0.01
-0.00
-0.03
-0.05
-0.05
0.00
0.13
0.36
0.66
1.01
1.37
1.72
2.06
2.40
2.79
3.24
3.80
4.42
5.06
5.66
6.20
6.68
7.15
7.68
8.31
9.14
10.09
11.04
11.88
12.56
13.14
13.76
14.65
15.96
17.91
20.32
22.90
25.38
27.58
29.57
31.68
34.32
37.81
42.54
48.15
54.10
59.83
64.97
69.58
74.14
79.34
85.71
93.76
103.00
112.62
121.73
129.77
136.75
143.30
150.75
157.77
166.64
177.95
191.79
206.97
220.57
228.25
225.36
208.53
176.87
132.76
80.05
23.07
-34.94
-92.44
-149.16
-205.23
-260.37
-313.74
-363.87
-409.83
-450.91
-486.50
-515.74
-537.23
-549.22
-549.96
-538.37
-514.21
-478.67
-433.88
-382.45
-327.02
-269.84
-212.63
-156.66
-102.95
-52.37
-5.90
35.58
71.43
101.35
125.50
144.38
158.69
169.15
176.37
180.75
182.57
182.07
179.51
175.23
169.65
163.18
156.15
148.81
141.30
133.69
126.02
118.33
110.69
103.16
95.80
88.68
81.83
75.25
68.95
62.95
57.25
51.86
46.78
42.03
37.59
33.45
29.61
26.07
22.81
19.83
17.11
14.67
12.48
10.54
8.83
7.35
6.07
4.97
4.05
3.27
2.62
2.09
1.65
1.30
1.01
0.79
0.62
0.49
0.39
0.33
0.28
0.26
0.25
0.25
0.27
0.30
0.33
0.36
0.40
0.45
0.49
0.54
0.59
0.64
0.70
0.75
0.82
0.88
0.96
1.04
1.13
1.24
1.35
1.48
1.62
1.78
1.96
2.16
2.39
2.63
2.90
3.20
3.54
3.90
4.29
4.72
5.19
5.69
6.24
6.82
7.45
8.11
8.83
9.59
10.39
11.24
12.13
13.07
14.07
15.13
16.25
17.43
18.67
19.95
21.24
22.48
23.59
24.48
25.03
25.12
24.63
23.49
21.62
19.03
15.76
11.91
7.62
3.09
-1.47
-5.85
-9.83
-13.24
-15.96
-17.94
-19.18
-19.73
-19.70
-19.19
-18.32
-17.17
-15.81
-14.33
-12.78
-11.20
-9.62
-8.09
-6.58
-5.11
-3.60
-2.03
-0.39
1.32
3.09
4.93
6.72
8.44
10.15
11.93
13.88
16.02
18.31
20.68
23.10
25.29
27.19
28.91
30.68
32.68
34.96
37.44
39.93
42.32
44.15
45.34
46.09
46.74
47.56
48.55
49.49
50.01
49.84
48.31
45.23
40.77
35.06
28.03
19.09
7.05
-9.99
-29.58
-51.39
-75.57
-102.53
-132.41
-164.28
-195.63
-222.53
-240.78
-247.31
-241.98
-226.57
-203.82
-176.18
-145.25
-112.20
-78.74
-47.60
-22.02
-4.89
3.22
4.27
1.85
-0.54
-0.78
1.51
5.75
11.25
17.51
24.65
32.83
41.83
51.05
59.71
67.24
73.49
78.66
82.88
86.12
88.05
88.11
85.76
80.78
73.35
64.01
53.46
42.27
30.93
19.87
9.66
0.97
-5.61
-9.85
-12.16
-13.48
-14.95
-17.38
-20.92
-25.05
-28.90
-31.73
-33.34
-34.15
-35.02
-36.78
-39.84
-43.91
-48.18
-51.70
-53.89
-54.82
-55.15
-55.59
-56.50
-57.49
-57.65
-55.94
-51.62
-44.45
-34.55
-22.34
-8.58
5.42
17.76
26.35
29.64
27.46
21.24
13.51
6.73
2.30
0.09
-1.12
-2.73
-5.48
-9.12
-12.67
-14.93
-15.01
-12.58
-7.94
-1.87
4.60
10.51
15.30
18.87
21.57
23.81
25.72
27.07
27.46
26.63
24.81
22.55
20.51
19.05
18.10
17.27
16.17
14.64
12.84
11.04
9.49
8.24
7.18
6.09
4.71
2.86
0.43
-2.61
-6.21
-10.44
-15.44
-21.43
-28.50
-36.32
-44.01
-50.13
-53.09
-51.69
-45.52
-35.12
-21.83
-7.25
7.13
20.28
31.64
41.01
48.38
53.89
57.73
60.14
61.34
61.53
60.84
59.35
57.16
54.33
50.90
46.91
42.40
37.52
32.48
27.53
22.85
18.41
14.03
9.50
4.73
-0.14
-4.87
-9.20
-12.99
-16.20
-18.68
-20.12
-20.05
-18.03
-13.90
-7.95
-0.86
6.49
13.26
18.92
23.27
26.40
28.48
29.68
30.02
29.46
28.00
25.77
23.12
20.50
18.32
16.79
15.78
14.99
14.06
12.78
11.13
9.22
7.14
4.95
2.73
0.64
-1.09
-2.26
-2.83
-3.00
-3.10
-3.35
-3.58
-3.07
-0.83
4.06
11.93
22.35
34.25
46.29
57.15
65.81
71.51
73.85
72.87
69.23
64.17
59.21
55.53
53.43
52.12
50.10
45.91
38.98
29.91
20.18
11.38
4.45
-0.66
-4.74
-8.70
-13.12
-17.97
-22.85
-27.37
-31.43
-35.27
-39.18
-43.30
-47.49
-51.47
-54.97
-57.83
-59.88
-60.82
-60.08
-57.07
-51.47
-43.45
-33.75
-23.35
-13.08
-3.35
5.81
14.41
22.15
28.38
32.23
33.16
31.28
27.45
23.03
19.33
17.12
16.43
16.60
16.71
16.05
14.36
11.84
8.82
5.55
1.98
-2.10
-6.78
-11.97
-17.26
-22.11
-25.98
-28.46
-29.21
-28.04
-24.94
-20.16
-14.30
-8.19
-2.58
2.15
6.08
9.64
13.23
16.99
20.56
23.20
24.00
22.18
17.44
10.22
1.71
-6.48
-12.91
-16.88
-18.59
-18.88
-18.57
-17.87
-16.27
-13.05
-7.90
-1.40
5.05
9.84
11.80
10.64
6.95
1.88
-3.20
-7.03
-8.71
-7.89
-4.90
-0.73
3.38
6.41
8.03
8.59
8.88
9.60
10.99
12.84
14.75
16.46
18.03
19.70
21.65
23.80
25.74
26.93
27.00
25.90
23.95
21.65
19.38
17.24
14.95
11.97
7.78
2.17
-4.63
-11.93
-18.77
-24.15
-27.24
-27.56
-25.07
-20.14
-13.54
-6.21
0.88
6.98
11.65
14.73
16.24
16.22
14.70
11.82
7.89
3.43
-0.87
-4.50
-7.19
-9.08
-10.50
-11.78
-13.06
-14.21
-15.03
-15.43
-15.52
-15.70
-16.46
-18.26
-21.36
-25.69
-30.88
-36.26
-41.00
-44.27
-45.42
-44.10
-40.33
-34.42
-26.97
-18.73
-10.46
-2.87
3.55
8.56
12.15
14.48
15.73
16.05
15.56
14.39
12.74
10.83
8.85
6.85
4.76
2.45
-0.18
-3.12
-6.20
-9.24
-12.10
-14.77
-17.34
-19.88
-22.31
-24.35
-25.53
-25.34
-23.41
-19.66
-14.36
-8.01
-1.23
5.43
11.54
16.81
21.05
24.12
25.91
26.35
25.54
23.69
21.13
18.29
15.53
13.14
11.26
9.84
8.72
7.62
6.21
4.21
1.48
-1.94
-5.90
-10.18
-14.60
-19.04
-23.34
-27.22
-30.24
-31.86
-31.64
-29.43
-25.42
-20.19
-14.41
-8.72
-3.57
0.84
4.49
7.40
9.60
11.02
11.63
11.48
10.72
9.62
8.46
7.47
6.76
6.27
5.89
5.47
4.92
4.15
3.10
1.65
-0.34
-3.02
-6.46
-10.62
-15.25
-19.92
-24.02
-26.88
-27.91
-26.81
-23.63
-18.81
-13.02
-6.95
-1.14
4.10
8.59
12.25
14.91
16.42
16.71
15.98
14.73
13.60
13.08
13.34
14.19
15.21
16.01
16.42
16.48
16.35
16.07
15.55
14.50
12.72
10.10
6.72
2.78
-1.53
-6.00
-10.41
-14.44
-17.67
-19.62
-19.97
-18.64
-15.90
-12.25
-8.20
-4.16
-0.26
3.49
7.12
10.42
13.03
14.51
14.62
13.44
11.42
9.16
7.23
5.93
5.25
4.95
4.72
4.26
3.40
2.11
0.46
-1.37
-3.21
-4.98
-6.74
-8.69
-11.06
-13.96
-17.29
-20.72
-23.77
-25.99
-27.02
-26.71
-25.10
-22.35
-18.72
-14.44
-9.71
-4.75
0.20
4.80
8.57
11.06
12.01
11.53
10.11
8.53
7.49
7.39
8.16
9.39
10.55
11.30
11.58
11.56
11.43
11.21
10.68
9.52
7.47
4.50
0.83
-3.26
-7.51
-11.74
-15.79
-19.30
-21.73
-22.47
-21.08
-17.65
-12.80
-7.50
-2.74
0.91
3.38
4.93
5.89
6.38
6.29
5.48
4.00
2.15
0.49
-0.54
-0.78
-0.43
0.03
0.14
-0.39
-1.51
-2.97
-4.42
-5.63
-6.65
-7.72
-9.25
-11.54
-14.62
-18.09
-21.19
-23.10
-23.16
-21.24
-17.66
-13.07
-8.17
-3.39
1.08
5.24
9.04
12.25
14.58
15.82
16.10
15.84
15.61
15.84
16.57
17.47
18.00
17.73
16.53
14.61
12.30
9.96
7.72
5.59
3.39
0.96
-1.86
-5.08
-8.62
-12.24
-15.58
-18.24
-19.83
-20.14
-19.08
-16.74
-13.36
-9.24
-4.74
-0.24
3.91
7.50
10.35
12.42
13.65
14.05
13.68
12.70
11.35
9.88
8.53
7.37
6.40
5.59
4.93
4.45
4.14
3.94
3.69
3.18
2.22
0.67
-1.48
-4.12
-7.02
-9.81
-12.02
-13.12
-12.71
-10.61
-6.99
-2.27
2.95
8.16
13.07
17.61
21.75
25.33
27.81
28.39
26.34
21.32
13.76
4.88
-3.65
-10.19
-13.70
-14.00
-11.73
-7.95
-3.80
-0.05
2.85
4.74
5.51
4.98
2.93
-0.66
-5.49
-10.85
-15.75
-19.22
-20.69
-20.09
-17.83
-14.62
-11.13
-7.79
-4.74
-1.99
0.52
2.71
4.44
5.54
5.98
5.91
5.61
5.35
5.24
5.23
5.18
4.95
4.51
3.92
3.24
2.49
1.59
0.43
-1.11
-3.11
-5.58
-8.44
-11.46
-14.24
-16.21
-16.77
-15.50
-12.32
-7.67
-2.34
2.77
6.97
9.89
11.54
12.11
11.80
10.71
8.95
6.71
4.41
2.53
1.46
1.22
1.49
1.71
1.37
0.25
-1.55
-3.68
-5.85
-7.90
-9.86
-11.84
-13.95
-16.20
-18.51
-20.73
-22.66
-24.00
-24.36
-23.32
-20.59
-16.17
-10.39
-3.93
2.38
7.71
11.45
13.33
13.39
12.02
9.82
7.48
5.64
4.65
4.51
4.81
4.92
4.24
2.48
-0.25
-3.45
-6.44
-8.57
-9.44
-9.00
-7.54
-5.66
-4.14
-3.72
-4.88
-7.64
-11.46
-15.38
-18.31
-19.42
-18.43
-15.61
-11.66
-7.39
-3.45
-0.34
1.66
2.39
1.81
-0.01
-2.79
-6.08
-9.35
-12.12
-14.10
-15.29
-15.96
-16.58
-17.67
-19.57
-22.37
-25.87
-29.64
-33.27
-36.55
-39.59
-42.73
-46.34
-50.54
-55.01
-59.02
-61.61
-61.93
-59.49
-54.25
-46.57
-37.10
-26.74
-16.58
-7.92
-1.96
0.41
-0.95
-5.26
-11.02
-16.49
-20.30
-21.73
-20.84
-18.18
-14.53
-10.76
-7.67
-6.10
-6.78
-10.17
-16.24
-24.39
-33.53
-42.37
-49.86
-55.45
-59.18
-61.51
-62.92
-63.52
-62.89
-60.05
-53.87
-43.47
-28.53
-9.41
12.94
37.17
61.71
84.85
104.90
120.40
130.40
134.65
133.73
128.79
121.33
112.73
104.00
95.67
87.75
79.99
72.06
63.74
55.04
46.16
37.39
28.98
21.07
13.61
6.49
-0.42
-7.09
-13.33
-18.70
-22.64
-24.57
-24.12
-21.32
-16.59
-10.71
-4.55
1.16
5.98
9.77
12.52
14.23
14.89
14.54
13.33
11.64
9.95
8.67
7.96
7.67
7.44
6.88
5.77
4.11
2.15
0.12
-1.79
-3.61
-5.53
-7.82
-10.71
-14.37
-18.84
-23.99
-29.52
-34.85
-39.19
-41.63
-41.36
-37.97
-31.65
-23.19
-13.78
-4.62
3.41
9.92
14.90
18.60
21.17
22.70
23.21
22.77
21.63
20.23
19.03
18.30
18.12
18.20
18.16
17.57
16.20
14.04
11.30
8.25
5.18
2.24
-0.57
-3.40
-6.46
-10.02
-14.25
-19.22
-24.76
-30.51
-35.81
-39.86
-41.76
-40.81
-36.66
-29.48
-20.00
-9.41
1.02
10.17
17.42
22.62
25.95
27.78
28.37
27.95
26.76
25.13
23.53
22.42
22.13
22.69
23.78
24.97
25.78
25.86
25.06
23.38
20.97
17.97
14.61
11.07
7.57
4.22
1.11
-1.83
-4.77
-8.04
-11.97
-16.76
-22.25
-27.85
-32.61
-35.40
-35.35
-32.08
-25.90
-17.68
-8.57
0.33
8.25
14.79
19.85
23.47
25.75
26.85
27.03
26.68
26.26
26.14
26.48
27.16
27.87
28.26
28.11
27.42
26.33
25.02
23.54
21.82
19.75
17.22
14.23
10.92
7.45
3.96
0.45
-3.20
-7.17
-11.63
-16.60
-21.87
-26.97
-31.19
-33.69
-33.75
-30.95
-25.38
-17.67
-8.78
0.26
8.61
15.73
21.46
25.82
28.92
30.86
31.75
31.76
31.11
30.08
28.87
27.65
26.46
25.29
24.16
23.05
21.93
20.73
19.28
17.41
14.94
11.84
8.23
4.40
0.68
-2.59
-5.20
-7.12
-8.56
-9.90
-11.60
-14.09
-17.54
-21.75
-26.07
-29.53
-31.16
-30.22
-26.51
-20.43
-12.88
-4.89
2.59
8.92
13.82
17.25
19.27
19.97
19.46
18.00
16.02
14.09
12.77
12.39
12.91
13.88
14.61
14.46
13.10
10.59
7.38
4.05
1.13
-1.11
-2.72
-3.99
-5.32
-7.11
-9.59
-12.75
-16.30
-19.70
-22.26
-23.24
-22.02
-18.23
-11.84
-3.26
6.80
17.38
27.57
36.65
44.30
50.58
55.72
59.91
63.07
64.88
64.89
62.82
58.79
53.29
47.04
40.67
34.51
28.60
22.78
16.90
10.92
4.91
-1.17
-7.53
-14.59
-22.80
-32.37
-42.99
-53.70
-63.04
-69.38
-71.39
-68.50
-61.14
-50.71
-39.07
-28.01
-18.60
-11.04
-4.78
0.85
6.20
11.04
14.86
17.31
18.57
19.28
20.13
21.30
22.32
22.25
20.45
17.04
13.12
10.25
9.69
11.64
15.10
18.21
19.14
16.89
11.69
4.91
-1.50
-5.73
-6.61
-3.98
1.31
7.62
12.78
14.69
11.85
4.02
-7.47
-19.87
-29.81
-34.54
-32.93
-26.03
-16.49
-7.29
-0.29
4.73
9.92
18.01
30.59
46.70
62.92
74.72
78.64
73.88
62.30
47.02
30.39
12.78
-7.02
-30.34
-57.38
-87.04
-117.80
-148.62
-178.74
-206.38
-227.50
-235.94
-225.68
-194.01
-143.60
-82.23
-19.91
34.87
77.51
107.51
126.56
136.50
138.34
132.83
121.64
107.99
96.05
89.30
89.06
93.84
99.92
103.14
100.64
92.11
79.90
68.18
61.46
63.24
74.89
95.36
121.55
149.16
174.00
193.03
204.94
209.83
208.39
200.83
186.39
163.65
131.64
91.03
44.63
-3.02
-47.17
-84.39
-113.57
-135.63
-152.37
-165.23
-174.60
-180.09
-181.40
-179.00
-174.27
-168.86
-163.94
-159.74
-155.92
-152.23
-149.16
-148.07
-150.64
-158.21
-171.23
-189.25
-211.08
-234.97
-258.57
-278.84
-292.28
-295.54
-286.30
-263.81
-229.04
-184.41
-133.49
-80.72
-31.26
9.42
36.53
47.30
42.23
25.34
3.19
-17.17
-30.61
-35.74
-35.18
-34.33
-39.00
-52.86
-75.91
-104.34
-132.11
-153.24
-164.08
-164.34
-156.46
-143.73
-128.26
-110.04
-87.53
-59.44
-26.45
8.24
39.98
64.71
80.67
89.10
93.47
97.81
105.17
116.84
132.48
150.83
170.36
189.85
208.48
225.88
241.92
256.54
269.45
280.02
287.47
291.07
290.38
285.27
275.72
261.63
242.93
219.85
193.23
164.50
135.25
106.80
79.95
55.26
33.50
15.97
4.29
-0.34
2.04
9.72
19.54
27.77
31.04
27.19
15.65
-2.54
-25.04
-48.67
-69.99
-86.04
-94.93
-96.46
-92.02
-84.16
-75.68
-68.81
-64.56
-62.78
-62.46
-62.31
-61.21
-58.50
-54.05
-48.32
-42.43
-37.90
-36.25
-38.19
-43.04
-48.48
-51.24
-48.31
-38.31
-22.19
-2.91
15.80
30.87
40.95
46.52
49.25
51.02
53.31
56.86
61.79
67.64
73.40
77.56
78.36
74.33
64.97
50.96
34.09
16.48
-0.10
-14.67
-26.94
-36.93
-44.60
-49.76
-52.32
-52.60
-51.48
-50.19
-49.91
-51.40
-54.67
-59.02
-63.15
-65.60
-65.07
-60.85
-52.97
-42.15
-29.45
-15.96
-2.63
9.75
20.39
28.49
33.31
34.49
32.35
27.91
22.64
18.03
15.06
14.04
14.61
16.02
17.45
18.25
18.05
16.69
14.22
10.82
6.81
2.60
-1.30
-4.38
-6.32
-7.13
-7.17
-7.16
-7.89
-10.06
-14.06
-19.90
-27.14
-34.92
-41.94
-46.59
-47.26
-42.85
-33.20
-19.39
-3.48
12.07
25.18
34.83
41.17
45.17
48.04
50.54
52.81
54.47
55.03
54.19
52.06
48.96
45.22
40.96
36.14
30.68
24.69
18.53
12.63
7.29
2.50
-2.07
-6.72
-11.42
-15.72
-18.85
-20.25
-19.97
-18.78
-17.87
-18.27
-20.39
-23.91
-28.06
-32.16
-35.90
-39.38
-42.72
-45.71
-47.74
-48.01
-45.96
-41.45
-34.75
-26.10
-15.47
-2.57
12.85
30.39
48.84
66.30
80.82
91.10
96.93
99.16
99.32
99.04
99.61
101.85
106.08
112.11
119.14
125.60
129.36
128.12
120.20
105.17
84.13
59.37
33.65
9.36
-11.97
-29.78
-44.18
-55.55
-64.20
-70.33
-73.93
-74.89
-73.01
-68.15
-60.42
-50.41
-39.18
-28.09
-18.42
-10.97
-5.95
-3.13
-2.24
-3.17
-6.02
-10.79
-17.04
-23.76
-29.58
-33.20
-33.88
-31.67
-27.34
-21.97
-16.67
-12.47
-10.27
-10.88
-14.93
-22.63
-33.58
-46.74
-60.70
-74.09
-85.94
-95.76
-103.44
-108.98
-112.28
-113.17
-111.50
-107.33
-100.89
-92.60
-82.88
-72.19
-60.96
-49.70
-39.00
-29.40
-21.37
-15.17
-10.83
-8.19
-6.90
-6.49
-6.42
-6.18
-5.38
-3.87
-1.68
0.93
3.59
5.86
7.34
7.74
6.98
5.21
2.76
0.08
-2.49
-4.76
-6.81
-8.90
-11.41
-14.71
-18.96
-24.02
-29.23
-33.57
-35.80
-34.87
-30.35
-22.58
-12.63
-1.94
8.13
16.74
23.61
28.97
33.18
36.54
39.11
40.74
41.32
40.84
39.52
37.73
35.84
34.02
32.22
30.18
27.65
24.56
21.04
17.35
13.75
10.36
7.17
4.03
0.84
-2.52
-6.12
-10.18
-14.96
-20.73
-27.53
-34.98
-42.16
-47.78
-50.50
-49.34
-44.06
-35.24
-24.17
-12.46
-1.61
7.31
13.83
17.96
20.04
20.49
19.80
18.41
16.81
15.39
14.42
13.90
13.55
13.02
12.00
10.46
8.61
6.88
5.56
4.77
4.36
4.04
3.52
2.64
1.43
-0.03
-1.67
-3.52
-5.77
-8.64
-12.33
-16.88
-21.99
-27.02
-31.01
-32.93
-31.97
-27.82
-20.83
-11.91
-2.27
6.93
14.80
20.84
24.90
27.01
27.34
26.14
23.81
20.88
17.94
15.52
13.91
13.21
13.23
13.70
14.28
14.65
14.56
13.81
12.28
9.97
7.05
3.77
0.42
-2.77
-5.74
-8.61
-11.57
-14.93
-18.92
-23.74
-29.31
-35.19
-40.51
-44.14
-44.95
-42.17
-35.75
-26.42
-15.53
-4.64
4.91
12.27
17.12
19.63
20.16
19.15
17.01
14.13
10.99
8.07
5.84
4.59
4.36
4.85
5.54
5.86
5.32
3.71
1.04
-2.51
-6.56
-10.69
-14.38
-17.08
-18.39
-18.16
-16.65
-14.60
-12.99
-12.76
-14.37
-17.52
-21.14
-23.71
-23.84
-20.78
-14.80
-7.07
0.76
7.22
11.48
13.59
14.28
14.59
15.40
17.19
20.00
23.54
27.37
31.06
34.23
36.59
37.93
38.15
37.24
35.24
32.21
28.21
23.29
17.67
11.80
6.42
2.44
0.59
1.16
3.81
7.59
11.26
13.58
13.67
11.17
6.38
0.19
-6.03
-10.74
-12.61
-11.00
-6.10
1.02
8.87
16.03
21.62
25.40
27.64
28.73
28.96
28.46
27.31
25.69
23.93
22.39
21.39
21.01
21.22
21.95
22.97
23.91
24.11
22.83
19.46
13.87
6.32
-2.36
-11.14
-19.03
-25.46
-30.40
-34.35
-37.98
-41.92
-46.61
-51.85
-56.77
-60.12
-60.82
-58.53
-53.67
-47.06
-39.54
-32.17
-25.42
-19.18
-13.35
-8.05
-4.33
-3.12
-4.57
-7.84
-12.39
-17.06
-20.38
-21.31
-19.52
-16.70
-14.79
-15.04
-17.67
-23.69
-32.80
-43.23
-52.62
-58.65
-61.86
-64.04
-67.77
-76.06
-93.65
-122.59
-160.46
-200.98
-235.85
-260.22
-272.39
-273.78
-253.92
-211.85
-156.66
-101.63
-61.25
-30.92
-5.16
19.44
44.93
70.77
93.37
110.11
120.57
126.22
129.76
131.43
131.04
128.72
125.12
119.86
113.62
108.06
104.64
103.89
103.41
100.59
94.21
84.70
72.73
59.52
46.47
34.47
23.92
13.55
1.97
-11.62
-27.32
-45.00
-63.76
-82.03
-98.20
-111.14
-121.26
-129.55
-136.66
-141.98
-143.49
-137.98
-122.38
-95.33
-58.17
-14.94
29.10
69.16
102.25
127.24
144.26
153.82
156.21
151.69
141.08
126.23
110.06
95.86
86.40
83.15
85.96
93.30
102.76
111.80
118.24
120.70
118.68
112.57
103.55
93.35
84.03
77.71
76.10
80.07
89.35
102.51
117.26
131.09
141.78
147.67
147.79
141.76
129.72
112.41
91.18
67.92
44.68
23.28
4.88
-10.11
-21.98
-31.32
-38.83
-45.08
-50.44
-55.16
-59.24
-62.55
-64.78
-65.66
-65.22
-63.86
-62.33
-61.45
-61.82
-63.54
-66.27
-69.34
-72.12
-74.25
-75.77
-77.03
-78.44
-80.23
-82.23
-83.77
-83.81
-81.36
-75.98
-68.24
-59.87
-53.41
-51.43
-55.59
-65.79
-79.78
-93.55
-102.46
-102.62
-92.24
-72.26
-46.23
-19.18
3.81
19.12
25.42
23.75
16.76
7.60
-1.13
-7.92
-12.36
-14.91
-16.39
-17.58
-18.96
-20.56
-21.97
-22.38
-20.80
-16.39
-8.77
1.80
14.44
28.00
41.39
53.77
64.57
73.34
79.69
83.48
85.07
85.45
86.10
88.52
93.63
101.42
110.93
120.67
129.25
135.89
140.71
144.41
147.78
150.99
153.33
153.25
149.01
139.38
124.22
104.55
82.20
59.22
37.47
18.52
3.74
-5.52
-8.08
-3.36
8.24
25.12
44.78
64.35
81.15
93.11
98.79
97.17
87.59
69.69
43.63
10.39
-28.06
-68.69
-107.75
-141.28
-165.94
-179.85
-183.19
-178.22
-168.67
-158.63
-151.29
-148.23
-149.31
-153.32
-158.77
-164.56
-170.12
-175.03
-178.60
-179.68
-176.86
-169.07
-156.10
-138.81
-118.88
-98.28
-78.73
-61.36
-46.70
-34.91
-26.00
-19.83
-15.94
-13.18
-9.86
-4.07
5.62
19.49
36.42
54.23
70.41
82.98
90.93
94.29
93.64
89.68
82.89
73.66
62.61
50.88
40.09
31.98
27.81
27.92
31.57
37.23
43.21
48.20
51.56
53.28
53.58
52.66
50.43
46.72
41.50
35.08
28.15
21.56
16.02
11.88
8.99
6.90
5.03
3.00
0.62
-2.01
-4.78
-7.67
-10.84
-14.47
-18.58
-22.77
-26.20
-27.82
-26.73
-22.62
-15.91
-7.70
0.65
7.95
13.51
17.30
19.65
21.03
21.71
21.76
21.10
19.69
17.65
15.29
13.07
11.41
10.60
10.75
11.74
13.22
14.74
15.79
15.91
14.79
12.43
9.16
5.66
2.87
1.77
3.10
7.17
13.77
22.26
31.82
41.66
51.16
59.79
67.00
72.14
74.56
73.81
69.96
63.61
55.85
48.00
41.33
36.87
35.21
36.27
39.09
41.82
42.05
37.50
26.82
10.17
-10.86
-33.84
-56.33
-76.57
-93.53
-106.56
-114.96
-117.85
-114.49
-104.87
-89.99
-71.85
-52.86
-35.12
-19.96
-7.84
1.41
8.28
13.14
16.24
17.80
18.14
17.78
17.33
17.38
18.26
20.00
22.26
24.57
26.46
27.57
27.65
26.59
24.30
20.77
16.11
10.59
4.55
-1.69
-7.93
-14.17
-20.51
-26.86
-32.89
-37.88
-40.97
-41.33
-38.53
-32.66
-24.42
-14.90
-5.30
3.33
10.31
15.42
18.79
20.79
21.82
22.22
22.19
21.85
21.26
20.48
19.57
18.57
17.43
16.11
14.55
12.78
10.90
9.07
7.42
5.96
4.63
3.30
1.82
0.09
-1.95
-4.32
-7.01
-10.00
-13.25
-16.78
-20.64
-24.84
-29.25
-33.43
-36.66
-38.03
-36.79
-32.67
-26.13
-18.19
-10.02
-2.43
4.52
11.46
19.30
28.56
38.98
49.41
58.27
64.12
66.25
64.87
60.84
55.22
48.87
42.25
35.54
28.83
22.25
15.98
10.10
4.47
-1.19
-7.15
-13.43
-19.66
-25.18
-29.27
-31.50
-31.84
-30.72
-28.87
-27.08
-25.97
-25.94
-27.11
-29.43
-32.63
-36.26
-39.65
-42.05
-42.72
-41.22
-37.51
-31.96
-25.17
-17.83
-10.49
-3.52
2.86
8.53
13.41
17.41
20.52
22.74
24.17
24.91
25.10
24.86
24.27
23.35
22.05
20.33
18.27
16.06
14.08
12.63
11.82
11.47
11.17
10.53
9.35
7.75
6.07
4.69
3.76
3.15
2.45
1.12
-1.28
-5.04
-10.19
-16.48
-23.40
-30.17
-35.77
-39.22
-39.78
-37.19
-31.86
-24.76
-17.12
-10.06
-4.28
0.04
3.14
5.36
6.97
8.03
8.43
8.17
7.39
6.46
5.80
5.66
6.04
6.67
7.18
7.30
7.02
6.53
6.05
5.66
5.21
4.33
2.75
0.36
-2.62
-5.78
-8.65
-10.97
-12.69
-14.05
-15.34
-16.86
-18.81
-21.28
-24.28
-27.68
-31.13
-34.04
-35.66
-35.27
-32.48
-27.44
-20.76
-13.45
-6.45
-0.42
4.37
8.00
10.65
12.49
13.58
14.01
13.92
13.59
13.33
13.40
13.86
14.57
15.25
15.57
15.28
14.31
12.72
10.72
8.50
6.24
3.98
1.72
-0.57
-2.88
-5.08
-7.00
-8.50
-9.52
-10.20
-10.88
-11.93
-13.63
-15.96
-18.56
-20.74
-21.78
-21.10
-18.56
-14.48
-9.57
-4.60
-0.19
3.43
6.33
8.76
10.91
12.74
14.03
14.51
14.09
12.91
11.35
9.88
8.82
8.25
8.04
7.92
7.64
7.07
6.18
5.03
3.68
2.19
0.64
-0.89
-2.30
-3.49
-4.45
-5.30
-6.28
-7.72
-9.89
-12.87
-16.44
-19.98
-22.65
-23.64
-22.46
-19.09
-14.02
-7.99
-1.82
3.89
8.74
12.58
15.41
17.28
18.30
18.59
18.28
17.54
16.49
15.30
14.09
12.96
12.01
11.23
10.53
9.75
8.68
7.13
4.97
2.18
-1.10
-4.66
-8.16
-11.39
-14.24
-16.80
-19.32
-22.02
-25.01
-28.17
-31.15
-33.43
-34.44
-33.76
-31.27
-27.18
-21.98
-16.32
-10.76
-5.73
-1.43
2.08
4.70
6.32
6.83
6.31
5.07
3.62
2.49
2.02
2.21
2.74
3.18
3.23
2.79
2.02
1.14
0.32
-0.47
-1.41
-2.68
-4.45
-6.76
-9.59
-12.84
-16.45
-20.24
-23.91
-26.98
-28.91
-29.22
-27.71
-24.57
-20.27
-15.49
-10.82
-6.66
-3.13
-0.21
2.20
4.17
5.70
6.78
7.43
7.74
7.86
7.99
8.20
8.47
8.60
8.34
7.50
6.12
4.44
2.81
1.53
0.66
-0.01
-0.87
-2.28
-4.40
-7.20
-10.46
-13.88
-17.15
-20.00
-22.12
-23.16
-22.78
-20.71
-16.94
-11.77
-5.78
0.30
5.80
10.22
13.33
15.10
15.69
15.30
14.23
12.79
11.38
10.39
10.15
10.73
11.93
13.30
14.24
14.26
13.08
10.76
7.60
4.04
0.43
-2.98
-6.17
-9.24
-12.37
-15.69
-19.21
-22.81
-26.12
-28.69
-29.98
-29.56
-27.32
-23.48
-18.57
-13.29
-8.22
-3.71
0.11
3.26
5.72
7.41
8.19
8.02
7.07
5.71
4.44
3.70
3.77
4.64
6.11
7.79
9.24
10.12
10.20
9.53
8.27
6.67
4.94
3.09
1.00
-1.50
-4.43
-7.60
-10.62
-13.14
-14.97
-16.25
-17.39
-18.77
-20.52
-22.38
-23.81
-24.18
-23.01
-20.16
-15.78
-10.20
-3.89
2.61
8.65
13.53
16.62
17.61
16.59
14.15
11.12
8.35
6.37
5.30
4.90
4.74
4.44
3.76
2.63
1.09
-0.77
-2.90
-5.29
-7.93
-10.85
-14.07
-17.64
-21.55
-25.70
-29.81
-33.40
-35.86
-36.59
-35.20
-31.67
-26.33
-19.79
-12.75
-5.84
0.44
5.74
9.76
12.35
13.41
13.08
11.65
9.64
7.64
6.18
5.56
5.77
6.47
7.18
7.35
6.58
4.71
1.82
-1.83
-5.94
-10.32
-14.96
-19.96
-25.50
-31.58
-37.93
-43.84
-48.29
-50.12
-48.36
-42.67
-33.43
-21.78
-9.27
2.55
12.58
20.29
25.70
29.15
31.01
31.58
31.03
29.59
27.56
25.32
23.22
21.48
20.09
18.86
17.53
15.92
14.02
11.95
9.93
8.05
6.30
4.43
2.13
-0.94
-4.98
-9.92
-15.34
-20.50
-24.51
-26.54
-26.10
-23.19
-18.27
-12.07
-5.29
1.50
7.96
13.84
18.88
22.82
25.44
26.73
26.95
26.60
26.27
26.40
27.13
28.18
29.04
29.07
27.85
25.27
21.64
17.47
13.34
9.61
6.38
3.51
0.72
-2.29
-5.76
-9.88
-14.73
-20.13
-25.61
-30.32
-33.23
-33.46
-30.68
-25.22
-18.02
-10.26
-2.99
3.24
8.39
12.75
16.65
20.18
23.17
25.35
26.55
26.85
26.59
26.15
25.81
25.57
25.23
24.50
23.27
21.61
19.77
17.99
16.33
14.63
12.61
9.99
6.69
2.73
-1.75
-6.72
-12.15
-17.96
-23.80
-28.93
-32.38
-33.18
-30.79
-25.37
-17.75
-9.12
-0.62
7.02
13.57
19.15
23.84
27.56
30.09
31.18
30.93
29.74
28.25
27.02
26.30
25.93
25.50
24.60
22.97
20.63
17.75
14.55
11.15
7.55
3.61
-0.85
-5.89
-11.44
-17.23
-22.87
-27.99
-32.41
-36.08
-38.92
-40.70
-40.90
-38.98
-34.56
-27.80
-19.30
-10.02
-0.84
7.64
15.19
21.85
27.67
32.63
36.61
39.42
40.96
41.25
40.49
39.02
37.22
35.44
33.95
32.84
32.05
31.46
30.87
30.08
28.82
26.82
23.82
19.78
14.90
9.62
4.45
-0.22
-4.26
-7.90
-11.58
-15.76
-20.71
-26.35
-32.15
-37.25
-40.61
-41.35
-39.02
-33.71
-26.06
-17.03
-7.55
1.59
9.94
17.21
23.25
27.92
31.15
33.03
33.82
33.95
33.82
33.73
33.78
33.80
33.58
32.93
31.80
30.30
28.66
27.04
25.46
23.74
21.54
18.58
14.74
10.21
5.39
0.71
-3.52
-7.26
-10.71
-14.28
-18.42
-23.55
-29.83
-37.09
-44.67
-51.47
-56.18
-57.67
-55.41
-49.66
-41.41
-32.03
-22.84
-14.68
-7.85
-2.26
2.30
5.98
8.82
10.83
12.15
13.06
13.89
14.91
16.19
17.64
19.15
20.65
22.17
23.76
25.39
26.79
27.54
27.14
25.23
21.68
16.65
10.59
4.06
-2.31
-8.04
-12.89
-16.88
-20.31
-23.57
-26.93
-30.37
-33.45
-35.40
-35.34
-32.66
-27.27
-19.64
-10.76
-1.69
6.71
14.02
20.24
25.57
30.24
34.31
37.70
40.28
42.03
43.01
43.40
43.34
42.93
42.20
41.18
39.96
38.73
37.81
37.51
38.09
39.57
41.64
43.60
44.55
43.61
40.29
34.86
28.32
22.21
18.00
16.51
17.64
20.49
23.94
27.33
30.95
36.05
44.52
58.20
78.40
105.37
138.01
173.70
208.49
237.77
257.32
264.51
258.98
242.59
218.50
189.91
159.07
126.95
93.60
58.68
21.83
-17.29
-59.03
-103.41
-149.70
-195.93
-238.86
-274.82
-300.74
-315.34
-319.42
-315.56
-307.06
-296.90
-286.97
-277.91
-269.25
-259.59
-246.71
-227.95
-200.81
-163.96
-118.32
-67.47
-17.16
25.91
55.95
69.52
66.41
49.56
24.31
-2.87
-25.71
-39.38
-41.32
-31.63
-12.65
11.89
38.02
62.57
83.56
100.02
111.66
118.91
122.94
125.57
128.50
132.05
134.37
131.91
121.31
101.78
76.40
51.31
33.14
25.75
28.56
37.10
45.68
50.29
50.35
48.58
49.44
57.05
73.63
98.57
128.39
157.37
179.07
188.19
182.29
162.47
132.46
96.77
58.65
18.79
-24.36
-73.08
-128.05
-186.62
-242.51
-287.51
-314.33
-319.63
-305.40
-278.12
-246.25
-217.19
-195.39
-182.04
-176.03
-175.13
-176.64
-177.37
-173.81
-162.83
-143.07
-116.16
-86.59
-60.00
-40.58
-29.12
-22.50
-14.96
-0.48
25.33
64.25
115.68
177.21
245.28
315.19
381.11
436.33
474.30
490.35
483.14
455.15
411.91
360.02
305.33
251.80
201.51
155.34
113.64
76.46
43.29
12.70
-17.52
-49.52
-84.38
-121.30
-157.59
-189.88
-215.89
-235.50
-250.68
-263.96
-276.50
-287.20
-293.35
-292.38
-283.66
-268.98
-251.49
-233.81
-216.72
-199.20
-179.79
-158.18
-136.00
-116.22
-101.72
-94.03
-92.78
-96.37
-102.73
-109.94
-116.22
-119.69
-118.48
-111.15
-97.62
-79.59
-60.55
-44.69
-35.55
-34.85
-42.18
-55.54
-72.32
-90.36
-108.24
-125.17
-140.49
-153.49
-163.58
-170.68
-175.60
-179.96
-185.86
-195.15
-208.76
-226.17
-245.21
-262.38
-273.63
-275.54
-266.52
-247.39
-221.18
-191.94
-163.11
-136.36
-111.13
-85.37
-56.79
-23.88
13.79
55.81
100.92
146.77
189.50
224.18
246.52
255.42
254.54
251.70
255.58
271.43
298.19
328.96
354.63
368.48
369.23
360.62
348.44
336.96
327.01
316.75
303.89
287.80
270.03
253.35
239.99
230.43
223.36
216.61
208.38
198.00
186.03
173.65
161.87
150.83
139.81
127.61
113.29
96.82
79.28
62.45
48.14
37.38
30.06
25.09
20.90
16.21
10.42
3.73
-3.14
-9.46
-14.78
-19.17
-23.10
-27.38
-33.00
-40.84
-51.37
-64.34
-78.50
-91.68
-101.17
-104.45
-99.90
-87.28
-68.06
-45.05
-21.90
-2.23
11.20
17.17
16.19
10.21
1.80
-6.67
-13.68
-18.80
-22.48
-25.58
-28.97
-33.28
-38.82
-45.50
-52.77
-59.62
-64.79
-67.12
-65.97
-61.53
-54.73
-46.95
-39.62
-33.75
-29.81
-27.78
-27.37
-28.15
-29.73
-31.74
-33.85
-35.83
-37.52
-38.95
-40.22
-41.51
-42.94
-44.63
-46.64
-49.08
-52.10
-55.91
-60.73
-66.64
-73.49
-80.81
-87.77
-93.34
-96.57
-96.84
-94.06
-88.66
-81.43
-73.26
-64.96
-57.16
-50.40
-45.09
-41.42
-39.03
-36.92
-33.56
-27.33
-17.17
-2.92
14.65
34.24
54.43
73.90
91.23
104.85
113.07
114.60
109.13
97.74
82.60
66.32
51.08
38.16
28.01
20.66
16.07
14.22
14.89
17.34
20.41
22.82
23.66
22.65
20.08
16.45
12.05
6.75
0.10
-8.37
-18.72
-30.33
-41.92
-51.64
-57.51
-57.94
-52.27
-41.21
-26.89
-12.29
-0.48
6.44
7.95
5.14
0.12
-4.88
-8.25
-9.26
-7.81
-4.08
1.85
9.92
19.90
31.15
42.64
53.24
62.08
68.80
73.46
76.34
77.48
76.62
73.29
67.26
58.93
49.37
40.08
32.49
27.45
25.02
24.62
25.43
26.73
28.10
29.38
30.42
30.91
30.29
27.95
23.34
16.26
6.86
-4.31
-16.43
-28.53
-39.70
-49.24
-56.93
-63.09
-68.50
-74.14
-80.63
-87.84
-94.64
-99.21
-99.72
-95.17
-85.96
-73.82
-61.29
-50.69
-43.36
-39.32
-37.63
-37.03
-36.56
-35.92
-35.24
-34.66
-33.92
-32.38
-29.27
-24.25
-17.76
-10.99
-5.56
-2.84
-3.48
-7.15
-12.67
-18.45
-22.93
-24.95
-23.89
-19.69
-12.69
-3.55
6.86
17.57
27.62
36.26
43.08
48.10
51.64
54.22
56.27
58.06
59.64
60.95
61.93
62.59
63.02
63.27
63.34
63.17
62.61
61.56
59.95
57.76
54.95
51.41
47.03
41.63
35.17
27.81
20.00
12.45
5.95
1.16
-1.62
-2.59
-2.46
-2.34
-3.50
-6.96
-13.18
-21.79
-31.58
-40.89
-48.12
-52.33
-53.52
-52.54
-50.58
-48.66
-47.33
-46.61
-46.34
-46.45
-47.19
-49.09
-52.75
-58.65
-66.86
-76.84
-87.32
-96.26
-101.20
-99.92
-91.20
-75.42
-54.63
-32.00
-10.88
6.08
17.44
22.97
23.40
19.92
13.99
7.10
0.75
-3.84
-5.92
-5.57
-3.60
-1.37
-0.26
-1.13
-3.97
-7.88
-11.31
-12.61
-10.59
-4.91
3.84
14.31
24.93
34.33
41.74
47.11
50.93
53.98
56.96
60.27
63.96
67.84
71.66
75.32
78.88
82.56
86.67
91.51
97.29
103.98
111.25
118.33
124.11
127.37
127.30
123.77
117.44
109.53
101.33
93.82
87.45
82.13
77.45
72.80
67.45
60.71
51.99
41.14
28.51
15.04
1.99
-9.44
-18.47
-25.00
-29.56
-33.10
-36.71
-41.25
-47.13
-54.17
-61.73
-68.93
-75.07
-80.00
-84.11
-88.20
-93.00
-98.92
-105.75
-112.90
-119.65
-125.46
-130.11
-133.57
-135.90
-137.06
-137.01
-135.75
-133.40
-130.10
-125.79
-120.07
-112.26
-101.64
-87.90
-71.42
-53.37
-35.52
-19.85
-8.13
-1.45
-0.01
-2.98
-8.69
-15.07
-20.26
-23.16
-23.68
-22.31
-19.62
-15.67
-10.07
-2.37
7.22
17.60
27.07
34.14
38.21
39.76
39.91
39.63
39.21
38.26
36.08
32.28
26.97
20.70
14.05
7.43
0.94
-5.37
-11.38
-16.74
-20.95
-23.54
-24.28
-23.28
-20.96
-17.95
-14.81
-11.84
-9.01
-6.10
-2.94
0.27
2.85
3.77
2.08
-2.55
-9.39
-16.78
-22.48
-24.53
-21.94
-15.07
-5.38
5.19
14.99
23.08
29.26
33.81
37.06
39.19
40.31
40.56
40.35
40.24
40.77
42.19
44.35
46.78
48.92
50.39
51.17
51.55
52.01
52.93
54.40
56.18
57.81
58.77
58.67
57.24
54.28
49.55
42.78
33.73
22.35
8.96
-5.63
-20.16
-32.99
-42.38
-46.83
-45.53
-38.56
-27.10
-13.16
0.83
12.66
20.83
24.89
25.34
23.33
20.15
16.75
13.53
10.41
7.16
3.80
0.81
-0.91
-0.44
2.70
8.20
14.79
20.53
23.20
20.91
12.62
-1.39
-19.24
-37.59
-52.34
-59.77
-57.80
-46.85
-29.78
-10.92
5.49
16.66
21.89
22.35
20.10
17.15
14.76
13.49
13.41
14.44
16.48
19.35
22.65
25.78
28.11
29.17
28.78
27.03
24.21
20.65
16.64
12.38
7.95
3.33
-1.54
-6.67
-11.96
-17.19
-22.06
-26.34
-29.93
-32.96
-35.69
-38.42
-41.38
-44.61
-47.98
-51.13
-53.60
-54.89
-54.62
-52.56
-48.63
-42.87
-35.37
-26.36
-16.29
-5.94
3.61
11.20
15.96
17.59
16.44
13.45
9.72
6.26
3.73
2.43
2.36
3.29
4.89
6.77
8.50
9.67
10.00
9.31
7.66
5.28
2.53
-0.27
-2.96
-5.63
-8.61
-12.32
-17.10
-23.06
-29.90
-36.82
-42.69
-46.16
-46.03
-41.64
-33.15
-21.61
-8.78
3.42
13.40
20.37
24.48
26.57
27.74
28.93
30.63
32.83
35.20
37.23
38.53
38.91
38.46
37.49
36.39
35.50
35.03
34.91
34.84
34.19
32.18
27.99
21.13
11.63
0.27
-11.52
-21.95
-29.34
-32.63
-31.62
-26.92
-19.72
-11.32
-2.90
4.66
10.75
14.93
16.85
16.33
13.51
8.94
3.57
-1.36
-4.67
-5.54
-3.73
0.32
5.38
9.67
11.15
8.19
0.19
-12.06
-26.48
-40.28
-50.90
-56.83
-57.85
-54.79
-48.88
-41.11
-32.03
-21.82
-10.71
0.77
11.69
20.99
27.75
31.45
32.05
29.94
25.84
20.59
15.04
9.91
5.78
2.95
1.46
1.06
1.35
1.82
2.08
1.83
0.89
-0.89
-3.68
-7.74
-13.30
-20.56
-29.62
-40.45
-52.67
-65.31
-76.62
-84.26
-85.91
-80.22
-67.51
-49.98
-31.01
-13.98
-1.14
6.88
10.71
11.53
10.29
7.47
3.34
-1.62
-6.51
-10.26
-12.11
-11.99
-10.58
-8.90
-7.87
-7.91
-8.90
-10.48
-12.34
-14.41
-16.65
-18.78
-20.07
-19.41
-15.80
-8.76
1.28
13.10
25.09
35.78
44.19
49.96
53.10
53.85
52.49
49.40
45.09
40.21
35.40
31.14
27.63
24.74
22.22
19.81
17.42
15.08
12.85
10.75
8.62
6.24
3.49
0.53
-2.17
-3.92
-4.01
-1.96
2.27
8.27
15.30
22.41
28.72
33.55
36.48
37.35
36.22
33.30
28.99
23.89
18.82
14.62
12.06
11.50
12.79
15.24
17.80
19.45
19.41
17.32
13.23
7.41
0.28
-7.68
-15.74
-23.00
-28.43
-31.15
-30.73
-27.41
-22.04
-15.85
-9.94
-4.99
-1.18
1.69
3.86
5.46
6.37
6.42
5.54
3.94
2.07
0.42
-0.60
-0.91
-0.73
-0.47
-0.52
-1.13
-2.37
-4.16
-6.37
-8.85
-11.42
-13.67
-15.02
-14.70
-12.06
-6.85
0.61
9.43
18.52
26.93
34.15
40.14
45.05
48.94
51.57
52.50
51.39
48.23
43.39
37.57
31.48
25.59
20.04
14.78
9.67
4.68
-0.06
-4.37
-8.12
-11.27
-13.82
-15.65
-16.52
-15.98
-13.64
-9.33
-3.30
3.81
11.16
17.96
23.64
27.98
30.99
32.80
33.55
33.35
32.32
30.61
28.45
26.08
23.72
21.56
19.72
18.27
17.20
16.39
15.63
14.64
13.12
10.89
7.96
4.65
1.49
-0.83
-1.69
-0.73
2.01
6.15
11.03
15.89
20.07
23.08
24.66
24.75
23.47
21.09
18.00
14.65
11.50
8.96
7.29
6.54
6.52
6.89
7.20
7.12
6.44
5.15
3.31
1.07
-1.36
-3.65
-5.29
-5.64
-4.12
-0.49
4.99
11.50
17.92
23.14
26.41
27.53
26.78
24.70
21.92
18.89
15.91
13.09
10.50
8.17
6.18
4.63
3.63
3.31
3.78
5.10
7.19
9.74
12.15
13.59
13.27
10.61
5.61
-1.17
-8.66
-15.59
-20.81
-23.59
-23.71
-21.39
-17.22
-11.95
-6.41
-1.41
2.39
4.53
4.88
3.65
1.34
-1.39
-3.97
-5.97
-7.29
-8.05
-8.56
-9.14
-10.05
-11.42
-13.23
-15.33
-17.56
-19.76
-21.85
-23.87
-25.93
-28.15
-30.56
-32.98
-35.02
-36.12
-35.77
-33.70
-30.03
-25.19
-19.83
-14.52
-9.67
-5.42
-1.78
1.23
3.54
5.04
5.72
5.72
5.32
4.87
4.59
4.51
4.46
4.17
3.46
2.29
0.81
-0.77
-2.23
-3.45
-4.48
-5.43
-6.47
-7.82
-9.56
-11.65
-13.84
-15.69
-16.67
-16.28
-14.17
-10.28
-4.81
1.79
8.94
16.01
22.45
27.86
32.04
34.91
36.52
36.95
36.32
34.83
32.76
30.45
28.18
26.10
24.12
22.00
19.43
16.29
12.68
8.89
5.28
2.08
-0.69
-3.24
-5.84
-8.73
-11.99
-15.58
-19.31
-22.97
-26.28
-28.85
-30.19
-29.78
-27.27
-22.68
-16.49
-9.59
-3.03
2.33
6.00
7.83
8.02
6.86
4.74
2.10
-0.53
-2.56
-3.52
-3.10
-1.33
1.44
4.67
7.76
10.21
11.74
12.28
11.94
10.96
9.57
7.90
5.95
3.63
0.83
-2.38
-5.69
-8.57
-10.37
-10.53
-8.78
-5.24
-0.38
5.17
10.77
15.89
20.14
23.19
24.72
24.41
22.08
17.88
12.32
6.32
0.90
-3.07
-5.20
-5.67
-5.15
-4.45
-4.23
-4.67
-5.44
-5.83
-5.09
-2.69
1.35
6.39
11.27
14.56
14.99
11.93
5.63
-2.66
-11.11
-17.83
-21.55
-21.92
-19.42
-15.06
-9.83
-4.44
0.74
5.60
10.12
14.47
19.04
24.47
31.49
40.60
51.75
64.24
76.88
88.22
96.91
101.94
102.85
99.89
94.05
86.84
79.93
74.44
70.47
67.04
62.48
55.43
45.70
34.77
25.46
21.04
23.84
34.28
50.30
67.67
81.13
85.68
77.68
55.44
19.32
-28.16
-82.46
-137.44
-186.49
-224.21
-247.86
-257.96
-257.53
-250.41
-239.45
-225.76
-209.33
-190.24
-169.75
-150.20
-133.93
-122.01
-113.71
-107.01
-99.70
-90.37
-78.57
-64.36
-47.92
-29.41
-9.44
10.08
25.54
32.12
25.33
2.98
-33.32
-78.00
-122.92
-159.86
-183.10
-190.97
-185.81
-172.64
-157.24
-144.42
-136.93
-134.89
-135.89
-135.63
-129.18
-112.71
-85.07
-48.42
-7.72
31.06
62.99
85.61
99.17
105.72
107.84
107.50
105.96
103.96
102.25
101.63
102.64
105.10
107.94
109.43
107.92
102.51
93.48
82.10
70.07
58.78
48.82
40.11
32.21
24.86
18.33
13.47
11.42
13.32
19.91
31.36
47.16
66.06
86.37
106.15
123.55
136.91
144.99
146.85
142.08
130.95
114.62
95.25
75.70
58.90
47.07
41.04
40.10
42.29
45.13
46.37
44.64
39.64
32.01
23.01
14.08
6.44
0.91
-2.23
-3.14
-2.37
-0.67
1.16
2.46
2.99
2.95
3.03
4.07
6.71
10.95
16.03
20.62
23.33
23.27
20.41
15.59
10.04
4.89
0.69
-2.61
-5.40
-8.10
-10.93
-13.93
-17.13
-20.71
-24.88
-29.72
-34.92
-39.76
-43.39
-45.28
-45.57
-45.17
-45.46
-47.69
-52.54
-59.79
-68.41
-76.89
-83.72
-87.74
-88.43
-85.99
-81.30
-75.64
-70.40
-66.63
-64.68
-64.13
-63.96
-62.96
-60.30
-55.83
-50.05
-43.85
-38.06
-33.20
-29.44
-26.78
-25.30
-25.20
-26.62
-29.31
-32.36
-34.17
-32.97
-27.43
-17.32
-3.75
11.13
24.91
35.65
42.46
45.54
45.79
44.19
41.44
37.82
33.47
28.70
24.26
21.14
20.24
21.91
25.70
30.48
34.89
37.91
39.22
39.20
38.55
37.85
37.20
36.20
34.29
31.07
26.59
21.36
16.12
11.58
8.19
6.03
4.88
4.29
3.73
2.61
0.37
-3.39
-8.84
-15.82
-23.73
-31.51
-37.87
-41.50
-41.55
-37.89
-31.25
-23.08
-15.01
-8.36
-3.74
-1.07
0.23
0.76
0.86
0.55
-0.33
-1.82
-3.73
-5.70
-7.35
-8.48
-9.11
-9.31
-9.07
-8.24
-6.67
-4.41
-1.95
-0.18
-0.12
-2.52
-7.51
-14.43
-22.03
-28.82
-33.48
-35.24
-33.95
-30.05
-24.34
-17.71
-10.97
-4.75
0.46
4.36
6.76
7.65
7.26
6.11
4.92
4.46
5.28
7.60
11.22
15.63
20.19
24.21
27.02
28.09
26.98
23.50
17.75
10.25
1.83
-6.36
-13.12
-17.39
-18.49
-16.28
-11.22
-4.25
3.46
10.88
17.35
22.63
26.77
29.85
31.86
32.64
32.08
30.27
27.60
24.62
21.82
19.44
17.35
15.26
12.90
10.24
7.49
4.98
2.94
1.34
-0.07
-1.70
-3.91
-6.93
-10.77
-15.30
-20.12
-24.66
-28.12
-29.72
-28.89
-25.56
-20.24
-13.88
-7.54
-2.04
2.25
5.41
7.69
9.30
10.27
10.44
9.75
8.36
6.77
5.56
5.22
5.85
7.14
8.53
9.45
9.63
9.11
8.20
7.24
6.43
5.78
5.12
4.28
3.15
1.70
0.03
-1.61
-2.82
-3.04
-1.68
1.65
6.99
13.87
21.46
28.81
35.16
40.12
43.69
46.04
47.27
47.28
45.77
42.47
37.36
30.83
23.66
16.79
11.01
6.63
3.42
0.72
-2.17
-5.75
-10.01
-14.61
-19.06
-23.00
-26.40
-29.47
-32.53
-35.79
-39.31
-42.97
-46.50
-49.49
-51.43
-51.70
-49.84
-45.68
-39.56
-32.28
-24.90
-18.34
-13.15
-9.36
-6.70
-4.83
-3.53
-2.74
-2.39
-2.29
-1.98
-0.93
1.22
4.44
8.30
12.10
15.15
17.05
17.74
17.51
16.77
15.85
14.85
13.63
11.88
9.26
5.61
0.97
-4.37
-10.01
-15.37
-19.84
-22.80
-23.75
-22.44
-19.05
-14.17
-8.69
-3.53
0.71
3.83
6.00
7.51
8.50
8.90
8.55
7.43
5.82
4.28
3.38
3.39
4.19
5.26
6.02
6.02
5.20
3.80
2.21
0.73
-0.58
-1.89
-3.48
-5.63
-8.47
-11.95
-15.91
-20.15
-24.36
-28.17
-31.02
-32.27
-31.30
-27.76
-21.83
-14.24
-6.07
1.57
7.90
12.62
15.81
17.70
18.50
18.28
17.11
15.23
13.01
10.98
9.58
9.01
9.13
9.57
9.85
9.56
8.51
6.73
4.36
1.61
-1.32
-4.27
-7.10
-9.75
-12.24
-14.68
-17.28
-20.26
-23.71
-27.41
-30.85
-33.24
-33.82
-32.04
-27.84
-21.62
-14.16
-6.34
1.04
7.38
12.35
15.81
17.77
18.39
17.93
16.74
15.22
13.74
12.56
11.87
11.72
12.03
12.55
12.96
12.86
11.97
10.21
7.78
5.13
2.71
0.82
-0.57
-1.76
-3.23
-5.43
-8.65
-13.00
-18.32
-24.18
-29.88
-34.45
-36.92
-36.49
-32.91
-26.59
-18.47
-9.76
-1.59
5.37
10.87
14.96
17.83
19.67
20.67
21.04
21.07
21.01
21.08
21.32
21.66
21.98
22.16
22.17
21.99
21.58
20.86
19.71
18.06
15.89
13.35
10.58
7.76
4.96
2.21
-0.55
-3.42
-6.55
-10.14
-14.36
-19.23
-24.40
-29.09
-32.23
-32.73
-29.94
-23.93
-15.58
-6.23
2.79
10.53
16.59
21.04
24.14
26.11
27.16
27.45
27.30
27.11
27.26
27.92
28.98
30.09
30.81
30.82
30.01
28.55
26.74
24.85
23.01
21.07
18.66
15.42
11.21
6.21
0.92
-4.08
-8.48
-12.37
-16.23
-20.67
-26.13
-32.62
-39.58
-46.01
-50.72
-52.65
-51.18
-46.27
-38.53
-28.99
-18.83
-9.00
-0.12
7.53
13.86
18.80
22.29
24.36
25.26
25.48
25.61
26.12
27.19
28.67
30.24
31.55
32.34
32.49
31.99
30.88
29.27
27.32
25.23
23.11
20.94
18.58
15.90
12.89
9.74
6.74
4.08
1.68
-0.91
-4.30
-9.03
-15.24
-22.43
-29.59
-35.33
-38.30
-37.58
-32.89
-24.74
-14.25
-2.86
8.04
17.51
25.07
30.73
34.72
37.28
38.59
38.82
38.21
37.18
36.26
35.90
36.29
37.26
38.40
39.25
39.54
39.23
38.46
37.41
36.12
34.46
32.19
29.07
25.03
20.17
14.82
9.42
4.39
-0.02
-3.80
-7.18
-10.59
-14.46
-19.07
-24.42
-30.09
-35.30
-39.06
-40.42
-38.77
-34.06
-26.89
-18.28
-9.46
-1.48
4.95
9.55
12.38
13.74
14.00
13.61
13.03
12.69
12.91
13.76
15.05
16.39
17.36
17.64
17.20
16.19
14.88
13.46
11.90
10.00
7.47
4.15
0.11
-4.42
-9.06
-13.48
-17.45
-20.89
-23.82
-26.44
-29.03
-31.94
-35.48
-39.73
-44.38
-48.70
-51.65
-52.23
-49.86
-44.60
-37.15
-28.63
-20.17
-12.58
-6.23
-1.13
2.87
5.94
8.16
9.61
10.46
10.98
11.54
12.45
13.93
15.94
18.35
20.89
23.33
25.49
27.30
28.73
29.86
30.68
31.12
30.99
30.00
27.87
24.45
19.87
14.46
8.66
2.88
-2.67
-7.99
-13.24
-18.51
-23.62
-28.10
-31.21
-32.24
-30.70
-26.55
-20.24
-12.53
-4.29
3.73
10.99
17.19
22.17
25.86
28.35
29.82
30.65
31.34
32.42
34.28
37.07
40.63
44.50
48.08
50.81
52.31
52.48
51.43
49.41
46.76
43.76
40.70
37.72
34.81
31.74
28.05
23.17
16.59
8.07
-2.25
-13.90
-26.23
-38.42
-49.58
-58.76
-65.03
-67.69
-66.47
-61.67
-54.17
-45.11
-35.52
-26.20
-17.57
-9.97
-3.78
0.47
2.34
1.70
-1.04
-4.93
-8.78
-11.61
-12.84
-12.49
-10.98
-8.85
-6.58
-4.48
-2.73
-1.51
-0.99
-1.28
-2.40
-4.18
-6.41
-8.84
-11.30
-13.78
-16.37
-19.27
-22.69
-26.77
-31.37
-36.06
-40.04
-42.37
-42.21
-39.17
-33.53
-26.09
-17.94
-10.03
-2.98
3.02
7.99
11.96
14.91
16.71
17.37
17.07
16.21
15.31
14.79
14.88
15.49
16.40
17.28
17.88
18.01
17.62
16.66
15.11
12.95
10.21
6.96
3.38
-0.29
-3.80
-6.91
-9.51
-11.62
-13.37
-15.03
-16.86
-19.14
-21.98
-25.27
-28.60
-31.29
-32.47
-31.38
-27.54
-21.00
-12.39
-2.75
6.77
15.26
22.20
27.59
31.69
34.75
36.87
37.91
37.69
36.24
33.89
31.23
28.91
27.33
26.52
26.12
25.64
24.72
23.35
21.79
20.43
19.52
18.99
18.52
17.69
16.21
14.01
11.29
8.42
5.73
3.46
1.68
0.25
-1.10
-2.75
-5.13
-8.56
-13.12
-18.52
-24.13
-29.00
-32.17
-32.84
-30.71
-25.98
-19.33
-11.75
-4.24
2.44
7.83
11.84
14.59
16.25
16.96
16.80
15.87
14.34
12.45
10.44
8.47
6.52
4.48
2.19
-0.43
-3.39
-6.65
-10.16
-13.98
-18.25
-23.10
-28.56
-34.52
-40.66
-46.55
-51.74
-55.88
-58.88
-60.92
-62.45
-63.98
-65.89
-68.20
-70.43
-71.72
-70.99
-67.40
-60.56
-50.74
-38.81
-25.96
-13.38
-1.87
8.26
17.14
25.04
32.14
38.30
43.25
46.71
48.65
49.38
49.38
49.10
48.71
48.17
47.25
45.87
44.04
41.93
39.59
36.92
33.65
29.48
24.31
18.31
11.87
5.43
-0.69
-6.41
-11.91
-17.55
-23.62
-30.25
-37.18
-43.74
-48.92
-51.68
-51.24
-47.39
-40.67
-32.14
-23.11
-14.70
-7.58
-1.95
2.34
5.57
7.98
9.72
10.86
11.53
11.87
12.05
12.21
12.42
12.66
12.88
13.03
13.07
12.96
12.64
12.00
10.92
9.36
7.36
5.11
2.89
0.94
-0.59
-1.78
-2.81
-3.96
-5.45
-7.29
-9.21
-10.56
-10.43
-7.74
-1.60
8.42
21.99
38.05
55.05
71.38
85.91
98.32
109.19
119.75
131.51
145.72
162.93
182.66
203.38
222.84
238.69
249.23
253.92
253.54
249.79
244.65
239.56
235.03
230.53
224.85
216.59
204.71
188.80
169.21
146.86
122.95
98.43
73.81
48.89
22.82
-5.49
-36.83
-70.80
-105.36
-136.82
-160.90
-174.32
-176.38
-169.82
-160.18
-154.10
-156.99
-171.27
-195.73
-226.31
-257.62
-284.52
-303.16
-311.30
-308.24
-294.54
-271.80
-242.41
-209.24
-175.27
-143.36
-116.08
-95.59
-83.45
-80.17
-84.84
-95.03
-107.23
-117.88
-124.53
-126.88
-126.92
-128.21
-134.57
-148.64
-170.86
-199.26
-229.95
-258.00
-278.58
-287.72
-282.91
-263.33
-229.90
-185.23
-133.35
-79.25
-28.20
15.05
46.91
65.34
69.99
61.97
43.51
17.48
-13.12
-45.63
-78.05
-109.03
-137.65
-162.94
-183.52
-197.56
-203.23
-199.49
-186.66
-166.41
-141.19
-113.13
-83.34
-51.65
-17.39
19.62
58.03
94.90
126.46
149.49
162.51
166.31
163.53
157.68
152.14
149.40
150.82
156.76
166.86
180.37
196.29
213.36
230.01
244.33
254.35
258.42
255.94
247.57
235.32
221.74
209.09
198.29
188.66
178.26
164.84
146.92
124.58
99.60
74.93
53.76
38.57
30.44
28.97
32.52
38.86
45.79
51.61
55.29
56.40
54.94
51.12
45.28
37.94
29.80
21.70
14.54
8.91
4.91
2.09
-0.37
-3.29
-7.13
-11.77
-16.67
-21.08
-24.37
-26.18
-26.46
-25.44
-23.48
-21.04
-18.57
-16.43
-14.86
-13.93
-13.58
-13.76
-14.48
-15.83
-17.87
-20.55
-23.72
-27.17
-30.71
-34.25
-37.69
-40.80
-43.16
-44.19
-43.26
-40.03
-34.59
-27.61
-20.30
-14.13
-10.49
-10.25
-13.45
-19.30
-26.40
-33.25
-38.71
-42.46
-44.89
-46.85
-49.22
-52.42
-56.10
-59.19
-60.09
-57.15
-49.30
-36.53
-20.23
-2.92
12.31
22.74
26.78
24.50
17.54
8.60
0.68
-3.79
-3.43
1.80
10.81
21.76
32.57
41.43
47.12
49.19
47.95
44.35
39.70
35.40
32.62
31.96
33.38
36.26
39.69
42.79
45.02
46.14
46.24
45.42
43.75
41.06
37.10
31.62
24.51
16.03
6.87
-1.83
-8.78
-12.81
-13.32
-10.47
-5.21
1.07
6.95
11.31
13.56
13.56
11.50
7.80
2.98
-2.35
-7.48
-11.65
-14.19
-14.71
-13.24
-10.24
-6.56
-3.15
-0.83
-0.08
-1.03
-3.59
-7.62
-13.07
-19.88
-27.83
-36.33
-44.41
-50.85
-54.56
-54.90
-51.94
-46.50
-39.89
-33.63
-28.99
-26.65
-26.66
-28.51
-31.39
-34.58
-37.60
-40.29
-42.63
-44.58
-45.95
-46.41
-45.67
-43.73
-40.89
-37.78
-35.17
-33.81
-34.30
-36.98
-41.73
-47.86
-54.06
-58.51
-59.20
-54.59
-44.09
-28.41
-9.54
9.79
26.86
39.57
46.92
49.01
46.79
41.62
34.90
27.79
21.12
15.45
11.15
8.44
7.33
7.56
8.58
9.59
9.61
7.81
3.60
-3.13
-11.96
-21.85
-31.32
-38.71
-42.61
-42.22
-37.66
-29.90
-20.46
-10.93
-2.54
4.02
8.59
11.24
12.12
11.35
9.07
5.51
1.10
-3.56
-7.88
-11.32
-13.62
-14.83
-15.19
-15.13
-15.04
-15.30
-16.25
-18.23
-21.53
-26.21
-31.80
-37.23
-40.92
-41.26
-37.16
-28.55
-16.43
-2.58
11.03
22.80
31.93
38.29
42.16
43.93
43.79
41.86
38.27
33.41
27.89
22.48
17.80
14.16
11.54
9.64
8.12
6.67
5.07
3.10
0.45
-3.23
-8.12
-14.06
-20.32
-25.64
-28.52
-27.72
-22.69
-13.80
-2.20
10.54
23.02
34.35
44.18
52.50
59.24
64.17
66.98
67.51
66.00
63.09
59.60
56.23
53.34
50.95
48.87
46.89
44.84
42.58
39.88
36.46
31.97
26.11
18.68
9.54
-1.40
-14.05
-28.01
-42.27
-55.24
-64.95
-69.68
-68.56
-61.98
-51.48
-39.23
-27.27
-16.99
-8.90
-2.93
1.15
3.42
3.83
2.46
-0.19
-3.16
-5.30
-5.74
-4.21
-1.22
2.26
5.22
6.98
7.45
6.94
5.98
4.94
3.88
2.51
0.30
-3.32
-8.74
-15.90
-24.15
-32.19
-38.36
-41.01
-39.10
-32.48
-22.03
-9.32
3.90
16.24
26.91
35.66
42.56
47.56
50.39
50.61
47.89
42.42
35.01
27.01
19.92
14.84
12.14
11.42
11.82
12.51
13.11
13.75
14.90
16.97
19.97
23.44
26.56
28.51
28.65
26.68
22.76
17.42
11.68
6.94
4.83
6.89
14.05
26.26
42.26
59.73
75.86
88.06
94.63
95.16
90.42
81.94
71.44
60.39
49.78
40.23
32.12
25.79
21.42
18.93
17.87
17.47
16.89
15.56
13.36
10.59
7.72
5.09
2.66
0.02
-3.38
-7.89
-13.42
-19.41
-24.98
-29.36
-32.23
-33.87
-35.03
-36.69
-39.65
-44.28
-50.34
-56.95
-62.77
-66.19
-65.81
-60.77
-51.18
-38.15
-23.48
-9.20
3.08
12.52
19.02
22.98
24.94
25.34
24.53
22.87
20.85
19.10
18.17
18.36
19.55
21.23
22.73
23.44
23.05
21.60
19.39
16.77
13.97
11.04
7.84
4.21
0.06
-4.50
-9.22
-13.76
-17.80
-21.18
-24.00
-26.55
-29.27
-32.61
-36.76
-41.61
-46.61
-50.92
-53.59
-53.82
-51.13
-45.53
-37.52
-27.98
-18.00
-8.62
-0.67
5.35
9.29
11.28
11.67
10.91
9.51
7.98
6.78
6.20
6.32
6.99
7.86
8.54
8.73
8.30
7.37
6.15
4.88
3.68
2.50
1.16
-0.51
-2.60
-5.08
-7.77
-10.42
-12.83
-14.91
-16.75
-18.55
-20.55
-22.92
-25.64
-28.47
-30.93
-32.45
-32.44
-30.43
-26.30
-20.23
-12.79
-4.89
2.50
8.47
12.48
14.36
14.35
12.89
10.47
7.54
4.44
1.45
-1.20
-3.37
-5.01
-6.25
-7.29
-8.42
-9.77
-11.35
-13.03
-14.67
-16.23
-17.79
-19.49
-21.45
-23.63
-25.89
-28.01
-29.81
-31.29
-32.63
-34.17
-36.30
-39.29
-43.15
-47.53
-51.63
-54.42
-54.81
-52.11
-46.31
-38.19
-29.09
-20.52
-13.63
-8.94
-6.25
-4.86
-3.89
-2.58
-0.49
2.46
6.11
10.09
14.04
17.65
20.73
23.17
24.95
26.06
26.44
26.01
24.70
22.50
19.57
16.16
12.63
9.32
6.40
3.88
1.60
-0.71
-3.35
-6.50
-10.20
-14.27
-18.22
-21.29
-22.57
-21.23
-16.81
-9.53
-0.22
9.78
19.14
26.84
32.47
36.09
38.01
38.52
37.74
35.79
32.94
29.75
26.98
25.35
25.27
26.64
28.94
31.36
33.15
33.76
33.01
31.12
28.60
26.16
24.51
24.06
24.78
26.08
26.90
25.98
22.25
15.18
5.01
-7.21
-19.80
-30.88
-38.84
-42.84
-42.98
-40.31
-36.47
-33.18
-31.73
-32.67
-35.76
-40.19
-44.96
-49.21
-52.42
-54.39
-55.16
-54.87
-53.67
-51.82
-49.67
-47.71
-46.42
-46.20
-47.16
-49.09
-51.49
-53.61
-54.64
-53.88
-50.92
-45.77
-38.88
-30.99
-22.92
-15.29
-8.34
-1.99
4.03
9.95
15.78
21.38
26.55
31.14
35.08
38.38
40.93
42.51
42.75
41.36
38.24
33.66
28.22
22.79
18.25
15.32
14.42
15.70
18.98
23.95
30.14
36.96
43.73
49.70
54.13
56.42
56.15
53.21
47.73
40.17
31.28
22.04
13.63
7.17
3.55
3.12
5.62
10.25
15.90
21.50
26.24
29.63
31.55
31.99
31.05
28.88
25.76
22.10
18.41
15.15
12.53
10.42
8.43
6.09
3.16
-0.35
-4.12
-7.79
-11.17
-14.38
-17.83
-22.03
-27.29
-33.59
-40.44
-47.06
-52.67
-56.61
-58.67
-59.01
-58.15
-56.70
-55.24
-54.12
-53.47
-53.24
-53.28
-53.39
-53.32
-52.78
-51.43
-49.04
-45.57
-41.31
-36.85
-32.87
-29.97
-28.48
-28.49
-29.91
-32.75
-37.11
-43.14
-50.84
-59.70
-68.66
-76.24
-80.91
-81.64
-78.24
-71.39
-62.32
-52.40
-42.69
-33.79
-25.88
-19.00
-13.23
-8.68
-5.43
-3.36
-2.08
-1.09
0.04
1.45
2.95
4.05
4.15
2.64
-0.84
-6.51
-14.28
-23.71
-34.00
-43.94
-52.06
-56.82
-57.11
-52.50
-43.49
-31.41
-18.00
-5.03
6.20
14.90
20.82
24.02
24.75
23.34
20.26
16.19
11.86
8.00
5.13
3.38
2.50
1.95
1.11
-0.60
-3.52
-7.86
-13.62
-20.62
-28.41
-36.21
-42.83
-46.91
-47.20
-43.00
-34.43
-22.41
-8.38
6.21
20.21
32.95
44.05
53.22
60.11
64.44
66.20
65.79
64.01
61.80
59.78
58.16
56.61
54.60
51.66
47.66
42.74
37.27
31.60
25.87
20.04
13.88
7.15
-0.45
-9.05
-18.59
-28.65
-38.35
-46.43
-51.46
-52.22
-48.06
-39.17
-26.45
-11.22
5.23
21.88
38.10
53.49
67.61
79.87
89.65
96.50
100.42
101.96
102.03
101.54
101.15
101.03
100.93
100.44
99.24
97.20
94.50
91.41
88.22
85.05
81.87
78.46
74.56
69.91
64.40
58.12
51.40
44.67
38.35
32.64
27.44
22.45
17.27
11.53
5.01
-2.37
-10.49
-18.98
-27.20
-34.21
-38.89
-40.19
-37.52
-30.94
-21.17
-9.32
3.44
16.19
28.38
39.67
49.73
58.16
64.51
68.49
70.18
70.09
69.02
67.73
66.70
65.98
65.32
64.38
62.97
61.15
59.12
57.03
54.85
52.32
49.15
45.19
40.55
35.60
30.80
26.51
22.83
19.62
16.53
13.20
9.34
4.87
-0.07
-5.16
-10.03
-14.40
-18.28
-21.95
-25.87
-30.50
-36.00
-42.19
-48.51
-54.10
-58.01
-59.37
-57.58
-52.48
-44.36
-34.00
-22.41
-10.56
0.81
11.33
20.82
29.19
36.22
41.64
45.21
46.95
47.14
46.35
45.15
43.95
42.82
41.54
39.79
37.29
34.03
30.24
26.28
22.42
18.79
15.22
11.44
7.18
2.34
-2.90
-8.23
-13.29
-17.81
-21.79
-25.44
-29.05
-32.92
-37.20
-41.92
-47.06
-52.56
-58.31
-63.93
-68.79
-71.97
-72.52
-69.83
-63.85
-55.20
-44.88
-34.01
-23.40
-13.48
-4.38
3.86
11.05
16.87
20.95
23.08
23.42
22.42
20.77
19.14
17.97
17.36
17.15
17.00
16.60
15.78
14.47
12.70
10.63
8.43
6.32
4.45
2.86
1.46
0.04
-1.59
-3.53
-5.72
-7.99
-10.16
-12.17
-14.05
-15.94
-17.99
-20.35
-23.11
-26.28
-29.68
-32.92
-35.33
-36.17
-34.86
-31.23
-25.63
-18.74
-11.37
-4.12
2.70
9.09
15.08
20.63
25.50
29.34
31.92
33.20
33.42
32.97
32.28
31.64
31.12
30.68
30.17
29.50
28.71
27.90
27.18
26.57
25.96
25.14
23.92
22.27
20.30
18.22
16.22
14.33
12.39
10.20
7.57
4.56
1.36
-1.75
-4.61
-7.26
-9.98
-13.10
-16.91
-21.44
-26.43
-31.31
-35.27
-37.55
-37.59
-35.26
-30.89
-25.19
-18.97
-12.92
-7.48
-2.80
1.07
4.12
6.30
7.56
8.00
7.82
7.35
6.89
6.59
6.43
6.25
5.83
5.03
3.85
2.37
0.83
-0.62
-1.98
-3.33
-4.92
-6.92
-9.37
-12.11
-14.83
-17.20
-19.01
-20.28
-21.26
-22.31
-23.85
-26.11
-29.07
-32.36
-35.39
-37.40
-37.77
-36.17
-32.68
-27.72
-21.88
-15.79
-9.92
-4.51
0.37
4.70
8.44
11.42
13.40
14.25
14.00
13.01
11.73
10.65
9.97
9.61
9.24
8.48
7.18
5.46
3.68
2.22
1.29
0.85
0.58
0.11
-0.88
-2.45
-4.42
-6.43
-8.11
-9.27
-9.97
-10.54
-11.44
-13.06
-15.62
-19.09
-23.20
-27.56
-31.61
-34.77
-36.50
-36.37
-34.26
-30.35
-25.13
-19.26
-13.36
-7.87
-2.99
1.26
5.00
8.30
11.15
13.39
14.85
15.39
15.05
14.07
12.86
11.81
11.16
10.87
10.68
10.32
9.58
8.50
7.25
6.00
4.83
3.64
2.32
0.74
-1.08
-3.09
-5.18
-7.31
-9.44
-11.58
-13.76
-15.97
-18.28
-20.70
-23.23
-25.84
-28.38
-30.67
-32.37
-33.09
-32.40
-30.00
-25.82
-20.14
-13.55
-6.83
-0.66
4.49
8.46
11.27
12.99
13.61
13.13
11.64
9.47
7.12
5.13
3.83
3.21
2.96
2.62
1.76
0.22
-1.91
-4.36
-6.78
-8.84
-10.38
-11.38
-12.03
-12.61
-13.41
-14.58
-16.01
-17.38
-18.35
-18.71
-18.58
-18.32
-18.40
-19.19
-20.77
-22.95
-25.25
-27.11
-27.94
-27.24
-24.80
-20.70
-15.43
-9.71
-4.32
0.14
3.42
5.62
6.99
7.77
8.02
7.67
6.60
4.83
2.55
0.11
-2.12
-3.75
-4.50
-4.18
-2.69
-0.11
3.29
7.13
10.96
14.38
17.13
19.08
20.22
20.63
20.46
19.91
19.23
18.61
18.13
17.68
16.98
15.77
13.88
11.37
8.54
5.88
3.92
3.17
3.96
6.38
10.22
14.97
19.93
24.36
27.69
29.67
30.32
29.88
28.57
26.49
23.56
19.71
15.05
9.92
4.85
0.30
-3.47
-6.55
-9.23
-11.76
-14.22
-16.48
-18.31
-19.65
-20.64
-21.61
-22.96
-24.83
-27.15
-29.60
-31.83
-33.59
-34.90
-36.01
-37.35
-39.29
-41.93
-45.00
-47.82
-49.47
-49.11
-46.31
-41.25
-34.68
-27.69
-21.33
-16.29
-12.72
-10.30
-8.46
-6.70
-4.79
-2.78
-0.90
0.58
1.59
2.21
2.66
3.12
3.63
4.00
3.95
3.23
1.69
-0.58
-3.37
-6.41
-9.49
-12.47
-15.36
-18.21
-21.10
-24.04
-27.02
-30.01
-33.01
-35.94
-38.61
-40.68
-41.67
-41.20
-39.08
-35.54
-31.12
-26.54
-22.41
-19.03
-16.45
-14.53
-13.21
-12.55
-12.67
-13.58
-14.94
-16.15
-16.47
-15.34
-12.60
-8.64
-4.12
0.25
4.02
7.11
9.76
12.36
15.27
18.72
22.86
27.78
33.61
40.41
48.06
56.24
64.47
72.22
79.13
85.01
89.86
93.72
96.66
98.76
100.19
101.15
101.72
101.75
100.78
98.17
93.40
86.34
77.37
67.24
56.91
47.21
38.72
31.74
26.25
22.01
18.53
15.21
11.45
6.78
1.09
-5.36
-12.09
-18.51
-24.16
-28.87
-32.79
-36.33
-40.03
-44.28
-49.11
-54.13
-58.60
-61.74
-63.15
-63.03
-62.22
-61.89
-63.04
-65.98
-70.07
-73.81
-75.45
-73.56
-67.63
-58.07
-46.05
-32.87
-19.56
-6.68
5.58
17.01
27.14
35.14
40.18
41.81
40.26
36.42
31.45
26.31
21.41
16.63
11.63
6.30
1.02
-3.40
-5.99
-6.10
-3.53
1.40
8.08
15.96
24.77
34.51
45.35
57.29
69.98
82.66
94.35
104.26
112.01
117.86
122.37
126.06
129.00
130.55
129.53
124.65
115.03
100.64
82.39
61.88
40.96
21.12
3.13
-13.00
-27.80
-41.70
-54.62
-65.66
-73.39
-76.40
-73.95
-66.35
-54.91
-41.49
-27.85
-15.14
-3.76
6.46
15.83
24.46
32.03
37.93
41.44
41.96
39.18
33.20
24.54
14.11
3.06
-7.39
-16.27
-23.03
-27.69
-30.72
-32.85
-34.82
-37.22
-40.44
-44.72
-50.13
-56.43
-62.93
-68.52
-71.85
-71.92
-68.47
-62.25
-54.79
-47.79
-42.47
-39.19
-37.50
-36.60
-35.78
-34.75
-33.64
-32.71
-32.10
-31.72
-31.30
-30.49
-29.10
-27.06
-24.44
-21.38
-17.99
-14.39
-10.70
-7.20
-4.22
-2.23
-1.72
-3.06
-6.39
-11.49
-17.78
-24.42
-30.62
-35.79
-39.79
-42.82
-45.24
-47.40
-49.29
-50.61
-50.86
-49.58
-46.53
-41.76
-35.57
-28.35
-20.55
-12.57
-4.84
2.28
8.48
13.55
17.52
20.64
23.31
25.98
28.93
32.19
35.43
38.11
39.71
39.84
38.37
35.43
31.21
25.93
19.77
12.94
5.83
-1.11
-7.26
-12.10
-15.29
-16.81
-16.89
-15.95
-14.46
-12.79
-11.11
-9.40
-7.57
-5.54
-3.37
-1.21
0.70
2.19
3.18
3.68
3.70
3.24
2.29
0.92
-0.69
-2.31
-3.76
-5.04
-6.36
-7.99
-10.16
-12.84
-15.81
-18.72
-21.30
-23.46
-25.32
-27.12
-29.20
-31.86
-35.29
-39.46
-43.88
-47.67
-49.65
-48.75
-44.44
-37.01
-27.52
-17.42
-7.99
-0.00
6.44
11.66
16.01
19.64
22.43
24.17
24.79
24.42
23.38
21.98
20.45
18.90
17.42
16.13
15.24
14.97
15.39
16.35
17.50
18.37
18.62
18.10
16.90
15.28
13.49
11.70
9.90
7.88
5.29
1.85
-2.50
-7.39
-12.00
-15.31
-16.40
-14.85
-10.87
-5.22
1.07
7.12
12.40
16.78
20.28
22.90
24.52
24.96
24.17
22.34
19.91
17.40
15.27
13.70
12.67
11.92
11.16
10.12
8.62
6.65
4.25
1.58
-1.20
-3.96
-6.61
-9.16
-11.69
-14.34
-17.26
-20.65
-24.65
-29.25
-34.16
-38.70
-41.94
-42.84
-40.74
-35.59
-28.02
-19.17
-10.30
-2.32
4.33
9.70
14.07
17.67
20.55
22.61
23.82
24.25
24.15
23.77
23.29
22.78
22.23
21.67
21.16
20.73
20.33
19.74
18.69
16.95
14.46
11.35
7.89
4.35
0.86
-2.49
-5.75
-9.04
-12.53
-16.48
-21.03
-26.12
-31.28
-35.67
-38.27
-38.23
-35.14
-29.24
-21.35
-12.54
-3.92
3.74
10.05
15.03
18.88
21.79
23.82
24.93
25.07
24.32
22.97
21.42
20.05
19.03
18.28
17.61
16.80
15.71
14.33
12.65
10.64
8.26
5.54
2.57
-0.48
-3.42
-6.19
-8.88
-11.77
-15.19
-19.46
-24.70
-30.67
-36.68
-41.64
-44.32
-43.72
-39.55
-32.34
-23.28
-13.84
-5.24
1.87
7.50
12.01
15.80
19.00
21.46
22.86
23.00
22.00
20.31
18.50
17.09
16.26
15.82
15.30
14.29
12.57
10.25
7.68
5.19
2.89
0.59
-2.04
-5.29
-9.28
-13.89
-18.87
-23.99
-28.98
-33.53
-37.10
-38.97
-38.49
-35.26
-29.49
-21.91
-13.54
-5.32
2.18
8.77
14.46
19.20
22.76
24.83
25.22
24.04
21.76
19.04
16.47
14.39
12.82
11.54
10.25
8.75
7.02
5.20
3.48
1.95
0.48
-1.27
-3.76
-7.39
-12.36
-18.54
-25.46
-32.35
-38.19
-41.98
-42.90
-40.59
-35.28
-27.72
-18.93
-9.91
-1.32
6.57
13.69
19.94
25.02
28.50
30.05
29.69
27.94
25.60
23.44
21.85
20.74
19.68
18.15
15.93
13.15
10.17
7.37
4.90
2.59
0.06
-3.13
-7.24
-12.35
-18.29
-24.72
-31.08
-36.63
-40.47
-41.80
-40.04
-35.21
-27.82
-18.80
-9.18
0.17
8.72
16.21
22.49
27.39
30.74
32.42
32.53
31.46
29.84
28.28
27.16
26.46
25.81
24.67
22.62
19.58
15.85
11.95
8.34
5.22
2.40
-0.57
-4.21
-8.94
-14.85
-21.69
-28.80
-35.11
-39.45
-40.72
-38.33
-32.43
-23.96
-14.32
-4.93
3.23
9.86
15.14
19.41
22.81
25.16
26.15
25.61
23.77
21.30
19.01
17.51
16.96
17.02
17.03
16.36
14.67
12.04
8.86
5.61
2.65
0.08
-2.28
-4.71
-7.52
-10.94
-15.11
-20.09
-25.82
-31.98
-37.86
-42.37
-44.25
-42.51
-36.86
-27.92
-17.02
-5.77
4.48
13.06
19.89
25.19
29.13
31.67
32.64
32.04
30.19
27.80
25.65
24.24
23.59
23.22
22.49
20.82
18.15
14.80
11.39
8.45
6.18
4.37
2.52
-0.00
-3.68
-8.75
-15.10
-22.21
-29.17
-34.80
-37.92
-37.64
-33.71
-26.64
-17.46
-7.51
2.05
10.41
17.14
22.08
25.20
26.53
26.29
24.86
22.83
20.80
19.18
18.09
17.30
16.41
15.08
13.14
10.66
7.90
5.10
2.43
-0.21
-3.05
-6.50
-10.89
-16.41
-22.85
-29.54
-35.39
-39.10
-39.62
-36.46
-29.96
-21.14
-11.32
-1.71
6.90
14.23
20.19
24.76
27.78
29.06
28.64
26.90
24.55
22.34
20.74
19.83
19.19
18.23
16.46
13.69
10.15
6.38
2.91
0.05
-2.30
-4.62
-7.62
-11.85
-17.59
-24.63
-32.29
-39.58
-45.38
-48.60
-48.51
-44.83
-37.93
-28.72
-18.44
-8.29
0.90
8.74
15.20
20.37
24.21
26.62
27.52
27.09
25.77
24.18
22.84
21.95
21.31
20.47
18.97
16.63
13.58
10.21
6.96
4.10
1.57
-0.97
-3.99
-7.95
-13.08
-19.34
-26.35
-33.42
-39.53
-43.57
-44.55
-41.95
-35.94
-27.34
-17.38
-7.27
2.10
10.27
17.06
22.35
25.93
27.65
27.60
26.26
24.37
22.67
21.55
20.93
20.31
19.11
16.99
13.98
10.47
7.04
4.18
2.12
0.76
-0.33
-1.81
-4.38
-8.59
-14.57
-21.87
-29.45
-35.84
-39.56
-39.58
-35.70
-28.60
-19.65
-10.43
-2.22
4.35
9.31
13.16
16.47
19.70
23.09
26.65
30.35
34.09
37.72
40.93
43.34
44.51
44.14
42.18
38.84
34.61
29.98
25.34
20.86
16.46
11.87
6.74
0.79
-6.16
-14.08
-22.67
-31.37
-39.33
-45.49
-48.82
-48.59
-44.66
-37.59
-28.45
-18.47
-8.67
0.37
8.40
15.35
21.06
25.26
27.69
28.35
27.58
26.02
24.35
23.07
22.33
21.90
21.37
20.31
18.46
15.84
12.68
9.34
6.11
3.08
0.14
-2.93
-6.30
-10.01
-14.06
-18.46
-23.21
-28.23
-33.09
-36.94
-38.67
-37.31
-32.50
-24.75
-15.22
-5.32
3.87
11.84
18.55
24.18
28.74
32.06
33.87
34.10
33.03
31.22
29.27
27.62
26.42
25.49
24.57
23.41
21.88
20.03
17.96
15.83
13.69
11.56
9.36
6.95
4.24
1.10
-2.51
-6.62
-11.11
-15.68
-19.72
-22.45
-23.03
-20.88
-15.93
-8.72
-0.22
8.51
16.56
23.43
28.87
32.79
35.12
35.80
34.98
33.05
30.67
28.52
27.11
26.51
26.37
26.16
25.32
23.52
20.80
17.44
13.88
10.52
7.58
5.02
2.65
0.18
-2.61
-5.90
-9.69
-13.91
-18.24
-22.12
-24.82
-25.54
-23.77
-19.45
-13.10
-5.66
1.76
8.25
13.22
16.44
17.93
17.81
16.33
13.87
10.95
8.14
5.91
4.49
3.82
3.52
3.13
2.26
0.78
-1.19
-3.34
-5.36
-7.07
-8.52
-9.95
-11.72
-14.18
-17.55
-21.80
-26.55
-31.08
-34.41
-35.59
-34.02
-29.67
-23.21
-15.74
-8.48
-2.48
1.69
3.85
4.16
2.99
0.84
-1.81
-4.42
-6.55
-7.97
-8.68
-8.92
-9.07
-9.49
-10.37
-11.69
-13.25
-14.79
-16.17
-17.39
-18.70
-20.37
-22.62
-25.34
-28.01
-29.77
-29.60
-26.78
-21.11
-13.14
-4.03
4.82
12.17
17.28
19.96
20.48
19.31
16.94
13.81
10.29
6.75
3.51
0.82
-1.21
-2.69
-3.86
-5.07
-6.64
-8.80
-11.62
-15.03
-18.91
-23.18
-27.80
-32.69
-37.52
-41.66
-44.19
-44.17
-41.03
-34.83
-26.39
-17.00
-8.05
-0.55
5.00
8.68
10.87
12.01
12.41
12.18
11.30
9.77
7.65
5.14
2.53
0.10
-1.93
-3.50
-4.72
-5.77
-6.91
-8.40
-10.57
-13.69
-17.96
-23.25
-28.98
-34.08
-37.24
-37.34
-33.90
-27.31
-18.75
-9.67
-1.41
5.29
10.25
13.69
15.93
17.21
17.61
17.18
16.03
14.40
12.60
10.91
9.50
8.37
7.38
6.31
4.90
2.93
0.21
-3.34
-7.75
-12.87
-18.38
-23.68
-27.89
-30.06
-29.39
-25.57
-18.94
-10.46
-1.40
7.01
13.99
19.26
22.93
25.30
26.62
26.99
26.48
25.14
23.17
20.86
18.52
16.41
14.64
13.16
11.80
10.34
8.53
6.14
2.92
-1.27
-6.47
-12.41
-18.50
-23.81
-27.27
-27.96
-25.37
-19.71
-11.77
-2.76
6.03
13.61
19.42
23.35
25.59
26.44
26.27
25.39
24.13
22.77
21.52
20.50
19.69
18.99
18.24
17.30
16.03
14.35
12.16
9.33
5.70
1.05
-4.83
-12.00
-20.16
-28.49
-35.67
-40.20
-40.86
-37.17
-29.58
-19.38
-8.20
2.45
11.50
18.50
23.36
26.25
27.42
27.16
25.84
23.94
21.95
20.26
19.01
18.10
17.19
15.87
13.91
11.27
8.23
5.16
2.33
-0.19
-2.62
-5.33
-8.73
-13.13
-18.62
-24.96
-31.53
-37.33
-41.09
-41.69
-38.49
-31.74
-22.49
-12.25
-2.50
5.83
12.46
17.60
21.52
24.34
25.92
26.11
25.04
23.23
21.42
20.27
20.05
20.49
21.04
21.10
20.36
18.85
16.85
14.64
12.36
9.96
7.27
4.12
0.48
-3.65
-8.23
-13.24
-18.63
-24.13
-29.19
-32.92
-34.32
-32.62
-27.59
-19.66
-9.89
0.42
10.14
18.52
25.28
30.43
34.05
36.22
37.00
36.59
35.33
33.71
32.24
31.25
30.86
30.92
31.12
31.10
30.56
29.34
27.43
24.96
22.12
19.08
15.88
12.44
8.67
4.48
-0.12
-5.07
-10.28
-15.67
-21.09
-26.20
-30.50
-33.29
-33.95
-32.15
-28.06
-22.31
-15.88
-9.75
-4.69
-1.08
1.06
1.87
1.58
0.39
-1.48
-3.72
-5.86
-7.36
-7.87
-7.36
-6.26
-5.35
-5.45
-7.11
-10.37
-14.73
-19.33
-23.23
-25.73
-26.58
-26.08
-24.94
-24.12
-24.47
-26.38
-29.61
-33.24
-35.89
-36.10
-32.86
-25.79
-15.24
-1.99
12.90
28.37
43.29
56.46
66.65
72.72
74.01
70.55
63.16
53.28
42.47
32.02
22.49
13.60
4.47
-6.15
-19.37
-35.80
-55.26
-76.64
-97.92
-116.18
-127.98
-130.12
-120.77
-100.66
-73.39
-44.55
-19.71
-2.15
8.38
15.07
22.10
32.30
45.82
60.53
73.56
83.18
89.41
93.64
97.22
100.56
102.85
102.82
99.71
93.84
86.49
79.25
73.33
69.03
65.68
62.01
56.72
49.07
39.30
28.55
18.32
9.74
3.02
-2.60
-8.45
-15.55
-23.98
-32.71
-39.99
-44.23
-44.72
-41.89
-37.00
-31.52
-26.45
-22.11
-18.35
-14.81
-11.23
-7.62
-4.16
-1.13
1.28
2.91
3.73
3.89
3.72
3.62
3.85
4.22
3.93
1.92
-2.45
-8.50
-14.02
-15.93
-11.57
0.04
17.80
39.25
62.03
84.87
107.68
130.62
153.00
173.07
189.00
200.39
208.99
217.95
229.74
244.11
257.34
263.67
257.84
237.30
203.35
160.43
114.51
71.40
35.62
9.88
-5.06
-10.19
-8.06
-2.09
4.24
8.10
7.66
1.99
-9.31
-26.30
-48.65
-75.73
-106.65
-140.61
-176.78
-214.03
-250.23
-282.08
-305.79
-318.36
-318.92
-309.22
-292.92
-273.90
-254.95
-237.21
-220.86
-206.28
-194.76
-188.36
-188.72
-195.87
-207.65
-220.31
-229.76
-233.11
-229.60
-220.79
-209.88
-200.52
-195.54
-196.18
-201.86
-210.68
-220.24
-228.61
-234.72
-238.26
-239.01
-236.24
-228.52
-214.00
-191.22
-159.64
-119.95
-74.05
-25.11
22.47
62.97
90.15
98.73
86.33
55.00
11.24
-35.75
-76.82
-105.35
-118.52
-116.79
-102.35
-77.87
-45.85
-9.06
28.96
63.98
92.09
111.17
122.09
128.73
136.55
150.32
171.92
199.56
228.61
253.85
271.70
281.67
286.00
288.18
291.14
295.86
301.35
305.52
306.33
302.56
293.99
280.94
263.78
242.80
218.34
191.23
163.06
135.96
112.10
92.94
78.59
67.82
58.60
48.98
38.07
26.38
15.61
7.80
4.34
5.21
8.87
12.84
14.55
12.24
5.30
-5.71
-19.24
-33.14
-44.80
-51.51
-51.11
-42.75
-27.61
-9.04
8.14
18.91
19.51
8.34
-13.87
-44.54
-79.69
-114.60
-144.39
-164.94
-173.89
-171.33
-159.85
-143.43
-126.12
-110.63
-97.89
-87.38
-78.10
-69.27
-60.61
-52.09
-43.52
-34.50
-24.65
-14.00
-3.06
7.32
16.38
23.64
29.05
32.78
35.02
35.84
35.10
32.57
28.11
21.87
14.41
6.68
-0.29
-5.67
-9.18
-11.03
-11.72
-11.67
-10.90
-9.07
-5.69
-0.41
6.87
16.05
26.81
38.53
50.11
59.95
66.31
67.98
64.98
58.77
51.80
46.49
44.12
44.37
45.57
45.67
43.28
38.34
31.95
25.70
20.87
17.96
16.62
16.00
15.01
12.48
7.17
-2.05
-15.38
-31.23
-46.01
-55.01
-54.45
-43.42
-24.77
-3.91
13.54
24.29
28.35
28.24
26.85
25.57
23.85
20.05
13.27
4.37
-3.97
-8.59
-7.34
-0.08
11.32
23.81
34.38
40.98
42.98
40.86
35.68
28.56
20.44
12.13
4.40
-1.97
-6.28
-8.14
-7.52
-4.69
-0.21
5.22
10.67
15.16
17.84
18.36
17.07
14.91
12.97
11.91
11.58
11.16
9.59
6.26
1.32
-4.41
-9.94
-14.65
-18.65
-22.57
-27.17
-32.79
-38.99
-44.69
-48.57
-49.65
-47.78
-43.73
-38.90
-34.72
-32.09
-30.99
-30.62
-29.86
-27.80
-24.25
-19.76
-15.39
-12.21
-10.96
-11.78
-14.15
-16.94
-18.54
-17.13
-11.14
0.14
16.05
34.59
52.87
68.15
78.80
85.11
88.99
92.98
98.72
105.85
111.89
113.10
106.16
89.74
65.34
37.07
10.32
-9.87
-20.30
-20.25
-11.37
2.98
18.49
30.49
34.47
26.76
5.51
-28.70
-72.59
-120.70
-166.73
-204.98
-231.67
-245.42
-247.04
-238.72
-223.41
-204.29
-184.41
-166.41
-152.16
-142.34
-136.38
-132.64
-128.82
-122.54
-111.88
-95.84
-74.60
-49.66
-23.40
1.46
22.65
38.91
50.17
57.24
61.24
63.06
63.14
61.66
58.79
54.93
50.60
46.27
42.17
38.35
34.73
31.34
28.27
25.70
23.77
22.65
22.67
24.33
28.21
34.63
43.33
53.23
62.56
69.27
71.56
68.39
59.70
46.51
30.59
14.16
-0.62
-12.24
-20.10
-24.70
-27.25
-29.32
-32.02
-35.53
-38.82
-40.01
-37.18
-29.41
-17.64
-4.81
4.92
7.47
0.27
-16.72
-40.76
-66.87
-88.90
-100.88
-98.42
-79.96
-47.39
-6.01
36.74
73.20
97.57
107.39
103.70
90.17
71.41
51.61
33.62
18.89
7.81
0.03
-5.26
-9.27
-13.48
-19.21
-27.10
-36.64
-46.23
-53.59
-56.68
-54.43
-47.03
-35.70
-22.06
-7.52
7.04
21.13
34.49
46.78
57.66
66.97
74.90
81.94
88.60
95.10
101.20
106.28
109.60
110.62
109.09
105.07
98.86
90.84
81.48
71.40
61.31
52.03
44.24
38.33
34.18
31.21
28.44
24.82
19.52
12.26
3.57
-5.27
-12.55
-16.73
-17.03
-13.72
-7.89
-0.96
5.96
12.48
18.86
25.54
32.71
39.93
46.27
50.71
52.67
52.28
50.42
48.37
47.37
48.12
50.63
54.20
57.78
60.37
61.59
61.91
62.76
66.15
73.89
86.63
102.83
118.62
128.46
126.55
108.61
73.23
22.46
-38.44
-102.11
-160.71
-207.68
-239.19
-254.80
-257.13
-250.64
-239.98
-228.46
-217.38
-206.35
-194.18
-179.87
-163.20
-144.49
-124.29
-103.08
-81.24
-59.26
-37.83
-17.78
0.04
15.05
27.11
36.59
44.30
51.27
58.33
65.75
73.01
78.96
82.28
82.16
78.77
73.28
67.45
62.83
60.11
58.95
58.19
56.60
53.42
48.68
43.05
37.36
32.17
27.50
22.93
17.96
12.33
6.22
0.11
-5.50
-10.34
-14.47
-18.07
-21.28
-23.91
-25.59
-25.88
-24.62
-22.04
-18.73
-15.37
-12.46
-10.23
-8.64
-7.58
-7.01
-7.05
-7.84
-9.33
-11.19
-12.83
-13.53
-12.75
-10.34
-6.56
-2.03
2.50
6.30
8.79
9.62
8.79
6.58
3.65
0.82
-1.04
-1.36
-0.01
2.72
6.21
9.82
13.07
15.72
17.71
19.05
19.74
19.78
19.17
17.99
16.37
14.46
12.39
10.31
8.32
6.55
5.06
3.94
3.25
3.08
3.53
4.66
6.34
8.23
10.00
11.39
12.41
13.27
14.22
15.59
17.51
19.97
22.80
25.81
28.93
32.12
35.40
38.79
42.59
47.14
52.63
58.83
65.02
69.92
71.76
68.66
59.09
43.06
21.76
-2.82
-28.54
-53.34
-75.65
-94.66
-110.59
-124.89
-138.97
-154.87
-174.72
-199.33
-226.36
-249.88
-262.28
-257.48
-233.81
-193.12
-141.40
-86.95
-37.83
1.21
29.62
49.78
65.09
79.12
98.09
128.35
173.70
233.24
301.37
369.37
427.69
468.89
476.08
442.75
378.58
305.34
242.60
197.79
167.99
146.83
129.66
114.73
104.97
101.48
102.65
104.64
103.81
98.73
90.08
79.57
68.19
56.99
48.81
43.21
37.82
30.32
20.07
8.06
-4.07
-15.13
-23.80
-29.79
-34.53
-40.23
-48.61
-59.97
-73.44
-87.79
-102.31
-116.59
-130.91
-146.46
-164.39
-185.19
-208.27
-232.38
-256.21
-278.97
-300.41
-320.98
-341.99
-365.16
-392.05
-423.20
-457.30
-490.86
-518.72
-535.38
-536.78
-521.69
-491.78
-450.65
-402.30
-349.83
-295.05
-238.99
-182.70
-127.72
-75.93
-28.86
12.65
48.52
78.83
103.33
121.32
132.05
135.23
131.55
122.55
110.23
96.43
82.46
69.17
57.21
47.34
40.30
36.54
35.86
37.26
39.24
40.25
39.19
35.53
29.24
20.52
9.71
-2.43
-14.42
-23.95
-28.29
-25.15
-13.56
5.62
29.99
56.50
82.73
107.74
132.26
157.93
186.19
217.21
249.60
280.80
308.06
329.50
344.58
353.93
358.55
358.90
354.39
343.60
325.13
298.57
265.06
226.95
186.90
146.70
106.64
65.51
21.60
-26.19
-77.70
-131.15
-183.43
-230.42
-267.82
-292.12
-301.78
-298.01
-284.52
-266.02
-246.16
-225.93
-203.63
-176.56
-143.45
-106.17
-69.54
-39.18
-18.96
-9.04
-6.09
-4.91
-0.72
9.29
25.65
47.17
72.00
98.36
125.05
151.14
175.70
197.54
215.04
226.45
230.16
225.19
211.51
190.24
163.59
134.54
106.26
81.40
61.55
47.03
37.14
30.81
27.30
26.38
28.19
32.57
38.58
44.38
47.82
47.28
42.27
33.63
22.92
11.69
0.89
-9.44
-19.90
-31.17
-43.46
-56.13
-67.81
-76.83
-81.98
-83.05
-80.87
-76.78
-71.84
-66.21
-59.13
-49.63
-37.36
-23.24
-9.33
2.03
9.25
12.23
12.40
11.97
13.11
17.18
24.39
33.90
44.05
52.84
58.32
59.17
55.02
46.55
35.32
23.10
11.34
0.73
-8.74
-17.44
-25.64
-33.20
-39.67
-44.57
-47.75
-49.40
-49.92
-49.56
-48.25
-45.67
-41.38
-35.15
-27.04
-17.45
-7.04
3.27
12.31
18.82
21.65
20.13
14.41
5.61
-4.39
-13.42
-19.69
-22.34
-21.67
-19.04
-16.29
-15.23
-17.08
-22.25
-30.33
-40.27
-50.56
-59.53
-65.70
-67.96
-66.04
-60.45
-52.50
-43.85
-36.05
-30.08
-26.08
-23.42
-21.03
-17.92
-13.54
-8.06
-2.21
3.06
6.99
9.37
10.51
11.07
11.64
12.59
13.88
15.22
16.20
16.39
15.44
13.19
9.66
5.13
0.03
-5.18
-10.18
-14.79
-18.87
-22.24
-24.57
-25.60
-25.22
-23.66
-21.36
-18.78
-16.15
-13.32
-9.90
-5.48
0.11
6.72
13.87
20.98
27.45
32.85
36.96
39.84
41.69
42.77
43.16
42.72
41.05
37.76
32.60
25.63
17.22
7.94
-1.49
-10.25
-17.42
-22.16
-23.97
-22.94
-19.82
-15.81
-12.02
-8.89
-6.07
-2.50
2.94
10.82
20.75
31.43
41.11
48.26
52.12
52.95
51.86
50.25
49.23
49.15
49.54
49.38
47.76
44.34
39.50
34.18
29.27
25.27
22.06
19.19
16.06
12.27
7.60
1.93
-4.73
-12.24
-20.09
-27.36
-32.83
-35.37
-34.29
-29.63
-22.09
-12.73
-2.74
6.84
15.13
21.50
25.54
27.14
26.68
24.92
22.98
22.03
22.96
26.08
30.97
36.48
40.98
42.97
41.50
36.73
29.89
22.87
17.46
14.68
14.46
15.80
17.48
18.55
18.78
18.41
17.80
17.09
16.02
14.13
10.86
5.87
-0.87
-8.83
-16.66
-22.08
-22.35
-15.51
-1.68
16.01
31.83
39.33
33.66
13.07
-21.16
-65.91
-117.72
-173.31
-229.12
-280.44
-321.35
-346.10
-351.11
-336.35
-305.10
-262.60
-214.72
-167.66
-128.21
-103.56
-99.40
-116.91
-150.64
-189.00
-218.04
-226.80
-211.87
-178.51
-137.96
-102.49
-80.31
-72.89
-75.73
-81.11
-81.65
-72.98
-54.46
-28.15
3.15
37.85
76.32
120.21
170.85
227.73
288.02
347.31
400.98
445.51
478.97
500.72
511.05
510.71
500.91
483.53
461.11
436.39
411.40
386.66
360.87
331.39
295.39
251.08
198.39
138.91
75.21
10.07
-54.14
-115.75
-174.24
-230.56
-287.19
-347.05
-411.60
-478.76
-541.98
-591.57
-617.95
-615.47
-584.83
-532.77
-469.12
-403.11
-340.83
-284.78
-235.23
-191.75
-153.69
-119.49
-86.03
-49.28
-6.56
40.86
86.89
122.49
139.92
136.94
118.85
96.69
82.60
84.81
104.63
136.89
172.97
204.67
226.83
237.91
238.94
231.97
219.03
202.01
182.99
164.35
148.63
137.82
132.70
132.48
135.09
137.84
138.38
135.38
128.80
119.69
109.56
99.65
90.45
81.67
72.54
62.46
51.50
40.45
30.55
22.95
18.16
15.98
15.58
15.98
16.34
16.18
15.28
13.54
10.95
7.49
3.30
-1.33
-5.93
-9.95
-12.91
-14.49
-14.54
-13.02
-10.04
-5.82
-0.72
4.69
9.74
13.77
16.39
17.54
17.49
16.69
15.64
14.63
13.75
12.94
12.06
10.97
9.57
7.81
5.68
3.26
0.71
-1.73
-3.78
-5.23
-5.95
-5.99
-5.63
-5.29
-5.53
-6.90
-9.73
-13.94
-19.00
-23.93
-27.63
-29.20
-28.22
-24.88
-19.86
-14.04
-8.21
-2.88
1.74
5.60
8.64
10.73
11.66
11.31
9.80
7.52
5.08
3.12
2.02
1.79
2.09
2.39
2.23
1.43
0.09
-1.48
-2.93
-4.09
-4.97
-5.77
-6.81
-8.33
-10.53
-13.41
-16.84
-20.58
-24.27
-27.50
-29.80
-30.79
-30.23
-28.18
-25.00
-21.27
-17.61
-14.44
-11.82
-9.58
-7.49
-5.45
-3.58
-2.18
-1.48
-1.49
-1.99
-2.59
-3.00
-3.16
-3.27
-3.67
-4.63
-6.17
-8.03
-9.84
-11.33
-12.51
-13.66
-15.16
-17.32
-20.16
-23.47
-26.91
-30.21
-33.16
-35.57
-37.25
-37.90
-37.25
-35.18
-31.80
-27.47
-22.66
-17.83
-13.41
-9.71
-6.96
-5.28
-4.66
-4.94
-5.87
-7.15
-8.53
-9.86
-10.98
-11.74
-12.05
-11.85
-11.21
-10.27
-9.15
-7.92
-6.64
-5.39
-4.41
-4.03
-4.51
-5.83
-7.52
-8.75
-8.59
-6.33
-1.81
4.58
12.03
19.59
26.45
32.10
36.34
39.22
40.87
41.48
41.16
39.99
38.02
35.30
31.93
28.00
23.63
19.00
14.32
9.82
5.73
2.25
-0.58
-2.85
-4.78
-6.63
-8.63
-10.88
-13.40
-16.08
-18.77
-21.41
-24.00
-26.70
-29.79
-33.54
-38.01
-42.92
-47.48
-50.54
-50.84
-47.44
-40.00
-28.88
-14.96
0.69
17.08
33.44
49.09
63.32
75.45
85.04
92.14
97.37
101.57
105.23
108.06
109.05
107.08
101.86
94.42
87.04
82.38
82.35
87.32
96.26
107.36
118.99
129.80
138.34
142.22
137.84
121.19
89.95
45.34
-7.21
-59.49
-103.90
-136.52
-158.83
-176.70
-197.36
-226.23
-265.35
-313.99
-370.26
-432.19
-497.23
-560.93
-616.19
-654.42
-668.40
-655.43
-618.75
-566.17
-506.89
-448.13
-393.45
-343.07
-295.62
-249.92
-205.65
-162.99
-121.86
-81.50
-40.67
1.79
46.23
91.79
136.20
176.33
209.12
232.69
247.22
254.94
259.27
263.26
268.27
273.57
277.04
276.57
271.36
262.39
251.84
241.85
233.41
226.03
218.19
208.42
196.17
182.10
167.69
154.28
142.34
131.19
119.39
105.58
89.18
70.66
51.27
32.44
15.25
0.30
-12.22
-22.34
-30.28
-36.51
-41.72
-46.63
-51.58
-56.20
-59.49
-60.13
-57.30
-51.14
-42.79
-34.02
-26.42
-20.75
-16.81
-13.79
-10.86
-7.82
-5.13
-3.65
-4.07
-6.44
-10.19
-14.39
-18.17
-21.01
-22.71
-23.03
-21.52
-17.60
-10.91
-1.73
8.95
19.73
29.26
36.73
41.87
44.77
45.55
44.16
40.46
34.51
26.75
18.05
9.54
2.31
-2.86
-5.56
-5.81
-3.97
-0.59
3.66
8.21
12.70
17.15
21.77
26.87
32.72
39.36
46.63
54.16
61.44
67.84
72.76
75.62
76.06
73.97
69.60
63.50
56.46
49.34
42.86
37.50
33.41
30.41
28.13
26.07
23.81
20.98
17.32
12.64
6.76
-0.42
-8.86
-18.14
-27.44
-35.56
-41.16
-43.23
-41.29
-35.64
-27.12
-16.92
-6.18
4.21
13.73
22.07
29.13
34.81
39.03
41.67
42.68
42.08
40.10
37.15
33.81
30.74
28.43
27.18
26.97
27.56
28.49
29.22
29.23
28.14
25.85
22.52
18.62
14.65
11.03
7.85
4.90
1.70
-2.34
-7.68
-14.49
-22.49
-30.95
-38.62
-44.14
-46.26
-44.35
-38.55
-29.84
-19.71
-9.68
-0.94
5.99
11.17
15.01
17.91
20.01
21.19
21.22
19.99
17.70
14.83
11.90
9.26
6.91
4.60
2.03
-0.86
-3.83
-6.38
-8.12
-8.99
-9.33
-9.77
-10.99
-13.40
-17.13
-22.03
-27.88
-34.44
-41.43
-48.33
-54.30
-58.33
-59.52
-57.41
-52.19
-44.63
-35.66
-26.13
-16.59
-7.40
1.03
8.24
13.69
17.10
18.60
18.90
19.03
20.03
22.54
26.67
32.00
37.90
43.80
49.36
54.46
59.02
62.74
65.10
65.42
63.13
57.94
49.80
38.74
24.65
7.36
-13.08
-35.88
-59.43
-81.43
-99.55
-112.11
-118.59
-119.80
-117.61
-114.44
-112.60
-113.67
-117.84
-123.51
-127.46
-125.35
-112.82
-86.63
-45.64
8.39
70.49
132.99
187.30
226.42
247.41
252.26
246.70
237.39
229.17
223.72
220.27
217.39
214.19
210.24
204.42
194.14
175.85
146.82
106.83
58.51
6.00
-46.80
-97.16
-143.05
-182.07
-211.15
-227.62
-230.77
-222.82
-208.17
-191.42
-175.39
-160.53
-145.96
-131.02
-116.21
-102.71
-91.03
-80.01
-67.09
-49.71
-27.12
-1.21
24.01
44.09
55.82
58.31
52.90
42.26
29.32
16.47
5.26
-3.54
-9.81
-13.94
-16.74
-19.24
-22.42
-26.75
-31.95
-36.85
-39.63
-38.39
-31.78
-19.44
-2.17
18.43
40.44
61.99
81.43
97.43
109.05
115.89
118.24
117.13
114.20
111.32
110.29
112.40
118.34
128.09
140.91
155.57
170.58
184.54
196.45
205.90
213.03
218.42
222.77
226.65
230.36
233.73
236.11
236.64
234.55
229.75
223.18
216.77
212.88
213.53
219.62
230.55
244.36
258.10
268.50
272.65
268.66
256.06
235.90
210.47
182.54
154.52
127.92
103.24
80.25
58.59
38.13
18.96
1.11
-15.86
-32.87
-51.14
-71.59
-94.50
-119.30
-144.82
-169.86
-193.66
-216.34
-238.74
-262.17
-287.94
-317.12
-350.20
-386.91
-425.92
-464.68
-499.74
-527.36
-544.59
-550.14
-544.70
-530.56
-510.69
-488.05
-465.06
-443.69
-425.70
-412.69
-405.90
-405.83
-411.96
-422.62
-435.28
-446.86
-454.23
-454.75
-446.75
-429.77
-404.47
-372.24
-334.74
-293.64
-250.78
-208.18
-168.05
-132.33
-101.87
-75.83
-51.75
-25.98
5.20
44.52
92.44
146.16
199.15
241.98
264.83
261.04
230.30
179.70
121.77
70.17
34.95
19.86
22.53
37.34
58.64
82.80
108.16
133.69
157.69
177.72
191.73
199.38
202.82
206.31
214.77
231.96
258.89
293.04
328.77
358.96
377.22
380.04
367.82
344.48
315.78
287.07
261.69
240.38
221.97
204.57
186.83
168.47
150.33
133.75
120.06
110.07
103.97
101.44
101.87
104.76
109.91
117.31
126.90
138.29
150.54
162.26
171.92
178.14
179.87
176.51
167.82
153.91
135.12
112.17
86.12
58.53
31.43
7.15
-12.06
-24.83
-31.20
-32.90
-32.82
-34.01
-38.58
-46.94
-57.91
-69.37
-79.08
-85.30
-86.95
-83.39
-74.32
-59.88
-41.02
-19.83
0.61
16.98
26.76
29.16
25.38
18.06
10.01
3.02
-3.05
-10.02
-20.32
-35.51
-55.15
-76.60
-95.90
-109.17
-113.99
-110.01
-98.88
-83.59
-67.66
-54.79
-48.39
-51.25
-64.92
-89.17
-121.76
-158.92
-196.33
-230.47
-259.41
-282.94
-301.80
-316.59
-326.88
-331.00
-326.56
-311.54
-285.29
-249.00
-205.51
-158.34
-110.70
-64.71
-21.38
18.98
56.00
88.83
116.19
136.94
150.66
157.95
160.24
159.20
156.04
151.12
144.02
134.03
120.83
104.96
87.89
71.62
58.05
48.31
42.51
39.85
39.12
39.24
39.54
39.90
40.39
41.09
41.78
42.06
41.45
39.68
36.78
33.09
29.13
25.36
22.07
19.40
17.43
16.28
16.11
17.00
18.81
21.11
23.27
24.66
24.84
23.62
21.03
17.26
12.59
7.44
2.45
-1.60
-3.93
-4.07
-2.10
1.26
4.98
8.01
9.64
9.62
8.16
5.63
2.43
-1.15
-4.88
-8.60
-12.20
-15.67
-19.10
-22.69
-26.53
-30.58
-34.61
-38.30
-41.35
-43.64
-45.22
-46.27
-47.10
-48.06
-49.43
-51.33
-53.58
-55.62
-56.54
-55.41
-51.59
-45.08
-36.56
-27.13
-17.92
-9.68
-2.71
3.05
7.70
11.15
13.20
13.65
12.49
10.07
6.88
3.44
0.09
-3.08
-6.13
-9.15
-12.19
-15.23
-18.17
-20.94
-23.48
-25.89
-28.36
-31.20
-34.70
-38.94
-43.73
-48.54
-52.63
-55.27
-55.94
-54.44
-50.87
-45.50
-38.73
-30.92
-22.53
-14.06
-6.04
1.01
6.73
10.98
13.78
15.34
15.93
15.75
14.99
13.76
12.18
10.33
8.31
6.16
3.87
1.39
-1.40
-4.64
-8.48
-12.95
-17.92
-22.97
-27.43
-30.49
-31.46
-29.98
-26.17
-20.61
-14.17
-7.64
-1.62
3.66
8.20
12.09
15.34
17.91
19.71
20.74
21.07
20.87
20.30
19.45
18.40
17.20
15.88
14.47
12.99
11.45
9.88
8.28
6.65
4.98
3.14
0.93
-1.93
-5.60
-10.01
-14.77
-19.18
-22.40
-23.68
-22.55
-19.03
-13.54
-6.84
0.23
6.92
12.74
17.40
20.84
23.05
24.05
23.91
22.77
20.96
19.01
17.49
16.90
17.40
18.83
20.78
22.82
24.70
26.52
28.58
31.11
34.06
36.95
38.94
39.10
36.69
31.48
23.85
14.69
5.24
-3.20
-9.64
-13.49
-14.69
-13.60
-10.86
-7.22
-3.33
0.27
3.25
5.44
6.78
7.38
7.38
7.03
6.57
6.17
5.95
5.99
6.32
6.95
7.84
8.89
9.92
10.73
11.11
10.93
10.14
8.75
6.78
4.21
1.09
-2.53
-6.48
-10.49
-14.25
-17.42
-19.64
-20.56
-19.89
-17.53
-13.62
-8.56
-2.90
2.85
8.40
13.67
18.72
23.54
27.94
31.59
34.08
35.18
34.97
33.79
32.19
30.67
29.53
28.74
28.06
27.16
25.80
23.94
21.75
19.47
17.27
15.17
13.04
10.68
7.92
4.68
0.97
-3.17
-7.65
-12.31
-16.82
-20.61
-23.02
-23.43
-21.50
-17.35
-11.53
-4.88
1.74
7.69
12.63
16.51
19.44
21.54
22.93
23.73
24.06
24.12
24.09
24.13
24.21
24.13
23.55
22.13
19.79
16.75
13.57
10.83
8.92
7.80
7.08
6.19
4.72
2.52
-0.25
-3.41
-6.86
-10.60
-14.59
-18.55
-21.89
-23.89
-23.98
-22.01
-18.31
-13.56
-8.51
-3.74
0.49
4.20
7.53
10.61
13.42
15.82
17.61
18.57
18.63
17.85
16.46
14.75
13.05
11.60
10.54
9.81
9.27
8.67
7.76
6.34
4.34
1.82
-1.01
-3.90
-6.66
-9.25
-11.80
-14.54
-17.71
-21.46
-25.66
-29.91
-33.60
-35.98
-36.41
-34.57
-30.59
-24.95
-18.40
-11.71
-5.43
0.15
5.00
9.13
12.51
15.00
16.42
16.73
16.11
14.97
13.86
13.21
13.19
13.58
13.96
13.88
13.11
11.70
9.90
7.98
6.07
4.08
1.85
-0.71
-3.54
-6.54
-9.59
-12.70
-15.98
-19.47
-23.01
-26.13
-28.16
-28.46
-26.66
-22.82
-17.42
-11.18
-4.88
0.88
5.78
9.75
12.90
15.37
17.24
18.47
18.99
18.72
17.75
16.34
14.84
13.60
12.76
12.24
11.74
10.91
9.53
7.63
5.43
3.23
1.21
-0.64
-2.50
-4.61
-7.18
-10.24
-13.71
-17.44
-21.14
-24.49
-27.04
-28.36
-28.03
-25.91
-22.13
-17.11
-11.51
-5.96
-0.92
3.42
7.10
10.27
12.95
14.98
16.05
15.93
14.69
12.80
11.01
10.01
10.09
11.02
12.15
12.76
12.48
11.50
10.50
10.46
12.21
16.17
22.10
29.19
36.23
42.10
46.22
48.86
51.14
54.70
61.36
72.54
88.92
110.22
135.16
161.83
188.22
212.84
234.98
254.61
271.55
284.77
291.99
289.96
275.66
247.69
207.52
159.57
110.01
64.39
25.53
-7.61
-39.16
-74.31
-116.89
-168.04
-226.48
-289.46
-353.59
-414.77
-467.73
-506.25
-524.26
-518.02
-487.95
-438.94
-378.67
-314.81
-252.94
-196.07
-145.65
-102.62
-67.83
-41.08
-20.07
-0.21
23.95
56.34
97.08
142.01
184.05
215.74
232.17
232.60
220.39
201.61
183.03
170.43
167.63
176.05
194.53
219.72
246.52
268.97
281.43
279.75
261.93
228.29
181.05
123.94
61.75
0.03
-55.62
-100.55
-132.09
-150.09
-156.70
-155.34
-149.31
-140.85
-131.04
-120.37
-109.61
-100.13
-93.53
-90.80
-91.63
-94.35
-96.68
-96.73
-93.74
-88.25
-81.57
-75.13
-69.96
-66.69
-65.58
-66.82
-70.26
-75.26
-80.59
-84.64
-86.01
-84.05
-79.11
-72.20
-64.35
-55.98
-46.93
-36.80
-25.74
-14.83
-5.97
-1.07
-1.06
-5.38
-12.06
-18.56
-22.82
-23.93
-22.08
-18.15
-12.98
-6.96
-0.06
7.89
16.85
26.31
35.53
43.78
50.74
56.51
61.41
65.61
68.65
69.58
67.22
60.87
50.86
38.69
26.65
16.97
11.00
8.81
9.26
10.66
11.48
10.87
8.66
5.16
0.86
-3.79
-8.36
-12.34
-15.16
-16.28
-15.45
-12.93
-9.46
-5.98
-3.28
-1.75
-1.24
-1.30
-1.45
-1.42
-1.29
-1.32
-1.87
-3.12
-5.00
-7.25
-9.44
-11.13
-11.99
-11.92
-11.07
-9.75
-8.35
-7.15
-6.26
-5.56
-4.82
-3.84
-2.72
-1.78
-1.52
-2.32
-4.27
-7.12
-10.43
-13.81
-17.01
-19.94
-22.51
-24.49
-25.56
-25.37
-23.77
-20.88
-17.06
-12.75
-8.32
-4.04
-0.08
3.34
6.04
7.90
8.88
9.08
8.68
7.86
6.77
5.48
4.05
2.54
1.01
-0.55
-2.31
-4.55
-7.54
-11.33
-15.65
-19.81
-23.00
-24.49
-23.93
-21.44
-17.49
-12.72
-7.73
-2.93
1.40
5.14
8.20
10.53
12.17
13.22
13.82
14.06
14.02
13.69
13.07
12.16
11.00
9.70
8.37
7.14
6.12
5.46
5.20
5.26
5.34
4.95
3.54
0.77
-3.27
-7.99
-12.44
-15.62
-16.85
-16.00
-13.41
-9.74
-5.62
-1.50
2.41
6.00
9.22
11.97
14.15
15.67
16.53
16.81
16.62
16.06
15.22
14.13
12.80
11.21
9.36
7.29
5.10
2.91
0.84
-1.10
-3.02
-5.21
-7.99
-11.50
-15.62
-19.85
-23.40
-25.47
-25.48
-23.27
-19.15
-13.73
-7.77
-1.90
3.47
8.18
12.24
15.71
18.61
20.84
22.25
22.70
22.20
20.95
19.32
17.69
16.35
15.31
14.36
13.22
11.64
9.59
7.23
4.83
2.61
0.68
-1.06
-2.81
-4.83
-7.38
-10.57
-14.31
-18.21
-21.64
-23.84
-24.19
-22.47
-18.86
-13.98
-8.61
-3.40
1.30
5.41
9.03
12.26
15.08
17.43
19.23
20.53
21.42
21.98
22.26
22.22
21.81
21.06
20.13
19.21
18.44
17.80
17.13
16.17
14.74
12.73
10.22
7.41
4.57
1.94
-0.36
-2.40
-4.48
-6.95
-10.14
-14.14
-18.72
-23.32
-27.19
-29.59
-29.97
-28.18
-24.43
-19.25
-13.36
-7.46
-2.08
2.47
6.11
8.92
11.06
12.70
13.98
14.94
15.58
15.82
15.63
15.04
14.24
13.42
12.79
12.41
12.18
11.92
11.39
10.54
9.38
8.05
6.69
5.31
3.86
2.24
0.33
-1.92
-4.46
-7.29
-10.37
-13.66
-17.02
-20.15
-22.50
-23.50
-22.69
-19.98
-15.72
-10.52
-5.12
-0.09
4.30
8.01
11.15
13.81
16.00
17.68
18.77
19.25
19.14
18.55
17.68
16.72
15.88
15.28
14.90
14.63
14.32
13.83
13.10
12.15
11.04
9.77
8.31
6.62
4.64
2.42
0.09
-2.22
-4.46
-6.81
-9.52
-12.89
-16.96
-21.36
-25.34
-27.97
-28.48
-26.56
-22.50
-17.02
-11.04
-5.36
-0.48
3.39
6.35
8.58
10.29
11.65
12.75
13.60
14.17
14.43
14.35
13.95
13.25
12.33
11.30
10.33
9.63
9.38
9.59
10.11
10.58
10.55
9.68
7.82
5.18
2.14
-0.82
-3.35
-5.38
-7.14
-9.05
-11.54
-14.84
-18.82
-22.97
-26.54
-28.76
-29.05
-27.20
-23.41
-18.18
-12.19
-6.16
-0.70
3.76
7.01
9.05
10.13
10.59
10.81
11.05
11.36
11.67
11.79
11.61
11.14
10.52
9.94
9.53
9.32
9.21
9.05
8.72
8.16
7.36
6.30
4.97
3.29
1.24
-1.17
-3.81
-6.54
-9.22
-11.89
-14.67
-17.67
-20.83
-23.87
-26.22
-27.24
-26.43
-23.61
-19.05
-13.35
-7.25
-1.47
3.54
7.55
10.62
12.85
14.41
15.39
15.83
15.82
15.51
15.09
14.74
14.55
14.51
14.47
14.29
13.88
13.24
12.44
11.51
10.46
9.24
7.80
6.14
4.32
2.44
0.56
-1.34
-3.40
-5.89
-9.09
-13.22
-18.24
-23.73
-28.90
-32.80
-34.53
-33.68
-30.33
-25.16
-19.13
-13.16
-7.91
-3.65
-0.31
2.34
4.51
6.34
7.88
9.11
10.03
10.65
11.05
11.33
11.53
11.65
11.65
11.43
10.99
10.34
9.56
8.77
8.00
7.24
6.42
5.47
4.37
3.13
1.74
0.06
-2.17
-5.24
-9.29
-14.09
-19.01
-23.10
-25.49
-25.66
-23.71
-20.26
-16.20
-12.31
-8.98
-6.19
-3.65
-1.16
1.28
3.40
4.85
5.42
5.24
4.69
4.26
4.30
4.83
5.58
6.13
6.15
5.55
4.42
3.01
1.57
0.28
-0.83
-1.80
-2.77
-3.98
-5.70
-8.13
-11.35
-15.16
-19.07
-22.38
-24.35
-24.49
-22.64
-19.06
-14.31
-9.09
-4.02
0.45
4.05
6.70
8.35
9.03
8.80
7.84
6.45
5.04
3.96
3.45
3.48
3.85
4.18
4.15
3.60
2.62
1.51
0.60
0.11
-0.06
-0.36
-1.37
-3.63
-7.39
-12.44
-18.15
-23.68
-28.15
-30.92
-31.62
-30.26
-27.09
-22.60
-17.35
-11.92
-6.83
-2.38
1.32
4.31
6.72
8.61
9.97
10.73
10.88
10.54
9.94
9.37
9.00
8.80
8.55
7.99
7.01
5.62
4.06
2.59
1.35
0.34
-0.70
-2.12
-4.27
-7.32
-11.20
-15.48
-19.49
-22.54
-24.01
-23.63
-21.51
-18.04
-13.75
-9.16
-4.62
-0.31
3.72
7.46
10.84
13.71
15.85
17.09
17.36
16.78
15.60
14.13
12.58
11.08
9.58
8.02
6.40
4.83
3.49
2.58
2.10
1.81
1.32
0.18
-1.85
-4.80
-8.47
-12.51
-16.50
-20.01
-22.57
-23.72
-23.15
-20.82
-17.05
-12.44
-7.65
-3.12
0.97
4.72
8.26
11.55
14.32
16.18
16.85
16.35
15.05
13.54
12.40
12.00
12.41
13.43
14.75
16.07
17.24
18.23
19.09
19.83
20.38
20.55
20.16
19.06
17.20
14.58
11.22
7.16
2.50
-2.52
-7.43
-11.57
-14.30
-15.19
-14.17
-11.60
-8.03
-4.06
-0.05
3.82
7.53
11.08
14.35
17.17
19.31
20.66
21.22
21.15
20.68
20.02
19.30
18.52
17.58
16.38
14.88
13.13
11.26
9.40
7.61
5.87
4.07
2.04
-0.38
-3.38
-7.06
-11.43
-16.27
-21.10
-25.22
-27.90
-28.61
-27.18
-23.88
-19.27
-14.07
-8.95
-4.37
-0.57
2.43
4.74
6.56
8.04
9.29
10.28
10.90
11.04
10.67
9.85
8.74
7.51
6.31
5.16
4.00
2.74
1.25
-0.59
-2.86
-5.55
-8.56
-11.73
-14.93
-18.09
-21.25
-24.45
-27.70
-30.92
-33.85
-36.09
-36.97
-35.67
-31.33
-23.37
-11.73
2.82
18.88
34.68
48.59
59.47
66.82
70.64
71.26
69.17
64.98
59.46
53.48
47.85
43.20
39.70
37.13
35.00
32.77
30.06
26.73
22.85
18.63
14.30
10.01
5.86
1.87
-2.03
-6.02
-10.34
-15.17
-20.54
-26.11
-31.30
-35.31
-37.43
-37.32
-35.13
-31.43
-27.08
-22.90
-19.45
-16.97
-15.34
-14.34
-13.77
-13.59
-13.99
-15.16
-17.23
-20.02
-23.17
-26.21
-28.82
-30.99
-32.96
-35.03
-37.14
-38.76
-38.84
-36.18
-29.85
-19.60
-5.96
9.88
26.31
41.71
54.74
64.70
71.76
76.99
82.06
88.64
97.69
108.88
120.70
131.00
138.01
141.15
141.35
140.55
140.89
143.84
149.67
157.54
165.97
173.36
178.45
180.28
178.07
170.94
157.87
137.93
110.56
75.81
34.31
-12.80
-63.55
-114.48
-160.44
-195.25
-213.92
-215.21
-203.25
-186.57
-174.74
-173.99
-184.38
-200.28
-213.90
-219.79
-217.65
-211.82
-208.12
-210.09
-216.98
-224.29
-226.20
-218.09
-197.93
-166.42
-126.24
-81.15
-35.31
7.38
44.00
73.19
95.54
113.21
128.87
144.50
160.53
175.70
187.65
193.91
192.69
183.37
166.58
143.92
117.68
90.38
64.44
41.89
24.15
12.02
5.64
4.53
7.61
13.26
19.60
24.76
27.32
26.57
22.54
15.79
7.03
-3.09
-14.03
-25.26
-36.00
-45.14
-51.30
-53.12
-49.57
-40.32
-26.10
-8.71
9.14
24.41
34.55
38.20
35.67
28.80
20.43
13.63
10.93
13.87
22.72
36.50
53.02
69.28
81.85
87.41
83.59
69.62
46.76
18.24
-11.39
-37.20
-54.82
-61.02
-54.11
-34.04
-2.53
36.84
78.91
117.60
147.38
164.78
169.55
164.69
155.24
146.18
140.51
138.19
136.56
131.71
120.33
101.58
77.94
54.76
38.15
32.17
36.48
45.77
51.78
46.93
28.04
-1.89
-34.85
-61.32
-74.44
-72.70
-60.04
-43.70
-31.16
-27.54
-34.39
-50.09
-70.80
-92.13
-110.44
-123.74
-131.75
-135.31
-135.39
-132.33
-125.67
-114.68
-99.40
-81.18
-62.56
-46.32
-34.37
-27.10
-23.56
-22.36
-22.58
-24.00
-26.92
-31.45
-37.14
-42.91
-47.60
-50.55
-51.96
-52.78
-54.22
-57.23
-62.11
-68.47
-75.29
-81.24
-85.01
-85.77
-83.55
-79.48
-75.55
-73.95
-76.34
-83.19
-93.80
-106.50
-119.11
-129.50
-135.95
-137.49
-133.92
-125.75
-113.94
-99.58
-83.79
-67.46
-51.35
-36.14
-22.64
-12.06
-6.28
-7.60
-18.03
-38.13
-65.90
-96.59
-123.69
-140.87
-144.16
-133.10
-110.52
-81.25
-50.33
-21.74
1.96
19.58
31.12
37.71
41.54
45.45
51.88
61.70
73.52
83.97
89.15
86.48
76.03
60.80
45.49
34.75
31.51
36.33
47.73
63.08
79.50
94.26
105.09
110.38
109.67
103.80
94.70
84.49
74.61
65.40
56.59
48.09
40.43
34.54
30.95
29.09
27.40
24.11
18.22
9.98
0.65
-8.27
-15.64
-20.71
-23.13
-22.71
-19.62
-14.59
-8.99
-4.59
-3.08
-5.60
-12.47
-23.15
-36.27
-49.73
-60.87
-67.00
-66.09
-57.41
-41.99
-22.43
-2.24
15.17
27.41
33.78
35.37
34.57
33.94
35.06
37.68
39.83
38.91
32.98
21.87
7.16
-8.56
-22.92
-34.51
-43.05
-48.80
-51.99
-52.61
-50.62
-46.40
-41.01
-35.94
-32.56
-31.58
-32.86
-35.61
-38.77
-41.39
-42.83
-42.79
-41.30
-38.66
-35.39
-32.16
-29.54
-27.76
-26.51
-25.02
-22.45
-18.42
-13.37
-8.44
-4.96
-3.80
-4.83
-7.04
-9.02
-9.62
-8.49
-6.12
-3.53
-1.73
-1.33
-2.29
-4.17
-6.28
-7.78
-7.87
-5.81
-1.27
5.37
12.79
18.96
21.74
19.71
12.79
2.26
-9.84
-21.52
-31.72
-40.43
-48.34
-56.11
-63.67
-70.07
-74.07
-74.72
-72.00
-66.59
-59.26
-50.04
-37.92
-21.36
0.70
27.66
57.12
85.40
108.92
125.43
134.52
137.27
135.27
129.81
121.46
110.55
97.67
84.01
71.20
60.58
52.58
46.43
40.65
34.03
26.51
19.33
14.24
12.04
11.34
8.68
-0.04
-17.13
-41.25
-67.34
-88.60
-99.72
-99.39
-91.00
-80.69
-74.17
-73.80
-77.70
-81.08
-79.01
-68.95
-51.79
-31.06
-11.01
5.12
15.80
20.94
21.06
16.75
8.80
-1.23
-10.82
-16.86
-17.00
-10.93
-0.96
8.74
13.92
12.25
4.42
-6.36
-16.07
-21.94
-23.61
-22.83
-22.11
-22.89
-24.68
-25.31
-22.28
-14.28
-1.95
12.46
26.26
37.63
46.37
53.75
61.55
70.99
82.13
93.96
105.03
114.23
121.25
126.51
130.72
134.30
137.12
138.54
137.88
134.83
129.79
123.77
117.99
113.13
108.60
102.39
91.50
73.11
45.96
11.23
-27.65
-66.06
-99.80
-126.37
-145.46
-158.66
-168.40
-176.91
-185.52
-194.38
-202.73
-209.14
-211.79
-208.58
-197.51
-177.36
-148.90
-115.49
-82.69
-56.54
-41.06
-36.73
-40.83
-49.78
-61.49
-76.51
-96.88
-123.91
-156.46
-191.01
-223.26
-249.91
-269.35
-280.77
-283.04
-274.29
-252.90
-219.19
-176.14
-128.49
-80.71
-35.10
8.50
51.32
93.79
134.20
169.01
194.14
206.48
204.74
189.58
163.14
128.55
89.70
51.30
18.58
-3.58
-11.92
-5.79
12.55
38.90
68.83
99.28
129.47
160.63
194.83
233.20
274.49
314.65
347.81
368.22
372.16
359.23
332.29
296.32
256.68
217.42
180.44
145.41
110.79
75.19
38.78
4.07
-24.50
-42.00
-45.09
-33.48
-10.30
19.14
49.53
77.25
100.78
119.82
133.87
141.61
141.32
132.11
115.02
93.13
70.69
51.51
37.76
29.65
26.07
25.48
26.75
29.41
33.32
38.19
43.29
47.43
49.23
47.39
40.83
28.87
11.49
-10.39
-34.75
-58.81
-79.67
-95.09
-103.96
-106.31
-102.81
-94.20
-80.97
-63.64
-43.22
-21.53
-0.94
16.40
29.36
38.00
42.86
43.89
39.72
28.06
6.95
-23.62
-60.84
-99.59
-133.92
-158.96
-172.20
-173.65
-164.98
-148.53
-126.57
-101.22
-74.64
-49.30
-27.75
-12.11
-3.49
-1.50
-4.39
-9.55
-14.29
-16.71
-16.29
-13.91
-11.36
-10.78
-13.75
-20.85
-31.32
-42.97
-52.52
-56.37
-51.70
-37.50
-15.28
11.06
36.33
55.67
66.06
67.18
61.15
51.42
41.21
32.43
25.43
19.63
14.55
10.65
9.39
12.44
20.65
33.36
48.63
64.24
78.68
91.69
103.74
115.19
125.64
134.00
139.21
140.88
139.31
134.74
126.59
113.75
95.85
74.84
55.61
44.61
46.97
63.44
89.24
115.47
132.65
134.54
120.09
92.84
58.20
20.40
-19.28
-62.05
-109.60
-162.09
-217.15
-270.60
-317.88
-355.27
-380.45
-392.07
-389.60
-373.45
-345.42
-308.76
-267.40
-224.66
-182.39
-141.21
-101.65
-65.41
-35.60
-15.48
-6.38
-6.36
-10.33
-12.07
-6.72
7.58
29.32
54.49
78.28
96.44
106.52
108.50
104.72
99.18
96.03
98.09
105.83
117.42
129.70
139.58
145.09
145.67
141.89
134.88
125.93
116.42
107.77
101.20
97.32
95.48
93.63
88.76
78.00
59.86
35.16
7.02
-20.03
-41.66
-55.17
-60.33
-59.17
-55.14
-51.88
-52.21
-57.52
-67.57
-80.75
-94.51
-106.19
-113.89
-117.27
-117.82
-118.37
-122.01
-130.74
-144.41
-160.59
-175.33
-184.50
-185.25
-176.88
-160.94
-140.61
-119.52
-100.43
-84.20
-69.15
-51.58
-27.33
5.84
46.36
88.35
123.17
142.44
141.32
120.24
84.79
43.70
6.04
-21.04
-33.61
-31.17
-16.26
6.63
32.38
56.81
77.75
95.26
110.71
125.11
138.07
147.96
153.31
154.30
153.37
154.19
159.85
171.18
186.40
202.19
215.42
224.49
229.68
232.52
234.81
237.66
241.01
243.53
243.18
238.09
227.33
211.34
191.62
169.65
145.68
118.16
84.60
43.50
-3.77
-52.51
-96.04
-128.41
-147.02
-153.52
-152.70
-150.00
-149.15
-151.08
-154.41
-156.95
-157.13
-154.69
-150.39
-145.24
-139.84
-134.15
-127.76
-120.35
-111.98
-103.26
-94.97
-87.86
-82.22
-77.81
-74.09
-70.57
-67.08
-63.81
-61.12
-59.13
-57.48
-55.38
-51.94
-46.56
-39.18
-30.25
-20.58
-11.00
-2.27
4.95
10.10
12.85
13.17
11.47
8.57
5.41
2.79
1.03
0.02
-0.72
-1.67
-3.15
-5.24
-7.91
-11.20
-15.34
-20.65
-27.47
-35.95
-46.01
-57.51
-70.34
-84.51
-99.97
-116.31
-132.63
-147.49
-159.33
-166.97
-169.95
-168.54
-163.39
-155.11
-143.94
-129.89
-113.11
-94.16
-74.07
-53.99
-34.78
-16.65
0.57
17.06
32.45
45.74
55.66
61.29
62.58
60.48
56.60
52.64
49.80
48.62
48.98
50.47
52.61
55.00
57.37
59.57
61.55
63.37
65.20
67.19
69.29
71.11
71.94
70.91
67.30
60.86
52.01
41.81
31.73
23.27
17.54
15.04
15.51
18.06
21.46
24.44
26.02
25.71
23.64
20.41
16.86
13.76
11.51
10.10
9.17
8.21
6.84
4.91
2.54
0.02
-2.32
-4.23
-5.59
-6.42
-6.92
-7.38
-8.08
-9.20
-10.73
-12.52
-14.33
-16.01
-17.54
-19.06
-20.64
-22.27
-23.67
-24.37
-23.84
-21.77
-18.17
-13.39
-8.04
-2.74
2.00
5.91
8.95
11.23
12.92
14.17
15.04
15.37
14.89
13.23
10.20
5.89
0.80
-4.29
-8.53
-11.29
-12.38
-12.11
-11.05
-9.91
-9.19
-9.16
-9.88
-11.25
-13.10
-15.24
-17.33
-19.05
-20.10
-20.35
-19.94
-19.26
-18.72
-18.53
-18.53
-18.23
-17.02
-14.55
-10.91
-6.63
-2.43
1.10
3.78
5.80
7.55
9.29
10.96
12.23
12.68
12.15
10.81
9.22
7.96
7.48
7.83
8.71
9.59
10.00
9.63
8.42
6.60
4.50
2.49
0.81
-0.51
-1.64
-2.89
-4.67
-7.25
-10.81
-15.29
-20.34
-25.32
-29.35
-31.48
-30.98
-27.66
-21.95
-14.84
-7.52
-0.98
4.27
8.19
11.00
12.80
13.53
12.94
10.89
7.60
3.80
0.52
-1.27
-1.02
1.25
4.91
9.12
13.06
16.19
18.22
19.08
18.72
17.18
14.58
11.20
7.48
3.88
0.69
-2.12
-4.87
-7.94
-11.52
-15.37
-18.82
-21.02
-21.27
-19.28
-15.37
-10.25
-4.88
-0.10
3.52
5.76
6.76
6.81
6.22
5.15
3.53
1.14
-2.19
-6.36
-10.89
-14.95
-17.71
-18.61
-17.64
-15.37
-12.65
-10.32
-8.90
-8.51
-8.94
-9.78
-10.64
-11.19
-11.24
-10.66
-9.49
-7.94
-6.42
-5.45
-5.40
-6.33
-7.70
-8.55
-7.74
-4.50
1.15
8.36
15.69
21.70
25.43
26.75
26.19
24.61
22.80
21.32
20.39
20.13
20.57
21.77
23.62
25.86
28.04
29.69
30.36
29.75
27.79
24.62
20.56
16.12
11.86
8.31
5.72
4.05
2.92
1.73
-0.11
-3.05
-7.20
-12.31
-17.76
-22.65
-25.96
-26.86
-25.00
-20.66
-14.68
-8.17
-2.10
2.98
7.02
10.23
12.87
14.93
16.24
16.58
15.93
14.63
13.14
11.93
11.15
10.58
9.79
8.36
6.18
3.48
0.77
-1.48
-3.03
-3.98
-4.71
-5.66
-7.22
-9.62
-12.97
-17.22
-22.13
-27.15
-31.41
-33.89
-33.73
-30.67
-25.17
-18.34
-11.52
-5.75
-1.47
1.46
3.40
4.67
5.31
5.23
4.45
3.30
2.27
1.82
1.98
2.30
2.15
1.06
-0.87
-2.91
-4.10
-3.68
-1.54
1.67
4.89
7.01
7.27
5.46
1.82
-3.03
-8.28
-13.02
-16.34
-17.48
-16.01
-12.01
-6.09
0.75
7.39
12.94
16.95
19.51
21.04
22.05
22.80
23.24
23.06
22.00
20.07
17.63
15.24
13.37
12.10
11.14
9.96
8.16
5.63
2.56
-0.66
-3.67
-6.32
-8.63
-10.76
-12.89
-15.18
-17.71
-20.49
-23.50
-26.58
-29.45
-31.69
-32.80
-32.40
-30.31
-26.74
-22.09
-16.85
-11.39
-5.91
-0.53
4.66
9.50
13.87
17.75
21.31
24.76
28.23
31.53
34.23
35.79
35.78
34.14
31.19
27.54
23.83
20.53
17.82
15.61
13.62
11.55
9.21
6.60
3.90
1.44
-0.38
-1.18
-0.68
1.27
4.67
9.31
14.82
20.68
26.31
31.25
35.22
38.15
40.13
41.33
41.80
41.53
40.48
38.66
36.26
33.54
30.75
27.96
25.06
21.82
18.03
13.65
8.80
3.73
-1.32
-6.17
-10.75
-15.04
-19.07
-22.87
-26.42
-29.60
-32.22
-33.98
-34.57
-33.79
-31.60
-28.13
-23.66
-18.54
-13.16
-7.88
-3.02
1.13
4.35
6.53
7.69
8.01
7.81
7.41
7.05
6.76
6.45
5.97
5.27
4.44
3.67
3.12
2.74
2.19
0.97
-1.44
-5.30
-10.53
-16.60
-22.66
-27.63
-30.54
-30.69
-27.91
-22.65
-15.91
-8.90
-2.75
1.89
4.91
6.64
7.63
8.32
8.92
9.39
9.56
9.33
8.66
7.64
6.38
4.94
3.39
1.80
0.34
-0.81
-1.48
-1.76
-2.02
-2.91
-5.08
-8.93
-14.33
-20.53
-26.38
-30.64
-32.40
-31.31
-27.66
-22.20
-15.86
-9.44
-3.46
1.92
6.90
11.74
16.61
21.41
25.70
28.93
30.61
30.58
28.98
26.12
22.27
17.58
12.14
6.23
0.41
-4.48
-7.64
-8.65
-7.75
-5.84
-4.25
-4.29
-6.83
-11.92
-18.64
-25.40
-30.33
-32.03
-30.03
-24.94
-18.09
-10.97
-4.61
0.65
4.98
8.70
11.95
14.55
16.23
16.83
16.51
15.62
14.55
13.55
12.60
11.52
10.04
7.82
4.59
0.14
-5.45
-11.81
-18.21
-23.76
-27.76
-29.95
-30.59
-30.33
-29.79
-29.23
-28.42
-26.79
-23.78
-19.19
-13.30
-6.85
-0.66
4.68
8.98
12.47
15.57
18.61
21.60
24.23
26.06
26.80
26.61
26.03
25.86
26.73
28.72
31.26
33.37
34.07
32.80
29.69
25.41
20.87
16.82
13.53
10.80
8.04
4.59
-0.06
-5.98
-12.77
-19.58
-25.34
-29.04
-30.04
-28.24
-24.05
-18.22
-11.59
-4.90
1.29
6.67
11.14
14.90
18.20
21.29
24.13
26.40
27.68
27.74
26.80
25.43
24.27
23.59
23.11
22.14
20.02
16.58
12.31
8.10
4.77
2.63
1.32
-0.04
-2.47
-6.65
-12.66
-19.84
-26.95
-32.50
-35.22
-34.47
-30.40
-23.92
-16.32
-8.82
-2.26
3.09
7.31
10.57
12.94
14.29
14.43
13.35
11.32
8.94
6.93
5.88
6.02
7.11
8.56
9.70
9.99
9.27
7.74
5.87
4.10
2.68
1.55
0.33
-1.46
-4.31
-8.50
-14.02
-20.49
-27.10
-32.75
-36.16
-36.29
-32.62
-25.47
-15.95
-5.61
3.98
11.77
17.42
21.21
23.66
25.21
26.03
25.94
24.74
22.40
19.25
16.00
13.45
12.27
12.64
14.17
16.06
17.33
17.24
15.45
12.08
7.56
2.48
-2.62
-7.34
-11.44
-15.00
-18.31
-21.82
-25.91
-30.61
-35.47
-39.58
-41.94
-41.91
-39.47
-35.18
-30.02
-24.86
-20.28
-16.50
-13.57
-11.46
-10.21
-9.79
-10.11
-10.97
-12.27
-14.15
-16.99
-21.24
-27.06
-34.15
-41.73
-48.85
-54.77
-59.23
-62.57
-65.48
-68.73
-72.91
-78.24
-84.65
-91.92
-99.80
-108.20
-117.18
-126.92
-137.51
-148.95
-161.15
-174.13
-188.00
-202.54
-216.65
-227.82
-232.38
-226.45
-207.43
-175.26
-132.67
-84.24
-34.73
12.55
56.56
98.25
139.62
182.85
229.71
281.22
337.22
395.86
453.32
504.22
542.85
564.73
567.85
553.04
523.26
482.40
434.05
380.84
324.42
265.87
206.45
148.19
93.99
47.13
10.30
-15.47
-31.25
-39.89
-44.80
-48.55
-52.24
-55.60
-57.86
-58.66
-58.38
-57.94
-58.18
-59.46
-61.66
-64.40
-67.31
-70.14
-72.75
-75.09
-77.35
-79.84
-82.83
-86.34
-89.92
-92.80
-94.20
-93.70
-91.53
-88.36
-85.08
-82.32
-80.27
-78.69
-77.20
-75.59
-74.08
-73.19
-73.45
-74.98
-77.28
-79.33
-79.97
-78.45
-74.80
-69.85
-64.96
-61.40
-59.96
-60.74
-63.31
-66.84
-70.38
-72.90
-73.37
-70.83
-64.75
-55.40
-43.92
-32.17
-22.06
-14.83
-10.60
-8.49
-7.16
-5.54
-3.37
-1.17
0.10
-0.39
-3.05
-7.82
-14.35
-22.21
-30.80
-39.33
-46.66
-51.53
-52.87
-50.37
-44.68
-37.41
-30.56
-25.89
-24.37
-25.89
-29.62
-34.47
-39.57
-44.54
-49.29
-53.79
-57.80
-60.90
-62.72
-63.28
-63.14
-63.23
-64.49
-67.42
-71.91
-77.30
-82.64
-86.94
-89.31
-88.94
-85.05
-77.08
-64.77
-48.39
-28.56
-6.17
17.89
42.71
67.22
90.14
110.08
125.93
137.27
144.58
148.96
151.58
153.12
153.58
152.52
149.51
144.58
138.29
131.42
124.67
118.30
112.16
105.84
98.95
91.33
83.12
74.69
66.47
58.79
51.75
45.20
38.82
32.28
25.25
17.55
9.14
0.17
-8.93
-17.46
-24.60
-29.61
-32.08
-32.10
-30.21
-27.19
-23.80
-20.50
-17.47
-14.71
-12.19
-9.93
-7.95
-6.20
-4.52
-2.70
-0.60
1.66
3.72
5.07
5.26
4.04
1.45
-2.19
-6.41
-10.67
-14.52
-17.71
-20.26
-22.46
-24.79
-27.66
-31.28
-35.42
-39.49
-42.66
-44.17
-43.60
-40.99
-36.78
-31.60
-26.12
-20.80
-15.94
-11.72
-8.26
-5.58
-3.64
-2.21
-0.93
0.64
2.78
5.58
8.82
12.05
14.78
16.59
17.24
16.66
14.88
11.99
8.03
3.04
-2.93
-9.76
-17.19
-24.74
-31.67
-37.06
-40.12
-40.48
-38.35
-34.54
-30.11
-25.95
-22.44
-19.41
-16.43
-13.19
-9.82
-6.84
-4.87
-4.24
-4.79
-5.96
-7.00
-7.35
-6.82
-5.56
-3.93
-2.36
-1.11
-0.31
0.09
0.18
0.07
-0.20
-0.67
-1.46
-2.79
-4.87
-7.84
-11.66
-15.99
-20.23
-23.59
-25.34
-24.94
-22.27
-17.59
-11.45
-4.57
2.36
8.71
13.91
17.51
19.26
19.16
17.61
15.31
13.07
11.56
11.11
11.56
12.43
13.08
13.02
12.08
10.45
8.57
6.95
5.91
5.48
5.32
4.89
3.56
0.91
-3.24
-8.73
-15.10
-21.66
-27.56
-31.90
-33.92
-33.21
-29.83
-24.31
-17.54
-10.45
-3.79
2.07
7.09
11.45
15.29
18.64
21.34
23.19
23.99
23.75
22.69
21.23
19.82
18.82
18.40
18.40
18.47
18.17
17.12
15.14
12.22
8.54
4.37
-0.04
-4.45
-8.59
-12.22
-15.09
-17.08
-18.34
-19.24
-20.31
-22.00
-24.34
-26.82
-28.50
-28.33
-25.53
-20.03
-12.43
-3.90
4.35
11.42
16.95
21.06
24.09
26.32
27.80
28.45
28.17
27.04
25.38
23.63
22.13
21.04
20.29
19.63
18.77
17.45
15.47
12.74
9.31
5.32
1.05
-3.26
-7.46
-11.56
-15.70
-20.12
-25.04
-30.68
-37.14
-44.31
-51.63
-58.00
-61.99
-62.25
-58.28
-50.71
-41.21
-31.67
-23.33
-16.17
-9.10
-0.85
9.01
19.67
29.55
37.51
44.01
51.50
63.65
83.64
112.65
148.98
188.47
225.88
256.28
276.05
283.02
276.30
256.30
225.11
186.93
147.78
114.18
90.94
79.29
76.32
76.35
73.64
64.98
50.86
34.56
19.92
9.19
2.17
-3.05
-8.54
-15.06
-21.91
-27.66
-31.39
-33.34
-34.75
-36.88
-40.16
-43.87
-46.67
-47.61
-46.86
-45.75
-46.17
-49.57
-56.25
-65.26
-74.82
-83.19
-89.29
-92.98
-94.90
-95.88
-96.61
-97.24
-97.51
-96.99
-95.43
-92.98
-90.23
-87.89
-86.55
-86.27
-86.49
-86.19
-84.31
-80.19
-73.88
-66.10
-57.95
-50.46
-44.22
-39.26
-35.23
-31.67
-28.25
-24.90
-21.71
-18.72
-15.82
-12.71
-9.03
-4.60
0.47
5.77
10.70
14.67
17.24
18.22
17.65
15.74
12.76
9.08
5.08
1.14
-2.39
-5.27
-7.42
-8.89
-9.74
-10.04
-9.70
-8.59
-6.54
-3.46
0.56
5.27
10.33
15.37
20.02
23.96
26.83
28.33
28.26
26.61
23.70
20.09
16.44
13.37
11.17
9.81
8.89
7.85
6.12
3.36
-0.46
-5.01
-9.70
-13.84
-16.92
-18.76
-19.58
-19.94
-20.48
-21.69
-23.80
-26.65
-29.79
-32.60
-34.35
-34.42
-32.46
-28.52
-23.08
-16.99
-11.16
-6.34
-2.87
-0.71
0.46
0.95
0.97
0.59
-0.18
-1.30
-2.58
-3.78
-4.72
-5.39
-5.96
-6.79
-8.17
-10.28
-13.00
-16.01
-18.85
-21.19
-22.87
-23.99
-24.89
-26.04
-27.91
-30.89
-35.19
-40.71
-46.92
-52.88
-57.35
-59.05
-57.03
-51.01
-41.43
-29.40
-16.28
-3.39
8.34
18.40
26.70
33.39
38.75
43.08
46.64
49.55
51.81
53.31
53.89
53.43
51.97
49.61
46.54
42.89
38.72
34.04
28.86
23.26
17.42
11.58
5.96
0.75
-3.98
-8.22
-12.06
-15.60
-18.94
-22.01
-24.66
-26.51
-27.14
-26.12
-23.21
-18.54
-12.56
-6.03
0.23
5.52
9.40
11.76
12.78
12.75
11.97
10.72
9.24
7.76
6.53
5.77
5.61
5.97
6.64
7.32
7.76
7.86
7.67
7.32
6.89
6.31
5.45
4.21
2.63
0.81
-1.13
-3.17
-5.46
-8.16
-11.27
-14.43
-16.94
-17.96
-16.88
-13.64
-8.77
-3.27
1.79
5.62
7.93
8.96
9.19
9.13
9.02
8.85
8.46
7.80
7.00
6.36
6.22
6.69
7.57
8.42
8.72
8.18
6.77
4.78
2.60
0.52
-1.35
-3.09
-4.88
-6.89
-9.17
-11.68
-14.37
-17.14
-19.83
-22.20
-23.83
-24.25
-23.10
-20.31
-16.20
-11.36
-6.48
-2.04
1.80
5.16
8.28
11.34
14.36
17.18
19.60
21.39
22.44
22.73
22.48
21.96
21.49
21.28
21.28
21.19
20.63
19.36
17.38
15.05
12.79
10.91
9.41
8.04
6.46
4.40
1.84
-1.11
-4.28
-7.52
-10.70
-13.54
-15.62
-16.39
-15.40
-12.51
-8.08
-2.82
2.34
6.64
9.64
11.28
11.74
11.34
10.35
9.05
7.68
6.49
5.70
5.36
5.28
5.06
4.17
2.24
-0.83
-4.75
-9.04
-13.17
-16.82
-19.94
-22.78
-25.65
-28.93
-32.79
-37.17
-41.68
-45.58
-48.04
-48.31
-46.06
-41.60
-35.74
-29.57
-24.02
-19.60
-16.25
-13.58
-11.14
-8.69
-6.34
-4.40
-3.16
-2.73
-2.96
-3.44
-3.71
-3.36
-2.09
0.18
3.42
7.39
11.68
15.67
18.64
19.90
19.04
16.07
11.48
6.05
0.69
-3.80
-6.96
-8.63
-8.96
-8.30
-7.08
-5.75
-4.65
-4.00
-3.80
-3.95
-4.21
-4.38
-4.40
-4.30
-4.23
-4.31
-4.63
-5.16
-5.79
-6.40
-6.84
-6.97
-6.73
-6.19
-5.64
-5.58
-6.63
-9.31
-13.79
-19.66
-26.06
-31.77
-35.66
-36.96
-35.47
-31.52
-25.90
-19.54
-13.28
-7.71
-3.06
0.70
3.72
6.12
7.83
8.75
8.81
8.17
7.25
6.55
6.47
7.06
8.00
8.74
8.76
7.73
5.70
2.94
-0.20
-3.46
-6.78
-10.25
-13.96
-17.87
-21.63
-24.57
-25.95
-25.12
-21.93
-16.72
-10.34
-3.75
2.27
7.40
11.84
16.06
20.47
25.13
29.68
33.50
36.03
36.98
36.58
35.39
34.08
33.16
32.76
32.67
32.49
31.82
30.39
28.13
25.12
21.49
17.43
13.23
9.14
5.53
2.62
0.43
-1.32
-3.15
-5.74
-9.59
-14.75
-20.73
-26.48
-30.73
-32.32
-30.66
-25.85
-18.70
-10.40
-2.14
5.22
11.32
16.22
20.20
23.51
26.26
28.40
29.79
30.43
30.50
30.35
30.36
30.81
31.73
32.95
34.23
35.35
36.22
36.83
37.14
37.01
36.18
34.35
31.35
27.24
22.31
17.07
11.98
7.36
3.27
-0.47
-4.14
-8.00
-12.25
-17.01
-22.32
-28.10
-34.07
-39.73
-44.32
-47.11
-47.61
-45.79
-42.10
-37.41
-32.65
-28.62
-25.71
-23.96
-23.12
-22.80
-22.76
-23.02
-23.93
-25.95
-29.55
-34.84
-41.49
-48.88
-56.27
-63.11
-69.20
-74.77
-80.33
-86.66
-94.64
-105.02
-118.08
-133.16
-148.41
-161.03
-168.11
-167.76
-160.16
-147.72
-134.32
-123.84
-118.56
-118.35
-120.67
-121.48
-116.44
-101.90
-75.57
-36.85
12.84
70.09
129.79
186.08
233.75
269.67
293.53
307.46
314.93
319.12
321.91
323.61
323.50
320.63
314.53
305.32
293.51
279.70
264.36
247.90
230.76
213.38
196.13
179.11
162.01
144.05
124.24
101.75
76.35
48.69
20.30
-6.83
-30.92
-51.05
-67.39
-80.86
-92.39
-102.27
-109.95
-114.36
-114.76
-111.44
-105.97
-100.83
-98.62
-101.20
-109.08
-121.32
-135.79
-149.79
-160.67
-166.41
-165.93
-159.23
-147.17
-131.00
-112.12
-91.71
-70.76
-49.97
-29.88
-10.82
7.01
23.42
38.20
51.04
61.52
69.27
74.00
75.65
74.34
70.37
64.18
56.41
47.79
39.13
31.08
24.07
18.27
13.71
10.42
8.52
8.12
9.20
11.41
14.17
16.83
18.84
19.93
20.11
19.57
18.60
17.49
16.48
15.68
15.15
14.82
14.53
14.11
13.44
12.51
11.43
10.39
9.55
8.95
8.56
8.20
7.66
6.78
5.56
4.10
2.64
1.32
0.16
-1.07
-2.70
-5.06
-8.30
-12.30
-16.66
-20.76
-24.00
-25.90
-26.32
-25.42
-23.63
-21.44
-19.10
-16.58
-13.49
-9.37
-3.95
2.58
9.58
16.09
21.19
24.30
25.27
24.40
22.17
19.08
15.52
11.72
7.78
3.78
-0.22
-4.21
-8.20
-12.20
-16.14
-19.92
-23.37
-26.37
-28.96
-31.30
-33.62
-36.17
-39.06
-42.30
-45.72
-49.01
-51.67
-53.12
-52.71
-49.98
-44.79
-37.50
-28.96
-20.33
-12.85
-7.49
-4.78
-4.74
-6.88
-10.56
-15.21
-20.49
-26.31
-32.59
-39.06
-45.16
-50.10
-53.21
-54.22
-53.44
-51.78
-50.43
-50.57
-53.01
-57.96
-64.92
-72.72
-79.87
-84.93
-86.99
-86.13
-83.48
-81.06
-81.26
-86.03
-96.00
-109.81
-123.96
-133.52
-133.62
-121.17
-96.20
-62.01
-23.88
12.74
44.12
68.95
87.98
102.71
114.31
123.07
128.53
130.03
127.11
119.58
107.57
91.70
73.28
54.44
37.69
25.31
18.41
16.68
18.59
22.25
26.14
29.53
32.27
34.43
35.92
36.55
36.26
35.34
34.42
34.02
34.25
34.53
33.89
31.32
26.38
19.40
11.39
3.61
-2.98
-7.99
-11.77
-15.12
-18.97
-23.97
-30.20
-37.17
-44.01
-49.92
-54.52
-58.04
-61.18
-64.69
-68.94
-73.84
-79.03
-84.23
-89.36
-94.31
-98.46
-100.32
-97.70
-88.36
-70.92
-45.41
-13.20
23.41
61.90
99.83
134.92
164.91
187.59
201.13
204.47
197.67
181.92
159.19
131.75
101.82
71.51
42.72
17.23
-3.40
-18.06
-26.30
-28.46
-25.67
-19.51
-11.72
-3.84
3.02
8.19
11.45
12.87
12.81
11.85
10.75
10.34
11.33
14.20
19.01
25.35
32.44
39.22
44.71
48.19
49.53
49.17
48.00
47.03
47.01
48.14
50.03
51.88
52.86
52.44
50.52
47.41
43.51
39.21
34.58
29.45
23.47
16.20
7.35
-3.12
-14.78
-26.76
-37.98
-47.52
-54.97
-60.50
-64.71
-68.08
-70.66
-72.05
-71.67
-69.31
-65.35
-60.75
-56.52
-53.29
-51.08
-49.45
-47.90
-46.17
-44.37
-42.82
-41.82
-41.34
-41.17
-40.90
-40.21
-38.96
-37.30
-35.61
-34.34
-33.94
-34.65
-36.51
-39.34
-42.76
-46.36
-49.61
-51.96
-52.85
-51.76
-48.42
-42.90
-35.69
-27.55
-19.37
-11.87
-5.42
-0.09
4.30
7.92
10.88
13.12
14.61
15.35
15.51
15.35
15.17
15.17
15.42
15.80
16.10
16.13
15.73
14.91
13.74
12.29
10.58
8.55
6.13
3.28
0.11
-3.23
-6.63
-10.06
-13.66
-17.53
-21.50
-25.03
-27.33
-27.59
-25.41
-21.00
-15.11
-8.77
-2.83
2.21
6.25
9.48
12.06
14.11
15.64
16.64
17.17
17.30
17.12
16.67
15.99
15.16
14.35
13.78
13.60
13.82
14.25
14.57
14.42
13.57
11.94
9.62
6.84
3.84
0.82
-2.13
-5.08
-8.21
-11.71
-15.75
-20.28
-24.95
-29.16
-32.11
-33.12
-31.80
-28.28
-23.09
-17.02
-10.79
-4.88
0.55
5.55
10.21
14.47
18.10
20.89
22.78
23.93
24.67
25.37
26.20
27.13
27.96
28.47
28.57
28.29
27.72
26.95
25.94
24.55
22.65
20.17
17.16
13.75
10.14
6.48
2.87
-0.69
-4.28
-8.12
-12.44
-17.39
-22.87
-28.39
-33.14
-36.22
-36.94
-35.12
-31.16
-25.89
-20.23
-14.88
-10.11
-5.89
-2.00
1.61
4.86
7.48
9.25
10.07
10.07
9.45
8.47
7.32
6.05
4.68
3.16
1.48
-0.40
-2.50
-4.92
-7.83
-11.49
-16.06
-21.51
-27.51
-33.49
-38.76
-42.72
-45.04
-45.61
-44.46
-41.64
-37.18
-31.04
-23.23
-13.80
-2.91
9.18
22.06
35.16
47.69
58.83
67.78
74.04
77.48
78.36
77.13
74.21
69.78
63.75
55.88
46.11
34.87
23.21
12.62
4.65
0.35
-0.07
2.73
7.50
12.88
17.85
21.87
24.75
26.46
26.88
25.90
23.50
19.95
15.80
11.64
7.89
4.57
1.40
-1.95
-5.51
-8.84
-11.16
-11.71
-10.08
-6.35
-1.13
4.88
11.01
16.91
22.45
27.64
32.41
36.56
39.79
41.80
42.53
42.23
41.56
41.41
42.50
45.13
48.83
52.46
54.60
54.32
51.63
47.80
44.99
45.48
50.66
60.31
72.46
83.76
90.43
89.34
78.91
59.47
33.02
2.53
-28.80
-58.16
-83.23
-102.37
-114.62
-119.89
-118.90
-112.90
-103.04
-89.81
-73.09
-52.65
-29.10
-4.42
18.42
36.54
48.34
54.10
55.50
54.53
52.50
49.78
46.28
42.35
39.18
38.60
42.18
50.30
61.67
73.61
82.73
85.91
81.11
67.73
46.57
19.46
-11.32
-43.54
-75.19
-104.42
-129.48
-148.64
-160.49
-164.30
-160.37
-150.14
-135.81
-119.76
-103.89
-89.24
-76.09
-64.34
-53.97
-45.35
-39.17
-36.01
-35.92
-38.14
-41.31
-43.88
-44.91
-44.41
-43.41
-43.40
-45.54
-50.01
-55.87
-61.44
-65.08
-65.96
-64.37
-61.42
-58.40
-55.99
-53.73
-50.02
-42.66
-29.66
-10.19
14.92
42.96
69.85
91.09
102.98
103.70
94.01
77.22
58.54
43.81
37.99
43.62
59.78
82.07
103.86
118.63
122.55
116.05
103.53
91.29
84.53
85.26
91.86
100.67
108.43
113.97
118.32
123.29
129.60
135.65
137.72
131.41
113.52
83.44
43.48
-1.92
-47.61
-89.40
-125.22
-155.43
-182.19
-208.09
-234.82
-262.44
-289.54
-313.89
-333.18
-345.42
-348.87
-341.90
-322.93
-291.02
-246.57
-192.06
-132.02
-72.43
-19.39
22.42
50.78
66.18
71.32
69.91
65.45
60.29
55.38
50.73
46.09
41.61
37.85
35.57
35.34
37.27
41.02
46.05
51.73
57.48
62.74
67.01
70.00
71.80
72.80
73.50
74.10
74.34
73.59
71.20
66.99
61.38
55.28
49.61
45.00
41.76
39.98
39.85
41.50
44.81
49.05
52.89
54.81
53.84
50.03
44.55
39.09
35.10
33.23
33.19
34.07
34.91
35.06
34.35
32.89
30.86
28.38
25.45
22.07
18.36
14.55
10.95
7.89
5.56
3.93
2.75
1.59
-0.01
-2.37
-5.61
-9.64
-14.15
-18.73
-22.85
-26.00
-27.71
-27.70
-25.96
-22.78
-18.64
-14.03
-9.34
-4.79
-0.42
3.77
7.71
11.25
14.17
16.24
17.32
17.44
16.78
15.62
14.23
12.81
11.39
9.92
8.36
6.71
5.10
3.72
2.66
1.83
0.94
-0.39
-2.51
-5.56
-9.46
-13.98
-18.80
-23.50
-27.61
-30.55
-31.80
-31.01
-28.17
-23.69
-18.26
-12.63
-7.36
-2.69
1.45
5.23
8.81
12.19
15.20
17.62
19.24
19.96
19.80
18.87
17.37
15.56
13.73
12.19
11.20
10.87
11.16
11.80
12.40
12.49
11.75
10.05
7.54
4.53
1.43
-1.46
-4.03
-6.39
-8.81
-11.65
-15.15
-19.27
-23.65
-27.65
-30.49
-31.51
-30.43
-27.41
-22.96
-17.76
-12.43
-7.34
-2.69
1.55
5.44
8.99
12.19
14.96
17.21
18.87
19.94
20.49
20.65
20.60
20.48
20.34
20.18
19.91
19.47
18.85
18.01
16.97
15.63
13.91
11.70
8.95
5.77
2.39
-0.87
-3.75
-6.19
-8.32
-10.48
-12.97
-16.00
-19.51
-23.24
-26.81
-29.79
-31.84
-32.69
-32.23
-30.46
-27.59
-23.92
-19.86
-15.77
-11.88
-8.24
-4.79
-1.44
1.81
4.88
7.61
9.92
11.80
13.39
14.87
16.39
17.94
19.43
20.72
21.75
22.58
23.33
24.06
24.65
24.85
24.33
22.93
20.72
18.04
15.30
12.84
10.76
8.87
6.86
4.41
1.32
-2.37
-6.44
-10.43
-13.80
-16.05
-16.81
-15.98
-13.72
-10.42
-6.59
-2.70
0.93
4.12
6.83
9.10
10.89
12.15
12.81
12.83
12.25
11.22
9.92
8.57
7.33
6.35
5.66
5.24
4.98
4.75
4.39
3.78
2.89
1.74
0.41
-1.05
-2.63
-4.37
-6.23
-8.14
-9.94
-11.52
-12.93
-14.34
-16.02
-18.09
-20.42
-22.52
-23.76
-23.58
-21.75
-18.50
-14.41
-10.18
-6.36
-3.27
-0.90
0.93
2.46
3.89
5.28
6.58
7.68
8.40
8.69
8.60
8.32
8.04
7.92
7.93
7.96
7.83
7.44
6.73
5.71
4.42
2.91
1.32
-0.20
-1.43
-2.30
-2.89
-3.51
-4.56
-6.37
-9.06
-12.43
-16.03
-19.24
-21.44
-22.14
-21.11
-18.42
-14.44
-9.79
-5.12
-1.02
2.20
4.43
5.81
6.53
6.75
6.59
6.14
5.48
4.77
4.17
3.77
3.57
3.47
3.29
2.91
2.25
1.33
0.25
-0.92
-2.17
-3.48
-4.88
-6.38
-7.98
-9.75
-11.74
-14.03
-16.63
-19.30
-21.62
-22.96
-22.79
-20.83
-17.21
-12.48
-7.43
-2.84
0.78
3.23
4.64
5.29
5.46
5.36
5.09
4.71
4.29
3.91
3.66
3.61
3.69
3.74
3.54
2.93
1.85
0.40
-1.19
-2.70
-4.04
-5.22
-6.41
-7.86
-9.69
-11.96
-14.58
-17.37
-20.12
-22.56
-24.39
-25.28
-24.98
-23.34
-20.49
-16.78
-12.74
-8.94
-5.81
-3.57
-2.18
-1.47
-1.28
-1.53
-2.24
-3.46
-5.14
-7.07
-8.95
-10.52
-11.70
-12.64
-13.64
-14.95
-16.68
-18.76
-21.01
-23.24
-25.36
-27.37
-29.28
-31.15
-33.04
-35.01
-37.05
-39.00
-40.48
-40.84
-39.40
-35.55
-28.96
-19.68
-8.15
4.96
18.78
32.39
44.88
55.35
63.06
67.61
69.06
67.99
65.38
62.36
59.76
57.96
56.85
56.00
55.06
53.89
52.62
51.42
50.30
48.96
46.91
43.69
39.06
33.06
25.91
17.91
9.38
0.79
-7.23
-13.87
-18.34
-20.16
-19.38
-16.58
-12.68
-8.61
-5.03
-2.19
0.04
1.90
3.58
5.05
6.14
6.57
6.25
5.25
3.92
2.68
1.90
1.77
2.22
3.06
4.04
4.99
5.82
6.44
6.64
6.05
4.20
0.66
-4.77
-11.84
-19.81
-27.58
-33.95
-38.03
-39.52
-38.79
-36.70
-34.21
-32.04
-30.41
-29.09
-27.69
-25.95
-23.94
-22.03
-20.64
-20.04
-20.20
-20.85
-21.68
-22.44
-23.01
-23.40
-23.65
-23.79
-23.89
-24.10
-24.67
-25.82
-27.73
-30.38
-33.58
-36.98
-40.27
-43.12
-45.30
-46.55
-46.67
-45.50
-42.99
-39.23
-34.50
-29.13
-23.51
-17.96
-12.71
-7.90
-3.62
0.01
2.87
4.88
6.12
6.81
7.25
7.72
8.26
8.74
8.87
8.38
7.15
5.31
3.14
0.91
-1.21
-3.25
-5.38
-7.78
-10.69
-14.25
-18.52
-23.46
-28.79
-33.99
-38.33
-40.99
-41.30
-38.97
-34.21
-27.70
-20.36
-13.07
-6.41
-0.59
4.46
8.86
12.65
15.73
17.92
19.20
19.73
19.82
19.78
19.80
19.83
19.60
18.86
17.41
15.32
12.81
10.18
7.63
5.21
2.75
-0.02
-3.38
-7.50
-12.45
-18.20
-24.59
-31.34
-37.97
-43.76
-47.81
-49.26
-47.60
-42.82
-35.54
-26.78
-17.58
-8.74
-0.57
6.99
14.17
21.12
27.79
33.91
39.13
43.17
45.87
47.32
47.70
47.27
46.33
45.13
43.91
42.83
41.98
41.34
40.74
39.85
38.26
35.60
31.65
26.49
20.50
14.24
8.29
3.06
-1.44
-5.56
-9.95
-15.29
-21.96
-29.84
-38.23
-45.97
-51.74
-54.41
-53.41
-48.83
-41.40
-32.20
-22.42
-12.95
-4.27
3.59
10.85
17.71
24.21
30.15
35.20
39.16
42.06
44.18
45.83
47.21
48.25
48.69
48.26
46.90
44.85
42.53
40.37
38.58
37.04
35.39
33.25
30.37
26.77
22.74
18.63
14.73
11.12
7.63
3.88
-0.53
-5.97
-12.58
-20.21
-28.36
-36.09
-42.24
-45.63
-45.42
-41.43
-34.25
-25.05
-15.23
-5.98
2.10
8.96
14.87
20.12
24.81
28.80
31.93
34.17
35.71
36.91
38.06
39.24
40.28
40.91
40.85
40.10
38.80
37.26
35.75
34.36
32.98
31.34
29.11
26.07
22.24
17.88
13.43
9.35
5.91
3.13
0.72
-1.80
-5.00
-9.36
-15.13
-22.18
-29.88
-37.15
-42.66
-45.18
-43.96
-39.01
-31.06
-21.38
-11.29
-1.84
6.39
13.32
19.09
23.91
27.90
31.05
33.35
34.91
35.90
36.57
37.07
37.43
37.46
36.91
35.61
33.58
31.08
28.48
26.11
24.03
22.02
19.68
16.66
12.80
8.24
3.31
-1.59
-6.10
-9.97
-13.13
-15.64
-17.68
-19.52
-21.41
-23.37
-25.08
-25.86
-24.93
-21.75
-16.28
-9.05
-0.99
6.94
14.06
20.04
24.88
28.67
31.49
33.34
34.20
34.05
32.94
31.01
28.48
25.62
22.82
20.41
18.66
17.57
16.91
16.29
15.34
13.90
11.99
9.86
7.74
5.79
4.01
2.27
0.42
-1.74
-4.28
-7.31
-10.79
-14.64
-18.59
-22.20
-24.83
-25.83
-24.73
-21.40
-16.20
-9.83
-3.19
2.94
8.06
12.02
14.91
16.87
18.03
18.40
17.95
16.75
15.01
13.10
11.43
10.26
9.62
9.27
8.81
7.94
6.54
4.76
2.89
1.19
-0.24
-1.50
-2.80
-4.37
-6.39
-8.94
-12.05
-15.72
-19.87
-24.22
-28.32
-31.53
-33.14
-32.67
-29.99
-25.45
-19.77
-13.84
-8.39
-3.83
-0.21
2.64
4.92
6.73
8.02
8.69
8.74
8.24
7.42
6.53
5.75
5.14
4.61
4.03
3.29
2.37
1.33
0.26
-0.78
-1.86
-3.16
-4.82
-6.96
-9.58
-12.58
-15.82
-19.10
-22.12
-24.51
-25.84
-25.73
-24.03
-20.87
-16.66
-12.00
-7.43
-3.37
-0.03
2.54
4.39
5.53
5.97
5.77
5.03
3.93
2.68
1.42
0.20
-1.08
-2.53
-4.23
-6.05
-7.74
-9.00
-9.70
-9.98
-10.24
-11.07
-12.96
-16.19
-20.60
-25.74
-30.82
-34.96
-37.34
-37.39
-34.99
-30.46
-24.46
-17.76
-11.04
-4.70
1.08
6.24
10.68
14.20
16.67
18.05
18.56
18.62
18.60
18.69
18.82
18.74
18.16
16.97
15.29
13.33
11.31
9.23
6.98
4.25
0.81
-3.48
-8.57
-14.21
-19.99
-25.35
-29.71
-32.49
-33.28
-31.91
-28.54
-23.62
-17.79
-11.77
-6.18
-1.51
2.00
4.25
5.38
5.65
5.40
4.92
4.44
3.98
3.40
2.56
1.40
0.03
-1.30
-2.34
-2.95
-3.20
-3.30
-3.55
-4.14
-5.19
-6.77
-8.90
-11.54
-14.48
-17.26
-19.20
-19.58
-17.85
-13.95
-8.26
-1.55
5.35
11.71
17.07
21.20
24.03
25.55
25.88
25.24
23.96
22.46
21.10
20.11
19.51
19.20
18.98
18.71
18.21
17.37
16.14
14.55
12.74
10.95
9.42
8.27
7.38
6.57
5.73
5.07
5.13
6.73
10.58
16.99
25.69
35.89
46.52
56.61
65.56
73.14
79.45
84.64
88.86
92.31
95.25
98.02
100.79
103.28
104.48
102.84
96.84
86.01
71.72
57.26
46.88
44.14
50.30
63.35
78.48
89.48
90.54
77.76
49.84
8.06
-44.29
-102.38
-160.52
-212.88
-254.41
-281.91
-294.69
-294.56
-285.00
-269.97
-252.57
-234.45
-215.98
-196.91
-177.40
-158.43
-141.57
-128.17
-118.50
-111.33
-104.47
-95.89
-84.91
-72.76
-61.93
-54.74
-51.76
-51.23
-49.56
-43.18
-30.23
-11.61
9.35
28.42
42.29
49.75
51.81
50.79
49.07
48.06
48.04
48.55
49.13
49.84
51.28
54.11
58.60
64.21
69.74
73.83
75.48
74.48
71.45
67.52
63.81
61.12
59.65
59.04
58.59
57.48
55.06
51.06
45.71
39.73
34.18
30.05
27.94
27.74
28.66
29.49
29.12
27.06
23.69
20.24
18.29
19.18
23.43
30.53
39.17
47.83
55.53
62.20
68.77
76.67
87.15
100.60
116.05
131.06
141.95
144.34
134.12
108.82
68.89
18.45
-35.26
-83.66
-119.40
-138.65
-141.99
-133.45
-118.40
-101.27
-84.40
-68.32
-52.86
-38.35
-25.88
-16.68
-11.25
-8.85
-7.81
-6.53
-4.30
-1.61
0.34
0.50
-1.25
-3.97
-6.25
-6.86
-5.35
-2.03
2.45
7.66
13.60
20.61
28.92
38.37
48.33
57.94
66.57
74.02
80.57
86.75
93.10
99.93
107.44
115.75
124.97
135.17
146.27
158.06
170.15
181.89
192.04
198.61
198.84
189.80
169.39
137.50
96.35
50.02
2.95
-41.75
-83.40
-123.71
-165.83
-212.97
-266.94
-327.01
-389.29
-446.96
-491.67
-515.85
-515.43
-491.50
-450.16
-400.29
-350.19
-304.75
-264.30
-225.83
-185.43
-140.88
-92.90
-44.70
-0.44
36.64
65.42
86.90
103.34
117.10
129.38
140.25
149.16
156.10
162.41
170.60
183.36
202.01
225.28
249.10
267.57
274.80
267.00
243.81
208.52
166.99
125.85
90.87
65.79
52.13
49.61
56.80
71.42
90.36
109.61
124.29
129.31
120.41
95.12
53.29
-3.02
-69.83
-141.58
-211.41
-271.88
-316.23
-340.10
-342.69
-326.88
-297.96
-261.41
-221.13
-178.91
-135.46
-91.90
-50.81
-15.75
10.11
25.55
31.87
32.21
30.21
28.64
28.94
31.18
34.60
38.12
40.77
42.02
42.00
41.47
41.52
43.06
46.32
50.70
55.09
58.47
60.47
61.51
62.49
64.20
66.87
69.99
72.72
74.28
74.35
73.17
71.32
69.38
67.64
66.11
64.53
62.65
60.32
57.56
54.48
51.15
47.68
44.18
40.87
38.12
36.39
36.02
37.14
39.53
42.77
46.31
49.69
52.70
55.40
58.08
61.08
64.52
68.12
70.95
71.36
67.34
57.23
40.48
18.31
-6.25
-29.08
-46.07
-54.17
-52.16
-40.66
-21.85
1.27
25.49
48.03
67.01
81.93
93.89
105.52
120.35
141.59
170.90
207.39
247.39
285.18
314.48
330.36
330.79
317.15
293.48
264.77
235.02
206.01
177.37
147.60
115.49
81.03
45.46
10.47
-22.73
-54.04
-84.32
-114.71
-146.17
-179.23
-214.15
-250.97
-289.28
-327.71
-363.75
-394.12
-415.84
-427.32
-429.12
-423.61
-414.07
-403.35
-393.05
-383.25
-372.83
-360.25
-344.23
-324.32
-301.28
-276.94
-253.99
-235.36
-223.78
-221.19
-228.31
-244.14
-265.45
-286.78
-301.27
-302.37
-286.09
-252.54
-205.98
-153.21
-100.96
-53.53
-11.80
26.22
64.08
105.48
153.15
207.89
267.51
326.14
374.59
402.49
401.90
370.89
315.17
246.72
179.65
125.29
88.99
69.88
63.16
63.26
65.93
68.55
69.21
65.90
56.70
40.83
19.69
-3.25
-23.56
-37.80
-44.90
-46.41
-45.56
-45.80
-49.36
-56.71
-66.77
-77.51
-86.81
-92.92
-94.80
-92.15
-85.51
-76.22
-66.33
-58.14
-53.54
-53.17
-55.88
-58.64
-57.46
-48.78
-30.79
-4.06
28.90
64.89
101.42
137.43
173.30
210.26
249.69
292.65
339.33
388.59
437.48
481.23
514.17
531.26
529.85
510.62
477.20
434.78
388.30
341.41
296.38
254.54
216.92
184.24
156.45
132.36
109.61
85.18
56.30
21.42
-18.68
-60.27
-96.92
-121.38
-128.39
-117.48
-94.12
-68.10
-49.97
-46.97
-60.79
-88.12
-123.23
-160.89
-197.79
-232.00
-261.46
-283.13
-293.68
-291.16
-276.58
-253.93
-228.64
-205.56
-187.22
-173.59
-162.89
-153.04
-142.53
-130.76
-117.68
-103.54
-88.77
-74.11
-60.71
-49.78
-42.02
-37.05
-33.29
-28.54
-20.87
-9.52
4.78
20.22
34.66
46.55
55.42
61.86
67.35
73.74
82.78
95.55
111.86
129.87
146.27
157.00
158.45
148.71
128.02
98.60
63.59
25.97
-12.31
-50.43
-88.48
-127.09
-167.04
-208.95
-252.75
-297.33
-340.20
-377.97
-407.29
-425.82
-432.83
-429.01
-415.79
-394.63
-366.92
-334.19
-298.65
-262.95
-229.44
-199.14
-171.06
-142.65
-110.91
-73.88
-31.60
13.87
59.11
100.39
134.42
158.81
172.40
175.41
169.50
157.53
143.03
129.33
118.91
112.98
111.63
114.17
119.58
126.76
134.56
141.80
147.50
151.16
153.03
153.97
155.06
156.77
158.54
158.45
153.73
141.59
120.29
90.03
53.28
14.09
-23.13
-55.21
-81.46
-104.02
-127.07
-155.16
-191.33
-235.66
-284.83
-332.83
-372.59
-398.04
-405.77
-395.80
-371.24
-336.90
-297.69
-257.30
-217.77
-179.80
-143.59
-109.35
-77.56
-48.70
-22.86
0.49
22.49
44.87
69.94
100.07
136.85
179.58
224.06
262.62
285.75
284.82
254.78
195.75
113.08
16.03
-83.96
-175.25
-247.71
-294.42
-312.97
-305.94
-279.96
-243.59
-204.62
-168.14
-135.93
-107.51
-81.67
-57.38
-34.06
-11.26
11.73
35.79
61.58
89.27
118.72
149.56
181.32
213.25
243.97
271.36
293.02
307.09
313.04
311.92
305.98
297.75
289.08
280.72
272.42
263.46
253.15
241.08
227.17
211.53
194.46
176.39
158.00
140.13
123.59
109.09
97.06
87.54
80.16
74.21
68.74
62.73
55.41
46.46
36.15
25.29
14.94
6.13
-0.46
-4.62
-6.56
-6.72
-5.50
-3.14
0.24
4.56
9.65
15.20
20.84
26.22
31.09
35.29
38.74
41.41
43.27
44.43
45.10
45.53
46.02
46.76
47.86
49.34
51.17
53.21
55.19
56.69
57.24
56.48
54.31
51.07
47.39
43.99
41.34
39.35
37.35
34.43
29.97
24.10
17.91
13.11
11.41
13.81
20.04
28.64
37.41
44.24
47.76
47.77
45.10
41.08
36.83
32.78
28.64
23.46
15.95
4.52
-12.50
-36.56
-68.05
-105.21
-143.54
-176.27
-195.99
-197.05
-177.36
-138.75
-85.67
-23.14
44.90
115.59
186.18
252.84
310.47
354.15
381.04
391.84
390.52
382.38
371.47
358.88
342.82
320.22
289.00
249.58
204.93
159.19
115.91
76.63
40.72
6.07
-29.82
-68.80
-111.71
-158.25
-206.97
-255.18
-299.22
-335.09
-359.63
-371.74
-372.83
-366.30
-356.08
-345.08
-334.27
-322.92
-309.56
-293.12
-273.42
-250.91
-226.01
-198.86
-169.57
-138.96
-109.04
-82.71
-62.89
-51.50
-49.15
-55.66
-70.63
-93.54
-122.98
-155.58
-185.45
-205.34
-208.81
-192.71
-158.35
-110.53
-54.87
5.00
68.40
136.10
207.16
276.55
335.13
372.45
381.08
359.66
313.20
250.47
180.18
108.22
37.48
-30.36
-92.62
-144.70
-181.39
-199.19
-198.36
-183.06
-159.64
-134.09
-110.25
-89.39
-71.10
-54.99
-41.76
-33.40
-32.21
-39.55
-54.74
-74.91
-95.62
-112.31
-121.51
-121.57
-112.49
-95.15
-70.48
-38.98
-0.54
45.36
99.11
160.27
227.16
296.49
363.46
422.31
467.29
493.76
499.25
483.96
450.60
403.69
348.44
289.56
230.49
172.94
116.95
61.27
4.22
-55.22
-116.31
-176.08
-229.82
-272.55
-300.72
-313.86
-314.84
-308.82
-301.22
-295.86
-293.93
-294.22
-294.21
-291.42
-284.28
-272.39
-256.31
-237.02
-215.41
-191.80
-165.87
-136.87
-104.19
-67.98
-29.40
9.47
46.29
78.99
106.26
127.43
142.28
150.86
153.67
151.92
147.70
143.59
142.04
144.53
151.09
160.35
170.21
178.80
185.16
189.09
190.39
188.07
180.58
166.91
148.25
128.57
113.71
109.02
116.83
135.31
159.32
182.96
202.17
216.23
227.05
237.15
247.41
255.91
258.66
251.50
232.09
200.98
161.44
117.97
74.33
32.17
-9.30
-52.57
-100.33
-153.94
-212.17
-270.62
-322.12
-358.27
-371.96
-359.91
-324.40
-272.90
-215.71
-162.54
-119.72
-89.33
-70.33
-60.54
-58.09
-61.72
-69.92
-80.18
-89.02
-93.07
-90.44
-81.52
-68.75
-55.53
-44.73
-37.63
-33.67
-31.06
-27.81
-22.74
-15.95
-8.65
-2.52
1.11
1.86
0.39
-1.96
-3.85
-4.48
-4.00
-3.33
-3.79
-6.42
-11.45
-18.17
-25.09
-30.62
-33.60
-33.67
-31.19
-26.96
-21.87
-16.56
-11.47
-6.86
-2.80
0.83
4.40
8.49
13.62
19.97
27.23
34.48
40.36
43.24
41.54
34.30
21.59
4.97
-12.63
-27.66
-37.09
-39.52
-35.76
-28.53
-21.34
-17.27
-17.92
-23.33
-32.25
-42.92
-53.70
-63.39
-71.50
-78.26
-84.54
-91.66
-101.02
-113.58
-129.43
-147.75
-166.98
-185.47
-202.06
-216.42
-228.98
-240.57
-252.20
-264.71
-278.42
-292.56
-304.82
-311.70
-309.78
-297.46
-275.98
-249.11
-221.23
-195.13
-170.68
-145.43
-116.53
-82.65
-44.74
-5.30
33.28
69.72
104.01
136.55
167.45
196.36
222.93
247.06
268.83
288.04
303.88
315.29
321.56
322.88
319.95
313.33
302.73
287.08
265.38
237.91
206.93
176.23
149.94
130.87
119.52
114.05
111.11
107.16
99.51
86.87
69.30
47.90
24.49
1.33
-19.09
-34.37
-42.61
-42.76
-35.09
-21.34
-4.60
11.53
23.93
31.16
34.02
35.21
38.29
46.08
59.41
76.81
95.12
110.86
121.59
126.81
127.87
127.24
127.59
131.01
138.68
150.91
167.33
187.00
208.53
230.09
249.63
265.13
274.83
277.45
272.26
259.05
238.22
210.82
178.58
143.68
108.24
73.90
41.42
10.61
-19.31
-49.39
-80.90
-115.16
-153.34
-195.61
-240.21
-282.86
-317.32
-337.38
-339.39
-324.11
-296.80
-265.21
-236.45
-214.35
-198.52
-185.45
-170.82
-151.62
-127.21
-99.05
-69.67
-41.61
-16.92
3.03
17.42
26.03
29.22
28.25
25.09
21.97
20.69
21.83
24.44
26.26
24.60
17.39
4.12
-14.04
-34.70
-55.37
-74.48
-91.86
-108.53
-125.98
-145.11
-165.56
-185.65
-203.11
-216.29
-225.10
-231.11
-236.55
-242.86
-249.55
-254.19
-253.54
-245.45
-230.27
-211.15
-193.10
-180.97
-177.62
-182.83
-193.50
-205.13
-213.58
-216.71
-214.99
-210.92
-207.50
-206.63
-208.18
-210.11
-209.59
-204.34
-193.29
-176.50
-154.62
-128.39
-98.71
-67.08
-35.81
-7.63
15.29
32.34
44.88
55.65
67.49
82.06
99.13
116.85
132.67
144.28
150.34
150.52
145.35
135.78
123.02
108.38
93.21
78.88
66.64
57.60
52.40
51.00
52.55
55.45
57.75
57.73
54.43
47.85
38.89
29.06
20.17
14.22
13.42
19.99
35.74
61.28
95.20
133.89
172.10
204.38
226.69
237.42
237.57
229.97
218.06
204.73
191.81
180.07
169.67
160.56
152.57
145.44
138.67
131.59
123.68
114.73
105.02
95.10
85.60
76.81
68.51
60.08
50.78
40.24
28.84
17.72
8.40
2.27
-0.07
1.02
4.40
8.65
12.62
15.73
17.89
19.32
20.19
20.45
19.93
18.48
16.19
13.40
10.64
8.46
7.30
7.35
8.55
10.60
13.07
15.51
17.48
18.66
18.82
17.87
15.84
12.81
8.97
4.49
-0.43
-5.65
-10.95
-16.00
-20.22
-22.85
-23.09
-20.33
-14.40
-5.76
4.71
15.84
26.57
36.08
43.93
49.99
54.34
57.18
58.72
59.22
58.90
57.93
56.43
54.45
52.01
49.11
45.78
42.05
38.01
33.77
29.51
25.35
21.40
17.65
13.96
10.13
5.95
1.23
-4.10
-10.01
-16.44
-23.34
-30.59
-37.96
-44.93
-50.71
-54.26
-54.72
-51.63
-45.22
-36.38
-26.34
-16.32
-7.06
1.19
8.59
15.37
21.63
27.19
31.73
34.98
36.86
37.54
37.44
36.99
36.59
36.45
36.55
36.71
36.68
36.18
35.01
33.05
30.31
26.91
23.03
18.88
14.59
10.20
5.59
0.54
-5.16
-11.58
-18.59
-25.90
-32.97
-39.18
-43.76
-46.03
-45.52
-42.14
-36.33
-28.92
-20.99
-13.44
-6.84
-1.30
3.31
7.22
10.48
12.95
14.41
14.76
14.14
12.96
11.68
10.70
10.12
9.81
9.48
8.90
8.03
7.00
5.98
5.06
4.20
3.24
1.98
0.25
-2.06
-5.12
-9.04
-13.82
-19.22
-24.68
-29.35
-32.35
-33.05
-31.25
-27.31
-21.88
-15.68
-9.24
-2.84
3.38
9.20
14.30
18.26
20.78
21.77
21.44
20.19
18.51
16.80
15.38
14.45
14.11
14.29
14.78
15.18
15.05
14.10
12.24
9.73
6.90
4.10
1.44
-1.23
-4.29
-8.23
-13.39
-19.77
-26.92
-33.93
-39.66
-43.04
-43.40
-40.76
-35.75
-29.43
-22.87
-16.83
-11.64
-7.22
-3.29
0.39
3.88
7.05
9.64
11.40
12.21
12.06
11.09
9.58
7.86
6.26
5.08
4.47
4.31
4.32
4.10
3.30
1.79
-0.31
-2.72
-5.15
-7.41
-9.57
-11.83
-14.44
-17.52
-20.93
-24.29
-27.01
-28.43
-28.01
-25.50
-20.99
-14.97
-8.15
-1.35
4.76
9.78
13.60
16.37
18.39
19.88
20.96
21.61
21.72
21.24
20.22
18.86
17.44
16.20
15.30
14.74
14.41
14.18
13.85
13.27
12.31
10.83
8.74
5.93
2.37
-1.89
-6.64
-11.66
-16.65
-21.42
-25.89
-30.03
-33.69
-36.53
-38.00
-37.56
-34.97
-30.43
-24.61
-18.34
-12.34
-6.97
-2.25
1.97
5.71
8.83
11.06
12.23
12.32
11.62
10.45
9.12
7.78
6.47
5.21
4.07
3.12
2.42
1.88
1.32
0.54
-0.61
-2.11
-3.83
-5.65
-7.49
-9.39
-11.37
-13.45
-15.56
-17.69
-19.87
-22.27
-24.97
-27.81
-30.28
-31.59
-30.99
-28.02
-22.77
-15.91
-8.43
-1.34
4.60
9.02
11.99
13.87
15.16
16.29
17.53
18.91
20.28
21.34
21.79
21.40
20.06
17.84
14.96
11.74
8.48
5.42
2.66
0.23
-1.91
-3.81
-5.51
-7.06
-8.51
-9.93
-11.36
-12.91
-14.73
-17.04
-20.04
-23.74
-27.78
-31.37
-33.44
-33.06
-29.85
-24.18
-17.07
-9.79
-3.38
1.60
5.13
7.45
8.83
9.43
9.30
8.53
7.37
6.18
5.33
5.09
5.51
6.47
7.68
8.80
9.47
9.40
8.47
6.75
4.48
1.94
-0.69
-3.34
-6.04
-8.79
-11.56
-14.26
-16.97
-19.92
-23.46
-27.80
-32.74
-37.55
-41.15
-42.45
-40.75
