1676877506.00
64.000000
-0.00
-0.00
-0.00
-0.00
-0.00
-0.00
-0.00
-0.00
-0.00
-0.00
0.00
0.01
0.01
-0.00
-0.03
-0.05
-0.05
0.00
0.13
0.36
0.66
1.01
1.37
1.72
2.06
2.40
2.79
3.24
3.80
4.42
5.06
5.66
6.20
6.68
7.15
7.68
8.31
9.14
10.09
11.04
11.88
12.56
13.14
13.76
14.65
15.96
17.91
20.32
22.90
25.38
27.58
29.57
31.68
34.32
37.81
42.54
48.15
54.10
59.83
64.97
69.58
74.14
79.34
85.71
93.76
103.00
112.62
121.73
129.77
136.75
143.30
150.75
157.77
166.64
177.95
191.79
206.97
220.57
228.25
225.36
208.53
176.87
132.76
80.05
23.07
-34.94
-92.44
-149.16
-205.23
-260.37
-313.74
-363.87
-409.83
-450.91
-486.50
-515.74
-537.23
-549.22
-549.96
-538.37
-514.21
-478.67
-433.88
-382.45
-327.02
-269.84
-212.63
-156.66
-102.95
-52.37
-5.90
35.58
71.43
101.35
125.50
144.38
158.69
169.15
176.37
180.75
182.57
182.07
179.51
175.23
169.65
163.18
156.15
148.81
141.30
133.69
126.02
118.33
110.69
103.16
95.80
88.68
81.83
75.25
68.95
62.95
57.25
51.86
46.78
42.03
37.59
33.45
29.62
26.09
22.83
19.86
17.17
14.75
12.58
10.68
9.00
7.56
6.32
5.27
4.39
3.65
3.05
2.57
2.18
1.88
1.66
1.49
1.38
1.31
1.28
1.28
1.31
1.36
1.44
1.54
1.66
1.81
1.98
2.16
2.38
2.61
2.87
3.16
3.48
3.83
4.22
4.63
5.09
5.58
6.11
6.67
7.29
7.94
8.64
9.39
10.18
11.02
11.90
12.83
13.82
14.86
15.97
17.14
18.38
19.65
20.93
22.17
23.29
24.20
24.78
24.92
24.51
23.45
21.71
19.27
16.19
12.53
8.45
4.14
-0.21
-4.40
-8.22
-11.55
-14.25
-16.27
-17.58
-18.23
-18.27
-17.82
-16.97
-15.84
-14.51
-13.05
-11.53
-9.95
-8.32
-6.66
-4.97
-3.24
-1.45
0.45
2.49
4.72
7.17
9.92
12.89
16.03
19.32
22.74
26.25
29.85
33.54
37.37
41.42
45.53
49.63
53.71
57.78
61.89
66.09
70.49
75.21
80.47
86.06
91.89
97.95
104.20
110.65
117.26
124.08
131.14
138.61
146.07
153.27
159.96
165.85
170.51
173.40
173.65
169.98
164.61
158.14
150.94
143.24
135.15
126.74
118.04
109.10
100.06
91.21
82.38
73.59
64.93
56.41
48.00
39.61
31.18
22.82
14.81
7.18
0.11
-6.28
-12.06
-17.55
-23.21
-29.47
-36.51
-44.19
-52.26
-60.31
-68.01
-75.35
-82.75
-90.88
-100.36
-111.49
-124.05
-137.48
-151.00
-163.97
-176.15
-187.83
-199.72
-212.79
-228.11
-246.52
-268.19
-292.14
-315.92
-336.04
-348.88
-352.00
-345.10
-330.21
-310.93
-290.93
-272.62
-256.45
-241.20
-224.87
-205.74
-182.97
-156.79
-128.14
-98.40
-69.02
-41.41
-16.84
3.77
19.84
31.25
38.44
42.20
43.58
43.70
43.55
43.82
44.87
46.72
49.16
51.92
54.76
57.55
60.14
62.34
63.81
64.19
63.14
60.54
56.58
51.64
46.21
40.67
35.18
29.64
23.81
17.50
10.74
3.79
-2.91
-8.92
-14.00
-18.25
-22.09
-26.12
-30.96
-36.94
-43.91
-51.08
-57.07
-60.11
-58.60
-51.56
-39.04
-22.26
-3.25
15.66
32.48
45.94
55.57
61.53
64.38
64.75
63.28
60.57
57.18
53.63
50.38
47.81
46.15
45.49
45.76
46.81
48.35
50.03
51.41
52.04
51.50
49.51
45.98
41.10
35.22
28.89
22.60
16.71
11.37
6.50
1.88
-2.80
-7.72
-12.92
-18.18
-23.19
-27.60
-31.28
-34.40
-37.46
-41.18
-46.14
-52.52
-59.79
-66.63
-71.23
-71.71
-66.70
-55.88
-40.07
-21.12
-1.39
16.85
31.90
42.95
49.97
53.48
54.24
53.04
50.56
47.38
44.03
41.00
38.67
37.25
36.71
36.89
37.54
38.51
39.70
41.04
42.34
43.25
43.25
41.87
38.80
34.12
28.23
21.79
15.45
9.67
4.54
-0.14
-4.75
-9.66
-15.02
-20.73
-26.45
-31.75
-36.33
-40.20
-43.68
-47.39
-51.98
-57.89
-65.02
-72.55
-79.02
-82.57
-81.50
-74.77
-62.43
-45.64
-26.36
-6.91
10.68
24.98
35.33
41.77
44.76
45.01
43.27
40.29
36.81
33.48
30.82
29.15
28.53
28.85
29.89
31.36
33.04
34.67
36.00
36.72
36.55
35.30
32.97
29.69
25.71
21.28
16.58
11.71
6.67
1.47
-3.91
-9.47
-15.17
-20.96
-26.74
-32.34
-37.65
-42.60
-47.31
-52.18
-57.80
-64.77
-73.33
-83.12
-92.88
-100.61
-104.06
-101.39
-91.83
-76.00
-55.80
-33.85
-12.79
5.32
19.27
28.76
34.07
35.85
34.93
32.21
28.67
25.30
22.87
21.85
22.29
23.90
26.16
28.58
30.88
32.99
34.98
36.94
38.75
40.10
40.54
39.69
37.39
33.85
29.57
25.16
21.06
17.34
13.60
9.20
3.66
-3.09
-10.55
-17.84
-24.05
-28.74
-32.10
-34.94
-38.37
-43.36
-50.39
-59.12
-68.32
-76.14
-80.45
-79.45
-72.14
-58.71
-40.47
-19.57
1.60
20.91
36.85
48.64
56.16
59.74
60.03
57.79
53.82
48.88
43.61
38.56
34.14
30.63
28.16
26.76
26.32
26.69
27.64
28.81
29.77
29.96
28.83
26.02
21.48
15.49
8.58
1.32
-5.84
-12.77
-19.57
-26.44
-33.51
-40.68
-47.61
-53.86
-59.11
-63.34
-66.93
-70.61
-75.26
-81.59
-89.86
-99.69
-109.97
-118.88
-124.40
-124.62
-118.52
-106.20
-89.07
-69.44
-49.89
-32.58
-18.80
-8.82
-2.08
2.38
5.56
8.14
10.43
12.43
14.02
15.17
16.05
17.00
18.36
20.36
23.05
26.31
29.99
33.91
37.86
41.46
44.13
45.26
44.45
41.71
37.52
32.70
27.94
23.59
19.50
15.22
10.28
4.57
-1.66
-7.88
-13.55
-18.37
-22.44
-26.23
-30.49
-36.02
-43.29
-52.19
-61.77
-70.22
-75.27
-74.77
-67.42
-53.22
-33.58
-10.92
12.07
33.06
50.57
64.03
73.53
79.56
82.73
83.67
83.01
81.41
79.50
77.87
76.87
76.73
77.50
79.10
81.37
84.05
86.77
89.10
90.58
90.82
89.57
86.81
82.72
77.63
71.93
65.86
59.53
52.90
45.84
38.26
30.18
21.82
13.54
5.73
-1.32
-7.54
-13.14
-18.59
-24.58
-31.83
-40.82
-51.56
-63.24
-74.21
-82.19
-84.87
-80.56
-68.85
-50.80
-28.68
-5.32
16.72
35.73
51.08
62.98
71.98
78.55
82.87
84.85
84.43
81.85
77.77
73.13
68.90
65.77
64.02
63.46
63.64
64.06
64.35
64.40
64.24
63.92
63.43
62.62
61.21
58.89
55.36
50.37
43.72
35.28
25.12
13.59
1.44
-10.34
-20.68
-28.87
-34.88
-39.40
-43.73
-49.27
-57.03
-67.12
-78.61
-89.60
-97.72
-100.74
-97.26
-87.10
-71.39
-52.27
-32.33
-13.95
1.18
12.32
19.55
23.53
25.11
25.07
23.95
22.19
20.11
18.17
16.82
16.47
17.31
19.29
22.08
25.26
28.44
31.31
33.61
35.10
35.51
34.65
32.44
28.97
24.46
19.22
13.48
7.37
0.97
-5.64
-12.24
-18.54
-24.26
-29.25
-33.66
-38.01
-42.99
-49.30
-57.28
-66.53
-75.88
-83.45
-87.14
-85.18
-76.72
-62.15
-43.01
-21.61
-0.44
18.41
33.60
44.65
51.80
55.76
57.44
57.69
57.13
56.12
54.83
53.33
51.74
50.22
48.94
47.99
47.42
47.13
47.05
46.99
46.75
45.98
44.31
41.32
36.78
30.67
23.18
14.69
5.52
-4.02
-13.74
-23.42
-32.84
-41.74
-49.99
-57.72
-65.29
-73.30
-82.36
-92.84
-104.53
-116.55
-127.30
-134.76
-136.96
-132.50
-121.04
-103.44
-81.54
-57.62
-33.91
-12.15
6.54
21.60
32.80
40.24
44.26
45.53
45.04
43.99
43.57
44.74
47.90
52.94
59.25
66.06
72.81
79.23
85.39
91.39
97.04
101.67
104.34
104.16
100.76
94.45
86.15
77.13
68.69
62.03
57.99
56.88
58.22
60.72
62.50
61.63
56.86
47.97
35.81
21.93
8.03
-4.34
-13.81
-19.25
-19.82
-15.34
-6.52
4.97
16.87
27.10
34.33
38.30
39.51
38.68
36.19
31.94
25.64
17.26
7.37
-2.87
-12.12
-19.44
-24.57
-27.94
-30.37
-32.57
-34.87
-37.24
-39.48
-41.57
-43.74
-46.41
-49.97
-54.54
-59.97
-65.78
-71.44
-76.38
-80.18
-82.64
-83.89
-84.37
-84.82
-86.09
-88.82
-93.20
-98.80
-104.53
-108.81
-109.89
-106.29
-97.21
-82.86
-64.48
-44.18
-24.34
-6.98
6.69
16.51
23.09
27.40
30.28
32.21
33.27
33.42
32.70
31.39
30.01
29.05
28.78
29.13
29.69
29.90
29.39
28.12
26.30
24.25
22.12
19.81
17.05
13.52
9.04
3.72
-2.16
-8.21
-14.10
-19.66
-24.87
-29.85
-34.76
-39.82
-45.17
-50.95
-57.07
-63.16
-68.50
-71.89
-71.97
-67.58
-58.28
-44.65
-28.35
-11.53
3.73
16.11
25.28
31.65
35.95
38.74
40.26
40.45
39.31
37.06
34.16
31.17
28.54
26.41
24.69
23.20
21.83
20.60
19.57
18.71
17.80
16.44
14.30
11.26
7.54
3.58
-0.17
-3.51
-6.69
-10.20
-14.61
-20.17
-26.76
-33.84
-40.74
-46.91
-52.20
-56.92
-61.68
-67.22
-74.03
-82.19
-91.19
-99.88
-106.49
-109.04
-105.71
-95.48
-78.61
-56.74
-32.66
-9.49
10.14
24.80
34.45
40.14
43.35
45.37
46.97
48.39
49.58
50.53
51.26
51.86
52.29
52.42
52.06
51.16
49.91
48.64
47.65
46.91
46.07
44.53
41.72
37.43
31.91
25.73
19.57
13.90
8.76
3.87
-1.26
-7.01
-13.47
-20.36
-27.22
-33.63
-39.46
-45.02
-50.96
-58.05
-66.69
-76.69
-86.90
-95.32
-99.50
-97.18
-87.15
-69.77
-47.04
-22.09
1.86
22.26
37.85
48.58
55.21
58.75
60.16
60.19
59.47
58.45
57.49
56.73
56.12
55.54
54.92
54.22
53.50
52.83
52.25
51.67
50.93
49.79
47.99
45.34
41.79
37.46
32.50
27.12
21.43
15.44
9.03
2.10
-5.34
-13.17
-21.02
-28.45
-34.95
-40.16
-44.07
-47.07
-49.99
-53.92
-59.84
-68.16
-78.41
-89.06
-97.72
-101.69
-98.74
-87.87
-69.69
-46.34
-20.93
3.30
23.87
39.37
49.60
55.18
57.06
56.25
53.68
50.20
46.60
43.61
41.67
40.86
40.85
41.11
41.13
40.77
40.21
39.80
39.84
40.26
40.64
40.42
39.19
36.92
33.99
30.83
27.61
24.02
19.31
12.74
4.00
-6.43
-17.44
-27.70
-36.17
-42.54
-47.20
-50.92
-54.54
-58.56
-63.10
-67.88
-72.33
-75.62
-76.67
-74.34
-67.58
-55.89
-39.58
-19.81
1.54
22.52
41.43
57.27
69.63
78.45
83.73
85.38
83.35
77.86
69.60
59.72
49.58
40.41
33.00
27.71
24.45
22.98
22.98
24.04
25.58
26.87
27.14
25.81
22.70
18.16
12.93
7.84
3.48
-0.06
-3.19
-6.49
-10.52
-15.45
-21.09
-26.99
-32.71
-37.91
-42.63
-47.06
-51.54
-56.34
-61.46
-66.47
-70.45
-72.11
-70.06
-63.29
-51.58
-35.71
-17.32
1.45
18.52
32.32
42.11
47.88
50.16
49.79
47.56
44.15
40.06
35.70
31.45
27.77
25.07
23.61
23.38
24.06
25.08
25.88
26.05
25.51
24.35
22.74
20.72
18.17
14.91
10.83
5.93
0.37
-5.63
-11.83
-18.06
-24.15
-29.94
-35.30
-40.19
-44.72
-49.17
-53.98
-59.50
-65.80
-72.33
-77.92
-80.80
-79.12
-71.58
-57.97
-39.53
-18.66
1.79
19.35
32.62
41.39
46.31
48.18
47.52
44.45
39.04
31.69
23.42
15.66
9.75
6.32
5.11
5.16
5.40
5.23
4.73
4.49
5.13
6.70
8.63
9.75
8.93
5.46
-0.54
-8.26
-16.49
-24.07
-30.39
-35.48
-39.96
-44.70
-50.44
-57.46
-65.29
-72.76
-78.20
-79.85
-76.31
-67.01
-52.46
-34.20
-14.38
4.67
21.01
33.42
41.44
45.35
45.85
43.86
40.37
36.21
32.03
28.34
25.41
23.35
22.10
21.45
21.14
20.91
20.66
20.43
20.42
20.77
21.40
21.87
21.48
19.50
15.46
9.39
1.88
-6.12
-13.68
-20.16
-25.51
-30.18
-34.99
-40.80
-48.25
-57.36
-67.33
-76.52
-82.68
-83.61
-77.86
-65.35
-47.46
-26.76
-6.11
12.06
26.36
36.41
42.56
45.44
45.69
43.89
40.64
36.50
32.17
28.23
25.10
22.95
21.70
21.07
20.72
20.36
19.91
19.44
19.07
18.81
18.35
17.13
14.48
10.05
3.91
-3.28
-10.63
-17.35
-23.11
-28.13
-33.12
-38.90
-46.12
-54.97
-64.97
-74.94
-83.15
-87.62
-86.64
-79.31
-65.83
-47.64
-26.99
-6.47
11.76
26.29
36.67
43.22
46.68
47.82
47.21
45.18
41.91
37.68
32.85
28.02
23.82
20.77
19.18
18.98
19.88
21.36
22.94
24.25
24.98
24.87
23.56
20.61
15.66
8.61
-0.15
-9.73
-18.99
-26.93
-33.12
-37.83
-41.96
-46.68
-52.93
-61.05
-70.56
-80.21
-88.23
-92.76
-92.26
-85.97
-74.11
-57.82
-38.90
-19.43
-1.32
14.00
25.69
33.57
37.90
39.31
38.56
36.40
33.46
30.22
27.04
24.24
22.05
20.64
20.04
20.14
20.73
21.61
22.63
23.65
24.46
24.74
24.01
21.89
18.22
13.23
7.41
1.44
-4.19
-9.28
-13.94
-18.57
-23.61
-29.49
-36.50
-44.66
-53.74
-62.99
-71.31
-77.15
-78.92
-75.25
-65.48
-49.66
-28.62
-3.67
23.55
50.95
76.05
96.03
108.20
110.85
103.95
89.50
71.16
53.21
39.37
31.76
30.60
34.49
41.23
48.67
55.34
60.55
64.32
66.80
67.98
67.55
64.99
59.98
52.70
43.78
34.11
24.39
14.92
5.59
-3.84
-13.43
-22.96
-32.00
-40.19
-47.61
-54.79
-62.53
-71.31
-80.80
-89.41
-94.55
-93.22
-83.18
-63.85
-36.85
-5.57
25.72
53.24
74.65
89.43
98.66
104.42
109.14
115.03
123.56
134.96
148.05
160.39
169.14
172.25
169.31
161.82
152.39
143.50
136.46
131.06
125.91
119.21
109.37
95.32
76.80
54.43
29.93
6.12
-13.79
-27.49
-34.85
-38.49
-42.93
-52.65
-69.91
-93.57
-119.64
-142.93
-159.07
-165.61
-161.92
-148.49
-126.20
-96.43
-61.59
-25.54
6.91
31.36
45.43
49.61
46.79
40.95
35.52
32.57
32.84
36.23
42.31
50.41
59.41
67.65
73.25
74.66
71.19
63.25
51.98
38.87
25.32
12.55
1.59
-6.76
-12.19
-15.07
-16.47
-17.77
-20.06
-23.70
-28.32
-33.26
-38.08
-42.80
-47.84
-53.58
-60.19
-67.56
-75.55
-84.04
-92.78
-100.91
-106.73
-108.08
-103.12
-91.40
-74.29
-54.68
-35.88
-20.39
-9.29
-2.15
2.23
5.07
7.23
9.06
10.63
11.84
12.53
12.39
11.21
8.88
5.59
1.65
-2.74
-7.68
-13.55
-20.65
-28.91
-37.71
-46.15
-53.52
-59.75
-65.54
-72.04
-80.26
-90.52
-102.31
-114.38
-125.22
-133.55
-138.60
-140.39
-139.48
-136.71
-132.98
-128.82
-124.52
-120.06
-115.17
-109.37
-101.90
-91.85
-78.35
-60.97
-40.03
-16.65
7.46
30.60
51.49
69.65
85.17
98.36
109.42
118.31
124.90
129.21
131.56
132.39
132.09
130.70
128.04
123.91
118.41
112.11
105.95
100.81
97.11
94.53
92.08
88.41
82.25
72.82
60.19
45.22
29.58
15.30
4.33
-2.15
-4.09
-2.84
-0.78
-0.61
-4.52
-13.43
-26.73
-42.30
-56.96
-66.99
-69.02
-60.94
-42.81
-17.24
11.14
36.95
55.74
65.27
65.80
59.24
47.92
33.54
16.90
-1.52
-20.84
-39.45
-55.29
-66.56
-72.41
-73.07
-69.48
-62.72
-53.69
-43.06
-31.51
-20.10
-10.22
-3.30
-0.30
-1.38
-5.87
-12.59
-20.23
-27.79
-34.64
-40.52
-45.38
-49.27
-52.25
-54.46
-56.15
-57.87
-60.40
-64.71
-71.56
-80.89
-91.36
-100.23
-103.93
-99.19
-84.34
-60.07
-29.36
3.43
33.98
59.17
77.70
89.84
96.76
99.75
99.84
97.68
93.86
89.08
84.32
80.63
78.84
79.30
81.72
85.26
88.77
91.15
91.69
90.09
86.52
81.28
74.65
66.72
57.57
47.44
37.02
27.39
19.76
14.96
13.10
13.37
14.43
14.85
13.67
10.60
5.94
0.16
-6.42
-13.67
-21.47
-29.25
-35.80
-39.36
-38.26
-31.52
-19.36
-3.28
14.37
31.08
44.83
54.35
59.21
59.62
56.15
49.61
41.04
31.60
22.44
14.54
8.53
4.56
2.37
1.37
0.89
0.42
-0.26
-1.02
-1.43
-1.01
0.52
3.03
6.05
8.97
11.21
12.47
12.62
11.66
9.60
6.46
2.33
-2.47
-7.44
-12.06
-15.99
-19.30
-22.45
-26.13
-30.92
-36.98
-43.89
-50.63
-55.79
-57.83
-55.58
-48.47
-36.81
-21.69
-4.73
12.30
27.83
40.60
49.68
54.37
54.28
49.49
40.74
29.47
17.55
6.74
-1.78
-7.66
-11.28
-13.32
-14.33
-14.55
-14.02
-12.91
-11.74
-11.43
-12.93
-16.83
-23.07
-30.87
-39.17
-47.09
-54.32
-61.22
-68.50
-76.88
-86.64
-97.56
-109.02
-120.39
-131.42
-142.35
-153.81
-166.28
-179.62
-192.82
-204.05
-211.49
-213.99
-211.71
-206.23
-200.05
-195.93
-196.36
-203.34
-218.09
-240.73
-269.41
-299.93
-326.12
-341.33
-340.69
-322.81
-290.31
-248.55
-203.42
-159.30
-118.22
-80.27
-44.79
-11.45
19.46
47.49
72.52
95.08
115.92
135.50
153.52
168.95
180.26
186.15
185.92
179.72
168.34
152.89
134.29
113.07
89.42
63.32
34.96
4.85
-26.04
-56.59
-85.73
-112.84
-137.80
-160.94
-182.87
-204.16
-225.09
-245.70
-265.68
-284.60
-302.01
-317.48
-330.62
-340.96
-347.99
-351.05
-349.53
-342.98
-331.26
-314.63
-293.66
-269.11
-241.76
-212.22
-180.93
-148.18
-114.27
-79.64
-44.86
-10.58
22.68
54.66
85.50
115.66
145.69
175.95
206.40
236.58
265.75
293.22
318.56
341.74
363.15
383.39
403.17
423.16
443.73
464.72
484.99
502.42
514.25
517.89
511.86
496.38
473.27
445.21
414.75
383.55
352.37
321.53
291.49
263.29
238.28
217.63
201.71
189.98
181.11
173.60
166.25
158.57
150.64
142.80
135.12
127.08
117.64
105.70
90.73
73.29
54.97
37.89
23.84
13.58
6.58
1.28
-4.29
-11.87
-22.51
-36.32
-52.30
-68.35
-81.49
-88.43
-86.57
-75.05
-55.19
-30.30
-4.53
18.58
37.21
51.47
62.67
72.05
79.90
85.31
86.76
83.09
74.38
62.00
48.19
35.21
24.64
17.13
12.53
10.31
9.91
10.75
12.23
13.60
14.06
12.95
10.12
5.97
1.39
-2.63
-5.36
-6.58
-6.50
-5.45
-3.55
-0.59
3.70
9.22
15.11
19.80
21.62
19.67
14.51
8.13
3.40
2.91
8.16
19.08
34.33
51.89
69.61
85.54
98.09
106.11
108.97
106.68
99.90
89.74
77.47
64.28
51.13
38.78
27.82
18.63
11.36
5.97
2.35
0.48
0.52
2.52
6.13
10.38
13.78
14.82
12.60
7.23
-0.11
-7.77
-14.28
-18.92
-21.89
-24.00
-26.22
-29.28
-33.57
-39.10
-45.71
-53.15
-60.93
-68.28
-74.13
-77.30
-76.82
-72.29
-64.01
-52.95
-40.46
-27.97
-16.74
-7.68
-1.33
2.20
3.15
2.10
-0.17
-2.98
-5.77
-8.29
-10.44
-12.23
-13.64
-14.68
-15.35
-15.76
-16.07
-16.38
-16.73
-17.03
-17.18
-17.13
-17.06
-17.27
-18.18
-20.09
-23.03
-26.70
-30.57
-33.99
-36.51
-38.04
-38.86
-39.56
-40.93
-43.62
-47.98
-53.86
-60.46
-66.43
-70.19
-70.35
-66.22
-58.12
-47.25
-35.38
-24.23
-15.00
-8.18
-3.72
-1.27
-0.42
-0.93
-2.62
-5.31
-8.74
-12.50
-16.13
-19.13
-21.06
-21.63
-20.79
-18.75
-15.93
-12.84
-9.95
-7.65
-6.23
-5.83
-6.62
-8.68
-11.92
-16.12
-20.85
-25.64
-30.02
-33.73
-36.70
-39.15
-41.50
-44.24
-47.90
-52.82
-58.88
-65.47
-71.43
-75.31
-75.71
-71.59
-62.70
-49.61
-33.64
-16.57
-0.23
13.82
24.64
31.88
35.71
36.64
35.28
32.23
28.08
23.43
18.93
15.26
12.96
12.31
13.16
14.98
17.00
18.49
19.04
18.67
17.71
16.52
15.22
13.55
10.95
6.93
1.40
-5.19
-11.99
-18.08
-22.98
-26.74
-29.95
-33.44
-37.93
-43.75
-50.66
-57.86
-64.09
-67.76
-67.34
-61.72
-50.62
-34.85
-16.22
2.88
20.12
33.72
42.84
47.53
48.42
46.42
42.41
37.16
31.35
25.70
20.90
17.52
15.84
15.76
16.81
18.37
19.89
21.08
21.93
22.57
23.05
23.18
22.52
20.59
17.02
11.77
5.17
-2.11
-9.38
-16.02
-21.69
-26.40
-30.43
-34.27
-38.48
-43.57
-49.75
-56.85
-64.10
-70.18
-73.34
-71.94
-64.95
-52.41
-35.61
-16.74
1.62
17.31
29.00
36.40
40.02
40.76
39.50
36.85
33.20
28.83
24.20
19.94
16.72
15.05
15.08
16.49
18.68
20.93
22.69
23.72
24.02
23.71
22.82
21.17
18.39
14.08
8.07
0.62
-7.58
-15.57
-22.49
-27.77
-31.38
-33.66
-35.21
-36.64
-38.50
-41.21
-45.01
-49.94
-55.60
-61.07
-64.85
-65.22
-60.69
-50.58
-35.39
-16.85
2.47
19.93
33.43
42.01
45.80
45.77
43.14
39.01
34.16
29.12
24.37
20.42
17.78
16.80
17.48
19.44
21.99
24.39
26.01
26.58
26.10
24.80
22.97
20.79
18.31
15.42
11.91
7.61
2.48
-3.37
-9.57
-15.67
-21.19
-25.77
-29.34
-32.09
-34.54
-37.32
-41.08
-46.30
-52.99
-60.65
-68.05
-73.47
-74.94
-70.86
-60.56
-44.62
-24.93
-4.16
14.88
30.00
40.07
45.06
45.77
43.44
39.29
34.27
29.01
23.85
19.02
14.74
11.26
8.83
7.58
7.44
8.12
9.17
10.08
10.45
10.04
8.82
6.90
4.55
2.02
-0.49
-2.92
-5.44
-8.33
-11.82
-15.90
-20.28
-24.44
-27.87
-30.30
-31.87
-33.04
-34.42
-36.61
-39.94
-44.32
-49.16
-53.34
-55.36
-53.73
-47.42
-36.33
-21.54
-5.01
10.93
24.34
34.16
40.37
43.72
45.18
45.41
44.60
42.46
38.73
33.41
27.10
20.77
15.49
11.93
10.21
9.90
10.33
10.86
11.06
10.77
9.90
8.43
6.34
3.65
0.48
-3.09
-7.02
-11.37
-16.20
-21.45
-26.84
-31.96
-36.45
-40.18
-43.43
-46.75
-50.80
-56.09
-62.71
-70.32
-78.11
-84.87
-89.15
-89.49
-84.81
-74.71
-59.75
-41.25
-21.12
-1.39
16.19
30.50
40.99
47.51
50.13
49.00
44.77
38.42
31.45
25.79
23.52
26.11
33.81
45.24
57.90
69.55
78.52
84.39
87.80
89.88
91.51
92.83
93.21
92.04
89.82
87.28
85.00
82.94
80.48
76.84
71.58
64.78
57.36
51.44
48.27
47.81
48.81
49.60
49.11
47.26
44.77
36.34
19.64
-4.86
-33.74
-62.43
-87.23
-106.04
-117.22
-122.36
-122.55
-116.79
-103.58
-80.94
-46.77
-0.31
57.26
122.15
188.07
247.59
294.75
325.07
337.70
335.25
322.33
303.53
281.84
258.45
233.31
206.86
178.29
147.64
115.46
81.87
46.19
7.14
-35.76
-82.24
-130.22
-179.41
-228.65
-276.30
-321.12
-362.92
-402.88
-442.32
-483.75
-528.56
-579.47
-634.74
-687.79
-729.37
-751.44
-750.86
-729.55
-695.65
-636.45
-551.67
-450.64
-348.28
-257.39
-184.07
-135.61
-105.25
-86.78
-74.95
-68.74
-66.36
-64.13
-59.30
-50.36
-37.47
-20.69
-1.70
18.38
36.59
51.67
64.28
75.98
88.42
102.25
118.10
134.98
151.96
166.80
178.46
187.23
194.36
201.60
210.59
223.07
239.29
258.27
276.67
290.20
294.70
287.30
267.67
238.23
203.89
170.16
142.03
122.48
112.36
110.72
115.32
123.39
132.15
139.32
143.18
142.86
138.35
130.23
119.47
107.25
94.67
82.69
71.98
62.96
55.81
50.53
46.99
44.98
44.17
44.15
44.51
44.92
45.14
45.01
44.37
43.06
40.92
37.87
33.94
29.27
24.07
18.48
12.54
6.30
-0.17
-6.68
-12.99
-19.01
-24.89
-31.07
-38.14
-46.61
-56.68
-67.91
-79.14
-88.50
-93.77
-92.89
-84.61
-69.03
-47.72
-23.40
0.69
21.71
37.87
48.61
54.45
56.52
56.08
54.15
51.49
48.63
46.00
43.96
42.89
42.99
44.35
46.80
49.99
53.43
56.55
58.82
59.78
59.20
57.09
53.69
49.36
44.44
39.12
33.44
27.33
20.73
13.72
6.51
-0.61
-7.42
-13.83
-19.92
-25.88
-32.05
-38.85
-46.74
-55.97
-66.34
-76.89
-85.88
-91.11
-90.51
-82.91
-68.41
-48.48
-25.54
-2.32
18.82
36.33
49.53
58.51
63.96
66.84
68.22
69.19
70.59
73.02
76.67
81.34
86.55
91.70
96.32
100.15
103.28
105.93
108.29
110.33
111.76
112.14
111.12
108.54
104.44
98.99
92.33
84.58
75.88
66.44
56.59
46.68
36.98
27.61
18.58
9.90
1.69
-5.86
-12.64
-18.75
-24.61
-30.73
-37.39
-44.26
-50.20
-53.31
-51.58
-43.55
-29.05
-9.52
12.30
33.17
50.31
62.38
69.70
73.96
77.33
81.54
87.17
93.66
99.87
104.73
107.94
110.09
112.22
115.37
120.18
127.00
136.09
147.59
161.01
174.78
186.17
192.04
190.15
180.19
164.04
144.94
126.03
109.26
95.14
83.13
72.53
62.80
53.22
42.37
27.94
6.87
-23.85
-66.09
-119.48
-180.30
-241.03
-291.26
-320.24
-320.39
-290.52
-236.62
-169.81
-102.13
-42.30
6.50
45.90
79.61
110.43
138.60
162.19
178.61
186.25
185.16
176.75
162.96
145.71
126.35
105.84
84.91
64.23
44.50
26.50
10.93
-1.92
-12.32
-21.09
-29.33
-38.12
-48.23
-60.11
-73.96
-89.84
-107.69
-127.32
-148.55
-171.15
-195.01
-220.15
-246.70
-274.92
-305.49
-339.76
-379.43
-425.53
-476.72
-528.19
-571.90
-598.78
-602.03
-579.88
-536.47
-480.10
-419.98
-363.09
-312.76
-269.10
-230.81
-196.72
-166.34
-139.53
-115.75
-93.80
-72.23
-50.09
-27.32
-4.66
16.82
36.60
55.27
74.56
96.60
122.70
152.30
182.53
208.91
226.97
234.00
230.07
217.92
201.69
185.30
171.20
159.99
150.94
142.89
134.98
126.92
118.83
110.84
102.96
94.98
86.62
77.64
68.09
58.37
49.30
41.98
37.59
37.08
40.83
48.47
58.87
70.52
81.88
91.72
99.27
104.15
106.29
105.79
102.92
98.00
91.62
84.60
77.84
72.13
67.92
65.26
63.91
63.50
63.52
63.70
64.02
64.47
64.88
64.75
63.44
60.56
56.40
51.34
46.42
42.95
41.90
43.64
47.80
53.50
59.60
64.62
65.34
58.47
41.66
14.55
-20.94
-61.01
-101.49
-139.32
-173.51
-206.63
-240.70
-275.35
-307.65
-333.88
-351.85
-362.15
-367.39
-370.27
-374.16
-378.94
-381.52
-378.04
-366.53
-348.08
-326.14
-304.50
-271.46
-222.28
-159.35
-91.71
-29.79
19.61
54.94
77.91
90.17
96.12
97.48
96.30
95.30
97.19
103.66
115.79
132.18
150.00
164.85
172.53
172.09
166.00
158.21
152.52
152.79
160.71
175.56
192.63
207.20
216.77
221.92
224.73
228.20
237.27
255.65
284.65
320.22
358.74
397.60
435.42
469.77
484.49
467.69
416.94
359.12
306.71
265.38
231.45
204.08
181.52
161.49
143.93
129.31
117.73
105.41
90.53
72.60
52.70
31.59
9.99
-9.61
-24.99
-35.05
-42.49
-48.88
-54.86
-59.83
-63.44
-65.39
-64.36
-59.34
-50.13
-38.99
-27.53
-16.68
-6.50
2.86
11.36
19.53
27.79
36.22
43.75
49.68
53.70
55.99
56.68
55.91
53.98
51.05
47.17
41.98
35.37
27.56
18.97
10.01
0.96
-8.16
-17.54
-27.53
-38.36
-50.08
-62.40
-74.81
-86.85
-98.25
-109.18
-120.19
-132.03
-145.35
-160.40
-177.03
-194.67
-212.59
-230.23
-247.41
-264.47
-282.34
-302.45
-326.30
-354.74
-387.12
-420.81
-451.56
-474.65
-486.37
-485.19
-472.11
-450.09
-422.77
-393.25
-363.24
-333.11
-302.52
-271.16
-239.36
-208.41
-180.30
-157.19
-140.80
-131.91
-130.31
-134.78
-143.60
-154.64
-165.47
-173.55
-176.78
-173.88
-164.74
-150.21
-131.48
-109.51
-85.18
-59.66
-35.20
-15.52
-4.86
-6.56
-21.15
-45.56
-73.95
-99.64
-117.43
-124.91
-122.52
-112.28
-96.34
-76.17
-52.52
-26.08
1.94
29.85
56.24
80.82
104.55
128.99
155.14
182.68
210.17
235.68
257.57
274.84
287.13
294.64
298.15
299.45
301.07
305.49
314.10
326.20
339.16
349.50
354.33
352.06
342.00
323.35
294.77
255.61
207.86
157.64
114.68
89.39
89.19
115.96
165.92
231.74
305.05
377.87
442.84
492.75
521.09
523.76
501.11
458.69
405.95
353.05
307.52
272.51
247.29
229.09
215.24
204.23
195.47
188.64
183.01
177.52
171.17
163.50
154.64
145.23
135.87
126.48
116.41
104.65
90.18
72.43
51.56
28.38
4.08
-20.35
-44.75
-69.69
-96.20
-125.21
-157.00
-190.90
-225.35
-258.43
-288.52
-315.45
-340.07
-363.90
-388.35
-414.23
-441.28
-468.41
-494.10
-517.17
-538.38
-559.04
-580.53
-604.03
-630.87
-662.51
-699.76
-741.40
-783.13
-819.66
-843.50
-847.15
-826.08
-781.19
-718.62
-646.86
-573.44
-502.77
-439.40
-384.68
-337.49
-295.27
-255.89
-217.99
-180.37
-141.83
-101.62
-64.17
-33.25
-10.49
5.11
15.02
20.09
20.86
17.48
36.52
87.62
162.38
239.31
299.00
332.66
341.19
330.96
309.23
282.18
250.07
213.35
172.58
132.70
98.28
72.17
56.01
49.98
53.29
61.38
71.05
81.72
95.79
116.70
141.86
168.84
194.80
216.96
230.99
234.26
226.46
209.45
185.40
156.75
125.97
94.83
64.50
35.06
7.10
-17.86
-37.61
-50.42
-53.45
-44.87
-24.99
3.72
37.55
73.18
108.37
141.76
172.46
203.89
238.56
276.31
313.96
347.45
374.09
393.14
405.37
412.35
422.53
442.03
472.29
509.41
547.32
581.53
610.23
633.55
652.74
677.85
715.60
766.52
824.01
878.60
922.81
952.82
967.68
913.30
763.76
528.51
250.82
-19.83
-251.59
-434.16
-570.84
-670.32
-740.35
-776.58
-780.16
-755.35
-711.91
-661.59
-613.58
-572.79
-541.02
-515.57
-485.53
-444.65
-391.79
-332.47
-275.00
-225.87
-187.85
-161.08
-140.55
-116.05
-79.84
-28.54
35.77
108.46
185.44
264.01
328.02
363.28
361.40
322.72
257.24
179.00
100.90
31.68
-19.43
-57.38
-85.43
-104.44
-114.39
-115.61
-110.25
-101.86
-95.19
-93.16
-97.65
-105.90
-114.04
-118.91
-119.22
-115.94
-111.27
-107.35
-105.31
-105.95
-107.29
-107.11
-103.76
-96.65
-86.28
-73.78
-60.43
-47.27
-35.62
-25.45
-16.52
-8.56
-1.43
4.77
9.74
13.09
14.57
13.88
11.55
8.39
5.38
3.37
2.76
3.30
4.18
4.31
2.74
-0.91
-6.39
-12.90
-19.30
-24.59
-28.39
-31.00
-33.16
-35.55
-38.57
-42.21
-46.07
-49.36
-51.40
-52.04
-51.70
-51.08
-50.74
-50.98
-51.83
-52.98
-53.35
-51.46
-45.64
-34.36
-16.47
8.44
39.57
73.51
103.53
122.66
127.12
118.12
99.89
77.18
53.74
32.06
13.60
-0.20
-7.44
-6.74
1.45
14.57
28.13
37.14
38.24
31.11
18.29
6.24
1.23
5.96
18.49
33.97
47.81
58.01
64.89
69.87
74.63
78.05
78.10
73.31
63.92
51.86
39.74
29.31
20.99
14.06
6.98
-1.45
-11.45
-22.26
-32.57
-39.51
-41.67
-39.14
-33.09
-25.42
-17.78
-11.08
-5.50
-0.66
3.90
8.16
11.99
15.23
17.67
19.21
19.72
19.22
17.93
16.38
15.15
14.81
15.64
17.46
19.88
22.51
25.22
28.00
30.76
32.89
33.35
31.10
25.69
17.56
8.01
-1.26
-8.62
-13.08
-14.47
-13.58
-11.89
-11.17
-13.15
-19.03
-29.14
-42.69
-57.89
-72.31
-83.56
-89.78
-89.96
-84.17
-73.56
-60.06
-45.90
-33.12
-23.12
-16.87
-14.20
-13.89
-14.19
-13.60
-11.57
-8.63
-6.16
-5.80
-9.96
-20.00
-35.82
-56.07
-79.02
-103.02
-126.50
-147.84
-165.04
-177.75
-185.29
-186.83
-181.97
-171.66
-158.43
-145.48
-135.72
-130.76
-132.92
-142.53
-157.61
-174.35
-188.41
-195.89
-194.04
-181.93
-148.26
-91.93
-21.92
46.90
102.82
142.05
166.89
181.22
186.68
184.72
174.25
156.40
135.21
116.32
103.92
99.08
102.05
110.94
123.85
137.88
151.46
163.39
173.35
180.28
182.61
179.52
171.52
160.62
146.83
131.29
115.11
99.30
84.29
70.13
56.83
44.47
33.68
24.85
18.70
15.71
15.96
18.80
22.88
26.37
27.09
23.12
13.15
-2.45
-21.37
-39.52
-52.15
-55.47
-48.05
-31.51
-9.79
12.42
31.49
45.75
55.45
61.94
66.52
69.85
71.88
72.43
71.71
70.44
69.41
68.92
68.33
66.20
60.91
51.45
38.07
22.43
7.19
-4.89
-11.91
-13.44
-10.63
-5.69
-1.17
0.90
-0.47
-5.06
-11.53
-17.91
-22.19
-22.89
-19.50
-12.66
-4.00
4.26
9.83
10.81
6.02
-4.71
-20.51
-39.57
-59.46
-77.63
-91.97
-101.16
-104.93
-103.97
-99.64
-93.67
-87.89
-83.92
-82.90
-85.27
-90.59
-97.37
-103.26
-105.46
-101.43
-89.78
-70.94
-47.49
-23.62
-4.03
7.47
9.19
1.92
-11.53
-27.40
-42.12
-52.93
-58.06
-56.76
-49.19
-36.49
-20.56
-3.72
11.92
24.89
34.77
41.99
47.34
51.42
54.50
56.70
58.17
59.05
58.91
56.68
50.82
39.85
23.22
1.96
-21.24
-42.62
-58.63
-67.67
-69.86
-66.79
-60.66
-53.71
-47.70
-43.79
-42.80
-45.38
-53.51
-68.11
-88.26
-111.19
-133.20
-150.98
-162.51
-167.31
-166.36
-163.54
-161.80
-161.92
-162.69
-162.33
-160.01
-156.69
-155.01
-158.29
-171.83
-197.05
-229.87
-261.92
-284.12
-290.61
-280.61
-258.10
-212.16
-143.07
-60.30
21.46
90.18
140.66
172.93
189.42
193.44
188.91
177.06
160.19
141.35
123.46
108.23
95.65
84.85
74.67
65.82
57.57
50.86
47.41
48.58
54.07
61.16
65.79
64.16
55.43
40.30
23.27
10.31
6.61
14.96
34.88
61.70
89.64
115.04
135.41
151.37
164.52
176.39
188.04
199.61
211.18
222.50
235.33
242.33
237.60
216.95
180.17
131.89
78.93
35.83
4.65
-15.46
-26.59
-30.05
-26.99
-22.30
-18.23
-15.97
-15.65
-17.74
-20.88
-23.61
-23.89
-20.44
-12.73
-0.51
15.24
32.61
48.19
59.73
65.85
66.82
63.80
58.34
52.19
46.26
40.78
35.16
29.64
24.81
21.49
20.06
20.26
21.58
23.27
24.75
25.64
26.21
26.89
27.82
28.56
28.27
26.22
22.11
16.34
9.83
3.84
-0.65
-3.18
-3.80
-2.75
-0.23
3.58
8.35
13.46
18.17
21.91
24.56
26.53
28.42
30.51
32.40
32.94
30.62
24.12
12.77
-3.21
-22.90
-44.97
-68.10
-91.20
-113.55
-134.61
-153.80
-170.24
-182.67
-189.60
-189.66
-182.16
-167.46
-146.94
-122.73
-97.06
-71.62
-47.30
-24.29
-2.44
18.19
37.18
53.77
67.24
77.22
83.73
87.14
87.84
86.12
82.17
76.25
68.87
60.86
53.12
46.45
41.29
37.70
35.46
34.21
33.54
33.05
32.32
31.02
29.06
26.64
24.23
22.37
21.30
20.78
20.07
18.09
13.83
6.87
-2.43
-12.84
-22.55
-29.68
-32.84
-31.52
-26.20
-18.13
-8.93
-0.12
7.24
12.65
16.21
18.30
19.53
20.47
21.59
23.13
25.06
27.13
28.86
29.80
29.71
28.72
27.42
26.74
27.63
30.73
36.09
43.10
50.62
57.34
62.01
63.81
62.34
57.75
50.64
41.89
32.44
23.00
13.97
5.43
-2.53
-9.64
-15.25
-18.43
-18.25
-14.28
-6.92
2.37
11.29
17.36
18.58
14.15
4.67
-8.16
-22.28
-35.99
-48.31
-59.00
-68.00
-75.00
-79.33
-80.10
-76.71
-69.21
-58.49
-46.08
-33.89
-23.69
-16.77
-13.63
-13.90
-16.45
-19.86
-22.78
-24.35
-24.37
-23.12
-21.03
-18.40
-15.39
-12.05
-8.63
-5.63
-3.79
-3.94
-6.67
-12.24
-20.43
-30.51
-41.25
-50.97
-57.69
-59.41
-54.60
-42.72
-24.53
-2.06
21.89
44.58
63.97
78.97
89.17
94.32
94.01
87.86
76.12
60.20
42.75
26.95
15.37
8.96
6.80
6.72
6.44
4.66
1.40
-2.36
-5.42
-7.12
-7.66
-7.93
-9.24
-12.92
-20.07
-31.28
-46.28
-63.59
-80.52
-93.56
-99.37
-95.82
-82.86
-62.63
-38.95
-16.15
2.03
13.26
16.97
14.09
6.68
-2.77
-11.83
-18.59
-21.94
-21.61
-18.09
-12.35
-5.69
0.58
5.45
8.56
10.29
11.67
13.94
17.95
23.79
30.71
37.51
43.12
47.07
49.48
50.69
50.86
49.72
46.81
41.86
35.34
28.39
22.46
18.76
17.82
19.40
22.77
26.90
30.43
31.59
28.24
18.55
2.24
-18.44
-38.59
-52.00
-53.59
-41.77
-19.29
7.70
32.44
50.31
60.43
65.19
68.14
71.65
75.67
78.13
76.70
70.59
61.28
51.89
45.50
43.56
45.15
47.46
47.11
41.84
31.27
16.78
0.51
-15.60
-30.36
-43.19
-53.70
-61.44
-65.73
-65.98
-62.21
-55.28
-46.97
-39.42
-34.58
-33.65
-37.24
-44.94
-55.47
-67.11
-78.49
-89.30
-100.25
-112.73
-127.68
-145.88
-166.15
-185.49
-200.35
-208.38
-209.39
-204.98
-197.15
-187.08
-177.04
-168.36
-161.58
-156.87
-154.48
-154.52
-156.31
-158.47
-159.49
-162.27
-170.18
-185.09
-206.15
-230.57
-255.15
-277.49
-296.53
-312.03
-328.24
-347.68
-368.97
-387.30
-397.30
-395.85
-383.00
-361.49
-306.23
-208.18
-77.03
62.39
184.58
275.48
333.97
366.66
382.13
385.35
378.38
362.13
338.91
312.96
288.86
269.41
257.75
253.01
252.93
251.82
245.54
233.90
220.64
211.16
209.82
218.11
234.35
254.95
272.98
281.94
278.28
262.16
236.90
207.17
177.40
150.29
126.55
103.87
78.60
48.69
14.23
-22.31
-56.72
-84.21
-100.93
-104.89
-96.93
-80.11
-58.63
-36.75
-17.63
-2.82
7.88
15.91
23.28
31.64
41.60
52.54
62.90
70.94
75.61
77.01
76.49
76.08
77.68
82.25
89.30
96.98
102.67
103.87
99.12
88.45
73.41
56.57
40.73
28.21
20.28
17.02
17.50
20.14
23.13
24.76
23.62
18.84
10.44
-0.41
-11.45
-19.95
-23.78
-22.48
-17.70
-12.67
-10.92
-14.76
-24.41
-37.91
-51.99
-63.16
-68.89
-68.25
-62.14
-53.08
-44.58
-40.25
-42.67
-52.35
-67.38
-83.95
-97.64
-105.09
-105.14
-99.16
-90.44
-83.02
-80.13
-83.19
-91.45
-102.41
-112.56
-118.37
-117.14
-107.65
-90.53
-67.84
-42.49
-17.60
3.97
20.09
29.67
32.81
30.75
25.02
17.72
11.03
6.59
4.86
5.20
6.38
7.40
8.03
7.77
6.96
6.37
6.44
6.47
4.84
0.16
-7.69
-16.97
-26.43
-34.22
-39.02
-41.19
-43.32
-49.27
-62.09
-82.80
-110.22
-143.95
-182.09
-221.01
-255.68
-280.86
-292.58
-288.73
-270.28
-227.25
-161.10
-83.39
-10.39
45.93
82.23
101.25
108.30
108.09
104.22
97.12
87.67
77.81
69.87
65.40
63.84
65.29
69.88
78.19
89.45
104.07
123.55
149.51
182.19
216.38
245.85
264.46
268.27
255.50
228.59
193.11
155.85
122.67
97.00
80.15
70.91
67.57
65.66
61.69
53.77
41.85
27.20
11.57
-3.16
-15.80
-25.73
-32.95
-37.29
-38.80
-38.02
-36.29
-35.31
-36.18
-39.17
-42.72
-45.21
-45.07
-41.60
-35.09
-26.57
-17.37
-8.38
0.06
8.24
16.48
24.97
33.35
40.58
45.39
46.83
44.85
40.35
34.94
30.17
27.25
26.58
27.57
28.78
28.11
23.54
13.90
-0.23
-16.27
-30.21
-38.13
-37.93
-30.40
-18.88
-7.72
-0.31
2.10
0.33
-4.03
-10.03
-18.19
-29.93
-46.32
-66.86
-89.21
-109.89
-125.60
-134.13
-134.67
-127.41
-112.90
-91.87
-65.37
-35.19
-3.89
25.49
50.32
69.02
81.39
88.21
90.70
89.94
86.66
81.35
74.44
66.45
57.99
49.76
42.51
37.00
33.94
33.92
37.08
43.00
50.49
57.70
62.46
63.01
58.83
51.21
43.21
38.70
40.71
49.79
63.27
75.85
81.61
76.42
59.66
34.33
5.78
-20.61
-41.27
-55.44
-64.70
-71.70
-78.62
-86.20
-93.51
-98.52
-98.98
-93.26
-80.97
-63.08
-41.88
-20.52
-2.44
9.43
13.49
10.13
1.85
-7.34
-13.10
-12.13
-3.32
12.02
30.64
48.52
62.12
69.42
70.26
65.97
58.67
50.27
41.91
33.83
25.71
17.07
7.69
-2.36
-12.80
-23.38
-33.82
-43.67
-52.15
-58.28
-61.44
-61.98
-61.42
-62.14
-66.32
-74.70
-85.80
-96.17
-101.52
-98.56
-86.41
-67.15
-45.13
-25.30
-11.46
-4.97
-4.75
-8.07
-11.93
-14.26
-14.48
-13.23
-11.65
-10.52
-9.94
-9.55
-8.89
-7.74
-6.02
-3.45
0.44
6.06
13.15
20.43
25.90
27.78
25.66
21.09
17.00
16.27
20.03
26.87
33.34
35.47
30.46
17.52
-2.07
-25.67
-50.08
-72.05
-88.70
-97.78
-98.12
-89.88
-74.73
-55.31
-34.56
-14.84
2.43
16.77
28.29
37.35
44.39
49.83
54.18
58.11
62.47
68.21
76.13
86.48
98.47
110.18
118.96
122.49
119.77
111.71
100.68
89.39
79.48
70.94
62.41
52.35
40.29
27.26
15.27
6.09
0.16
-3.62
-7.21
-12.29
-19.25
-27.12
-34.38
-40.07
-44.48
-49.13
-55.80
-65.64
-78.62
-93.48
-108.16
-120.60
-129.16
-132.88
-131.31
-124.35
-112.14
-95.60
-76.16
-55.78
-36.79
-21.54
-12.00
-9.20
-12.98
-22.11
-35.40
-50.89
-65.92
-77.62
-83.85
-83.92
-78.68
-69.99
-59.86
-51.41
-46.21
-43.84
-42.73
-41.66
-40.85
-41.66
-45.50
-52.82
-65.56
-83.52
-104.34
-124.54
-141.68
-155.64
-168.23
-181.69
-197.57
-219.75
-249.48
-284.35
-318.91
-347.11
-364.44
-368.97
-361.17
-321.31
-244.25
-140.68
-32.65
59.60
126.65
168.95
191.70
200.98
201.72
193.72
177.29
154.68
130.03
107.38
89.04
75.44
65.90
60.40
56.19
51.65
47.09
44.38
45.34
50.43
58.76
69.74
82.88
95.99
107.44
116.36
122.54
126.05
127.31
122.77
112.14
96.93
78.49
58.27
37.49
17.06
-2.44
-20.91
-38.40
-54.23
-67.77
-78.71
-86.41
-89.72
-87.23
-77.90
-61.76
-40.26
-15.52
9.59
32.27
50.57
63.79
72.33
77.22
79.41
79.43
77.74
74.59
70.42
65.95
62.07
59.55
58.77
59.67
61.86
64.96
68.44
71.72
74.09
74.84
73.35
69.30
62.69
53.88
43.48
32.10
20.31
8.49
-3.15
-14.52
-25.67
-36.72
-47.92
-59.50
-71.65
-84.19
-96.40
-106.82
-113.55
-114.66
-108.71
-95.17
-74.47
-47.92
-17.44
14.70
46.25
75.28
100.61
121.89
139.65
154.97
169.07
182.82
196.46
209.43
220.52
228.21
231.33
229.69
224.47
217.99
212.77
210.34
210.32
210.50
207.75
199.44
184.36
162.93
136.54
106.82
75.08
42.32
9.55
-21.97
-50.77
-75.61
-95.88
-111.91
-124.78
-135.71
-145.42
-153.59
-158.84
-159.32
-153.64
-141.67
-124.85
-105.70
-86.91
-70.37
-56.68
-45.25
-34.93
-24.65
-13.81
-2.39
9.09
19.87
29.09
36.10
40.73
43.31
44.63
45.55
46.60
47.83
48.81
48.97
47.99
45.97
43.40
40.79
38.43
36.24
33.83
30.70
26.51
21.18
14.88
8.06
1.17
-5.45
-11.74
-17.96
-24.60
-32.14
-40.74
-49.89
-58.37
-64.47
-66.52
-63.47
-55.21
-42.63
-27.27
-10.80
5.27
19.85
32.20
41.84
48.45
52.02
52.79
51.31
48.23
44.23
39.85
35.51
31.61
28.52
26.50
25.57
25.44
25.52
25.17
23.86
21.35
17.68
13.07
7.77
1.99
-4.07
-10.13
-15.89
-21.09
-25.74
-30.26
-35.30
-41.51
-49.08
-57.52
-65.59
-71.69
-74.29
-72.45
-66.03
-55.68
-42.62
-28.35
-14.35
-1.85
8.31
15.78
20.68
23.43
24.56
24.50
23.54
21.92
19.90
17.82
16.03
14.75
14.05
13.87
14.09
14.64
15.46
16.50
17.52
18.13
17.82
16.14
12.86
8.04
2.05
-4.54
-11.19
-17.52
-23.53
-29.55
-36.17
-43.90
-52.91
-62.78
-72.44
-80.38
-84.95
-84.89
-79.63
-69.53
-55.82
-40.16
-24.28
-9.54
3.24
13.71
21.82
27.62
31.14
32.50
32.00
30.16
27.73
25.44
23.86
23.27
23.61
24.56
25.69
26.61
27.08
27.03
26.46
25.39
23.71
21.23
17.75
13.24
7.85
1.88
-4.32
-10.50
-16.65
-22.98
-29.76
-37.27
-45.63
-54.68
-63.93
-72.51
-79.30
-83.14
-83.08
-78.68
-70.17
-58.43
-44.73
-30.48
-16.91
-4.85
5.35
13.74
20.58
26.10
30.42
33.54
35.42
36.13
35.88
34.98
33.67
32.05
30.04
27.52
24.53
21.28
18.16
15.49
13.25
11.02
7.97
3.28
-3.64
-12.73
-23.34
-34.32
-44.39
-52.44
-57.80
-60.29
-60.16
-57.93
-54.19
-49.25
-43.00
-34.82
-23.80
-9.13
9.52
31.72
56.32
81.71
106.23
128.29
146.52
159.76
167.17
168.49
164.43
156.75
148.13
141.45
138.97
141.48
147.86
155.28
160.16
159.37
151.48
137.40
120.26
104.30
93.47
90.01
93.67
102.02
111.49
118.59
120.96
117.68
109.00
95.81
79.27
60.56
40.96
21.87
4.77
-9.05
-18.82
-24.49
-26.67
-26.47
-25.10
-23.65
-22.87
-23.19
-24.72
-27.46
-31.27
-35.98
-41.41
-47.28
-53.37
-59.48
-65.50
-71.19
-76.14
-79.61
-80.83
-79.33
-75.34
-69.85
-64.26
-59.82
-57.08
-55.87
-55.49
-55.27
-54.98
-54.73
-54.64
-54.33
-52.76
-48.55
-40.84
-29.83
-17.07
-4.80
5.01
11.54
15.45
18.37
22.01
27.33
34.28
42.06
49.78
56.85
63.08
68.37
72.40
74.60
74.27
71.03
64.94
56.52
46.61
36.01
25.40
15.26
5.90
-2.57
-10.14
-16.99
-23.32
-29.28
-34.97
-40.40
-45.80
-51.58
-58.29
-66.37
-75.81
-86.11
-96.42
-105.98
-114.53
-122.39
-130.18
-138.28
-146.32
-153.10
-156.98
-156.45
-150.81
-140.38
-126.45
-110.84
-95.43
-81.80
-71.07
-63.78
-59.92
-58.98
-59.95
-61.46
-62.10
-60.68
-56.55
-49.79
-41.14
-31.74
-22.84
-15.32
-9.58
-5.43
-2.37
0.12
2.26
3.93
4.83
4.74
3.78
2.44
1.33
0.97
1.61
3.15
5.19
7.05
7.74
6.27
1.99
-4.94
-13.31
-21.12
-26.31
-27.59
-24.99
-19.76
-13.74
-8.48
-4.80
-2.76
-2.11
-2.78
-5.03
-9.22
-15.48
-23.44
-32.19
-40.57
-47.55
-52.49
-55.37
-56.69
-57.27
-57.97
-59.34
-61.52
-64.34
-67.52
-70.95
-74.72
-79.08
-84.28
-90.29
-96.88
-103.79
-110.86
-118.11
-125.41
-132.22
-137.28
-138.88
-135.43
-126.16
-111.58
-93.44
-74.27
-56.58
-42.17
-31.68
-24.65
-19.86
-15.81
-11.27
-5.59
1.19
8.35
14.79
19.44
21.71
21.79
20.72
19.93
20.67
23.48
27.99
33.28
38.45
43.08
47.20
50.81
53.36
53.65
50.46
43.25
32.89
21.43
11.30
4.29
0.93
0.76
3.08
7.62
14.65
24.47
36.73
50.04
62.38
71.79
77.19
78.59
76.96
73.59
69.63
65.83
62.56
59.93
57.93
56.45
55.35
54.50
53.88
53.51
53.38
53.33
53.03
52.23
50.92
49.43
48.22
47.59
47.39
47.02
45.61
42.49
37.37
30.52
22.59
14.63
7.94
3.94
3.90
8.58
17.87
30.68
45.29
59.85
73.04
84.20
93.21
100.01
104.37
105.87
104.22
99.65
93.03
85.70
78.98
73.83
70.54
68.89
68.31
68.16
67.84
66.92
65.14
62.41
58.75
54.27
48.99
42.89
35.97
28.31
20.14
11.72
3.21
-5.44
-14.34
-23.32
-31.65
-38.02
-40.88
-39.17
-32.85
-23.04
-11.55
-0.26
9.48
16.99
22.09
24.82
25.21
23.43
20.04
16.00
12.52
10.58
10.69
12.75
16.40
21.35
27.73
36.03
46.74
59.94
74.97
90.48
104.75
116.17
123.62
126.76
126.18
123.33
120.33
119.36
121.96
128.13
135.88
141.39
140.11
128.37
104.79
70.99
31.09
-9.59
-46.15
-75.24
-95.50
-107.14
-111.38
-109.82
-104.15
-96.29
-88.31
-82.37
-80.21
-82.69
-89.42
-98.86
-108.84
-117.21
-122.54
-124.49
-123.66
-121.21
-118.19
-115.15
-111.98
-108.24
-103.45
-97.45
-90.63
-83.62
-77.13
-71.57
-66.98
-63.07
-59.57
-56.34
-53.59
-51.62
-50.61
-50.36
-50.15
-48.89
-45.47
-39.24
-30.35
-19.82
-9.25
-0.18
6.38
10.30
12.13
12.64
12.45
11.80
10.65
8.98
7.03
5.21
3.95
3.39
3.21
2.85
1.65
-0.85
-4.77
-9.92
-15.96
-22.45
-29.04
-35.43
-41.32
-46.52
-50.89
-54.44
-57.40
-60.10
-62.88
-65.79
-68.47
-70.11
-69.75
-66.70
-60.97
-53.46
-45.78
-39.65
-36.29
-35.93
-37.72
-40.22
-42.07
-42.68
-42.48
-42.56
-44.00
-47.22
-51.74
-56.56
-60.96
-64.95
-69.32
-75.02
-82.31
-90.36
-97.51
-102.18
-103.71
-102.61
-100.04
-96.81
-92.43
-85.20
-73.01
-54.56
-30.20
-1.96
27.41
55.76
82.26
107.04
129.93
149.56
163.47
169.42
167.27
159.61
150.64
143.69
138.98
133.40
122.38
103.06
76.40
46.95
20.42
0.59
-12.45
-21.66
-30.72
-41.58
-53.45
-63.66
-69.43
-69.45
-64.54
-56.90
-49.06
-42.75
-38.50
-35.79
-33.70
-31.39
-28.57
-25.45
-22.75
-21.37
-22.21
-25.75
-31.71
-38.91
-45.30
-48.56
-46.93
-39.89
-28.45
-14.72
-1.11
10.62
19.73
26.61
32.20
37.41
42.81
48.45
53.98
58.80
62.20
63.54
62.37
58.69
53.03
46.42
40.05
34.84
31.09
28.50
26.37
24.00
20.98
17.16
12.57
7.21
1.02
-6.07
-14.05
-22.97
-32.90
-43.86
-55.59
-67.13
-76.85
-82.77
-83.27
-77.91
-67.72
-54.91
-42.06
-31.39
-24.23
-21.09
-21.95
-26.53
-34.46
-45.30
-58.38
-72.80
-87.54
-101.71
-114.65
-126.07
-135.84
-143.83
-149.70
-152.59
-151.17
-144.26
-131.69
-114.79
-96.11
-78.39
-63.34
-51.32
-41.21
-31.31
-20.74
-10.09
-0.91
5.65
9.88
13.39
17.37
22.13
26.93
30.78
33.50
36.30
41.32
50.04
61.91
73.33
80.17
80.19
74.48
66.80
61.62
61.97
67.95
81.33
99.43
116.83
128.18
131.78
130.08
127.07
125.29
123.91
119.51
107.40
84.84
52.93
16.73
-16.68
-41.26
-53.44
-54.20
-48.62
-43.83
-44.76
-51.47
-59.21
-61.19
-52.07
-30.16
2.19
40.08
77.60
109.77
133.28
146.44
148.91
141.39
125.69
104.20
79.49
53.58
28.17
4.91
-14.24
-27.13
-31.88
-27.56
-14.86
3.84
24.77
43.88
57.89
65.22
66.27
62.87
57.23
50.90
44.19
36.55
27.23
16.04
3.51
-9.31
-21.34
-31.66
-39.54
-44.29
-45.35
-42.62
-36.82
-29.49
-22.27
-16.11
-10.66
-4.07
6.32
23.02
47.32
78.54
113.72
148.29
177.10
195.93
202.76
198.35
185.51
167.59
146.73
123.25
96.36
65.73
32.91
1.68
-23.22
-38.08
-41.89
-36.64
-26.24
-14.41
-3.53
5.56
12.76
17.30
17.18
9.38
-8.85
-38.15
-75.52
-114.78
-147.79
-166.82
-166.98
-147.70
-112.80
-69.37
-25.37
13.41
43.99
66.59
83.80
99.02
115.07
133.00
151.51
167.40
177.71
180.11
174.26
162.12
147.18
133.16
122.20
113.83
100.80
77.97
43.48
0.20
-45.65
-87.69
-121.81
-146.64
-162.83
-174.08
-181.33
-184.43
-183.25
-178.39
-171.16
-162.90
-154.43
-146.44
-137.52
-126.78
-114.86
-103.45
-94.29
-88.07
-83.88
-77.92
-67.03
-49.79
-26.81
-1.25
22.66
41.32
52.82
57.36
57.22
56.47
58.65
66.75
81.79
102.06
123.29
139.82
146.72
141.53
124.98
98.79
68.00
38.04
12.57
-7.53
-23.64
-37.84
-51.40
-64.36
-75.77
-84.04
-87.96
-86.73
-79.64
-66.29
-47.22
-24.68
-2.68
14.25
23.29
24.40
20.21
14.58
10.36
8.15
6.62
3.97
-0.32
-4.98
-7.92
-7.94
-5.83
-3.94
-4.89
-10.23
-19.70
-31.59
-43.86
-55.19
-65.61
-76.46
-89.40
-105.53
-124.77
-145.65
-165.61
-181.77
-191.93
-195.42
-193.51
-188.26
-181.75
-175.74
-171.61
-170.15
-171.23
-172.94
-171.95
-165.31
-150.33
-125.68
-92.74
-55.57
-19.70
9.56
30.02
42.84
50.46
57.74
70.52
92.58
124.73
165.09
210.16
257.19
302.87
339.97
361.26
361.63
338.14
292.17
230.58
164.98
110.84
81.29
79.45
101.87
141.00
185.87
226.20
256.04
262.86
242.64
220.35
208.90
202.98
196.66
183.54
159.97
126.45
86.84
48.31
16.81
-8.28
-28.55
-44.13
-55.58
-64.01
-71.65
-81.80
-95.74
-112.36
-129.95
-142.91
-143.70
-128.60
-100.16
-66.52
-38.07
-22.30
-22.26
-38.37
-67.81
-105.85
-148.11
-190.27
-227.46
-254.15
-264.81
-256.31
-230.15
-191.13
-145.57
-99.75
-58.31
-23.66
3.66
24.44
39.75
50.32
57.02
60.92
63.15
64.72
66.34
68.30
70.70
73.60
77.00
80.76
84.46
87.43
88.85
88.14
85.02
79.67
72.57
64.36
55.67
47.06
38.94
31.57
25.09
19.56
15.00
11.35
8.47
6.13
4.00
1.85
-0.35
-2.27
-3.29
-2.73
-0.11
4.52
10.56
16.92
22.45
26.18
27.63
26.83
24.22
20.53
16.45
12.50
8.89
5.49
1.96
-2.14
-7.13
-13.09
-19.71
-26.36
-32.16
-36.24
-37.92
-36.99
-33.74
-29.04
-24.10
-20.24
-18.54
-19.52
-23.01
-28.18
-33.74
-38.29
-40.61
-39.89
-35.81
-28.64
-19.14
-8.61
1.37
9.20
13.86
15.32
14.67
13.76
14.47
17.96
24.14
31.82
39.08
44.04
45.30
42.12
34.40
22.78
8.69
-5.67
-17.81
-25.82
-29.14
-29.03
-28.23
-30.00
-36.80
-49.27
-65.94
-83.86
-100.00
-112.04
-119.06
-121.44
-120.36
-117.19
-112.92
-107.98
-102.36
-96.45
-90.24
-83.13
-74.04
-61.97
-46.71
-29.19
-11.41
4.08
13.63
14.95
7.97
-5.26
-21.70
-38.47
-53.57
-65.94
-75.26
-83.73
-92.95
-103.17
-113.35
-122.37
-130.02
-137.04
-144.61
-153.73
-167.57
-187.43
-211.59
-235.39
-253.12
-260.06
-253.98
-235.66
-193.34
-126.88
-46.68
30.91
93.28
136.85
165.26
184.29
197.25
207.19
212.01
209.21
197.94
179.69
156.74
131.19
105.37
83.11
69.70
67.41
76.29
93.94
116.72
140.43
163.06
183.01
199.08
210.56
215.60
213.33
202.07
183.33
160.05
135.36
111.51
89.91
71.31
55.29
41.50
29.89
20.94
14.44
9.38
4.24
-2.00
-9.14
-16.30
-22.12
-25.52
-25.89
-23.69
-19.99
-16.13
-13.11
-11.52
-11.67
-13.54
-16.68
-19.93
-21.97
-21.76
-19.15
-14.99
-10.80
-8.18
-8.12
-10.69
-15.03
-19.83
-23.82
-25.99
-25.76
-22.93
-17.83
-11.44
-5.39
-1.52
-1.41
-5.67
-13.63
-23.51
-32.94
-39.80
-42.68
-41.12
-35.58
-27.23
-17.71
-8.82
-2.15
1.47
2.38
2.06
2.63
5.93
12.64
22.02
32.21
41.03
46.95
49.48
49.15
47.08
44.47
42.20
40.59
39.45
38.03
35.24
29.95
21.46
9.88
-3.58
-16.92
-27.95
-35.05
-37.77
-36.90
-34.12
-31.33
-30.17
-31.61
-36.00
-43.22
-52.88
-64.44
-77.16
-90.17
-102.53
-113.36
-121.78
-126.93
-127.99
-124.36
-115.98
-103.59
-88.64
-73.05
-58.58
-46.33
-36.47
-28.66
-22.53
-18.31
-16.70
-18.34
-22.75
-27.74
-29.47
-23.75
-8.13
16.32
44.72
70.06
86.03
89.57
81.65
66.71
50.46
37.51
29.84
26.89
26.74
27.44
27.66
26.38
23.38
19.22
15.10
12.18
11.08
11.69
13.12
13.81
11.25
3.43
-9.95
-27.08
-44.46
-57.76
-63.03
-58.01
-40.08
-12.31
17.10
39.17
49.03
47.20
37.23
22.82
6.45
-10.17
-26.39
-41.29
-53.18
-60.67
-63.53
-62.88
-60.26
-57.34
-53.54
-47.80
-38.80
-24.68
-4.03
23.45
56.68
93.25
127.26
153.57
168.40
170.56
162.53
148.67
132.88
116.88
100.03
80.88
59.56
39.66
23.22
12.52
8.07
7.89
8.39
6.18
-0.28
-10.01
-20.75
-30.40
-37.04
-39.89
-39.06
-35.15
-28.84
-20.64
-10.65
1.14
13.43
25.45
36.49
45.96
53.63
59.61
64.28
68.15
71.47
73.90
75.24
75.21
73.78
71.20
67.88
64.21
60.39
56.53
52.75
49.70
48.01
47.89
48.68
48.88
46.75
41.19
32.39
21.85
11.70
3.74
-1.35
-3.92
-4.97
-5.39
-5.62
-5.73
-5.76
-5.94
-6.73
-8.51
-11.41
-15.25
-19.76
-24.84
-30.74
-37.86
-46.45
-56.27
-66.53
-76.02
-83.46
-87.73
-88.06
-84.03
-75.56
-62.96
-47.12
-29.69
-12.94
0.73
9.40
12.31
10.09
4.66
-1.49
-5.91
-6.90
-3.87
2.46
10.27
17.10
20.61
19.37
13.40
4.25
-5.42
-12.79
-15.56
-12.61
-4.03
9.04
24.78
40.95
55.19
65.44
70.33
69.57
64.16
55.99
47.34
40.23
35.73
33.88
33.94
34.90
35.96
36.60
36.42
35.03
31.92
26.62
18.76
8.12
-5.45
-21.92
-40.94
-61.71
-82.45
-100.38
-112.49
-116.70
-112.95
-103.32
-91.26
-80.24
-73.22
-71.21
-73.32
-77.52
-81.79
-84.80
-86.06
-85.65
-84.07
-83.49
-85.66
-91.13
-98.87
-106.83
-112.89
-115.82
-115.69
-113.90
-114.79
-121.52
-134.63
-151.84
-169.80
-185.90
-199.44
-211.26
-222.72
-237.62
-257.41
-280.32
-301.88
-317.11
-322.55
-317.17
-302.19
-261.61
-190.87
-97.89
-0.50
84.10
147.21
189.07
214.60
229.36
237.92
239.28
233.59
222.04
207.50
193.30
182.05
175.04
172.25
173.66
176.90
180.29
182.87
184.70
185.97
186.59
187.86
189.00
188.96
185.60
178.15
167.42
155.77
144.15
133.89
125.43
118.07
110.99
102.93
93.32
82.19
69.98
57.02
43.79
30.91
19.20
10.15
4.89
3.68
5.44
7.93
8.20
3.72
-7.01
-23.97
-45.07
-66.52
-83.65
-92.07
-88.90
-73.87
-49.55
-21.03
5.39
24.30
32.87
31.63
23.98
14.72
8.14
6.71
10.68
18.76
29.33
41.26
54.06
67.27
79.90
90.12
95.78
95.20
87.96
75.28
59.81
44.86
33.50
27.64
27.41
31.09
35.48
36.91
32.57
21.52
5.01
-13.98
-32.05
-46.57
-56.54
-62.50
-65.91
-68.31
-70.70
-73.53
-76.94
-80.96
-85.36
-89.27
-90.96
-88.16
-79.01
-62.99
-41.50
-17.68
4.63
22.13
33.13
37.76
37.57
34.58
30.68
27.38
25.80
26.71
30.32
36.06
42.30
46.66
46.42
39.73
26.25
7.29
-14.64
-36.75
-56.60
-72.52
-83.50
-89.56
-90.78
-87.35
-79.95
-70.21
-60.74
-54.61
-54.43
-61.44
-76.05
-96.50
-119.32
-140.75
-158.05
-170.39
-178.43
-183.39
-186.16
-188.40
-190.36
-190.95
-188.78
-183.41
-175.96
-168.71
-164.23
-164.38
-171.70
-185.80
-202.95
-217.29
-223.17
-217.36
-199.99
-174.10
-131.32
-72.75
-6.88
54.37
102.14
133.63
150.49
155.86
153.00
144.73
131.33
113.83
94.34
75.47
59.19
46.19
36.11
28.22
22.84
18.95
16.02
13.93
12.43
10.62
7.26
1.50
-6.17
-14.36
-22.69
-30.81
-38.22
-44.04
-46.94
-45.02
-38.27
-26.27
-9.40
10.09
29.00
44.18
53.38
55.90
52.53
45.25
36.59
28.49
21.54
15.57
10.38
6.17
3.68
3.71
6.48
11.71
18.59
26.42
35.09
45.09
56.95
70.77
85.79
100.56
113.60
123.63
129.89
132.12
130.51
125.68
118.82
111.60
105.83
102.92
103.23
105.84
108.90
110.35
108.67
103.40
95.20
85.47
75.99
68.31
63.51
61.94
63.27
66.58
70.73
74.74
78.13
80.96
83.55
86.15
88.66
90.67
91.76
91.76
90.77
88.97
86.40
82.84
78.03
72.02
65.29
58.69
53.07
48.96
46.35
44.74
43.39
41.65
39.06
35.40
30.64
24.83
18.03
10.32
1.86
-7.06
-16.02
-24.51
-32.07
-38.52
-44.07
-49.30
-54.96
-61.63
-69.54
-78.42
-87.58
-96.03
-102.63
-106.15
-105.56
-100.22
-90.28
-76.85
-61.82
-47.40
-35.45
-26.90
-21.65
-18.86
-17.45
-16.58
-15.79
-14.81
-13.31
-10.79
-6.68
-0.65
7.21
16.45
26.42
36.63
46.77
56.63
65.93
74.16
80.62
84.60
85.55
83.22
77.81
70.06
61.19
52.69
45.87
41.34
38.69
36.63
33.47
27.92
19.57
9.04
-2.31
-12.90
-21.37
-26.78
-28.74
-27.38
-23.32
-17.52
-11.04
-4.77
0.83
5.70
10.02
13.89
17.15
19.42
20.24
19.28
16.50
12.12
6.62
0.60
-5.30
-10.54
-14.74
-17.75
-19.65
-20.66
-21.04
-21.13
-21.35
-22.15
-24.06
-27.50
-32.52
-38.72
-45.27
-51.25
-55.98
-59.37
-61.95
-64.72
-68.79
-74.88
-83.15
-93.04
-103.24
-111.93
-117.20
-117.45
-111.95
-100.97
-85.77
-68.12
-49.78
-32.19
-16.23
-2.42
9.03
18.07
24.95
30.12
34.27
38.04
41.83
45.72
49.61
53.40
57.07
60.63
63.93
66.70
68.67
69.82
70.48
71.18
72.35
73.97
75.50
76.07
75.01
72.09
67.63
62.26
56.49
50.46
43.85
36.13
26.81
15.71
2.99
-10.86
-25.14
-38.94
-51.16
-60.59
-66.16
-67.19
-63.69
-56.48
-46.96
-36.74
-27.22
-19.28
-13.26
-9.11
-6.51
-5.10
-4.53
-4.53
-4.88
-5.41
-6.03
-6.65
-7.21
-7.72
-8.21
-8.76
-9.43
-10.23
-11.05
-11.73
-12.10
-12.09
-11.84
-11.74
-12.20
-13.52
-15.73
-18.48
-21.17
-23.25
-24.37
-24.65
-24.58
-24.81
-25.94
-28.42
-32.42
-37.87
-44.35
-50.98
-56.43
-59.17
-57.87
-51.94
-41.88
-29.07
-15.35
-2.40
8.74
17.71
24.58
29.56
32.77
34.32
34.40
33.42
31.96
30.63
29.85
29.77
30.19
30.74
30.98
30.66
29.74
28.42
26.99
25.65
24.37
22.86
20.66
17.39
12.89
7.43
1.56
-4.00
-8.66
-12.13
-14.63
-16.74
-19.24
-22.85
-27.96
-34.49
-41.89
-49.27
-55.48
-59.37
-59.92
-56.57
-49.33
-38.93
-26.65
-14.03
-2.55
6.77
13.51
17.75
19.93
20.66
20.56
20.15
19.87
19.95
20.41
21.08
21.65
21.87
21.70
21.27
20.91
20.88
21.21
21.66
21.77
21.01
18.98
15.51
10.65
4.63
-2.18
-9.35
-16.41
-23.04
-29.16
-35.05
-41.23
-48.19
-55.88
-63.50
-69.52
-72.20
-70.23
-63.36
-52.47
-39.26
-25.58
-12.88
-1.94
7.02
14.11
19.42
22.98
24.80
24.99
23.82
21.67
18.97
16.11
13.41
11.04
9.05
7.37
5.87
4.49
3.27
2.33
1.69
1.21
0.57
-0.60
-2.51
-5.17
-8.45
-12.31
-16.91
-22.51
-29.29
-37.05
-45.20
-52.92
-59.50
-64.57
-67.97
-69.53
-68.73
-64.77
-56.90
-44.94
-29.62
-12.53
4.36
19.29
31.24
40.10
46.40
50.94
54.32
56.78
58.17
58.18
56.64
53.64
49.63
45.17
40.78
36.71
33.00
29.61
26.61
24.23
22.64
21.76
21.13
19.89
17.21
12.58
6.05
-1.84
-10.28
-18.53
-26.12
-32.91
-39.11
-45.18
-51.77
-59.46
-68.41
-78.07
-87.09
-93.67
-96.13
-93.55
-86.01
-74.62
-60.97
-46.60
-32.64
-19.76
-8.24
1.73
10.04
16.61
21.51
24.94
27.29
28.99
30.39
31.72
33.05
34.32
35.51
36.69
38.15
40.28
43.46
47.89
53.41
59.54
65.52
70.59
74.17
76.10
76.62
76.24
75.44
74.35
72.64
69.59
64.47
56.97
47.54
37.36
28.06
21.28
18.12
18.86
22.87
28.87
35.21
40.41
43.42
43.87
42.09
38.86
35.05
31.38
28.26
25.69
23.54
21.64
19.92
18.51
17.50
16.90
16.53
16.11
15.30
13.93
12.04
9.78
7.33
4.64
1.37
-2.89
-8.45
-15.17
-22.45
-29.38
-35.21
-39.67
-43.15
-46.50
-50.74
-56.53
-63.92
-72.10
-79.59
-84.55
-85.26
-80.69
-70.74
-56.42
-39.54
-22.23
-6.39
6.76
16.71
23.65
28.02
30.38
31.15
30.55
28.69
25.54
21.08
15.37
8.60
1.23
-6.20
-13.08
-19.01
-23.85
-27.77
-31.08
-34.16
-37.20
-40.23
-43.25
-46.24
-49.35
-52.76
-56.62
-60.80
-65.01
-68.89
-72.25
-75.18
-78.04
-81.31
-85.26
-89.63
-93.58
-95.70
-94.44
-88.58
-77.62
-62.05
-43.25
-23.13
-3.68
13.56
27.74
38.74
46.93
52.82
56.77
58.88
59.12
57.46
54.14
49.69
44.90
40.64
37.53
35.86
35.53
36.08
36.83
37.06
36.08
33.53
29.34
23.83
17.55
11.12
5.02
-0.54
-5.61
-10.49
-15.50
-21.05
-27.50
-35.24
-44.38
-54.52
-64.53
-72.51
-76.34
-74.25
-65.63
-51.38
-33.79
-15.81
-0.20
11.27
18.23
21.41
22.21
22.07
22.01
22.54
23.73
25.37
27.14
28.72
29.77
30.00
29.20
27.32
24.49
21.02
17.35
13.84
10.79
8.23
5.88
3.27
-0.19
-4.92
-11.02
-18.14
-25.66
-32.83
-39.15
-44.38
-48.67
-52.42
-56.04
-59.88
-63.97
-67.97
-71.03
-71.90
-69.15
-61.59
-48.71
-31.05
-10.07
12.20
33.77
53.17
69.69
83.25
94.07
102.40
108.43
112.36
114.51
115.35
115.48
115.35
115.16
114.82
114.15
112.97
111.27
109.19
106.87
104.34
101.46
97.99
93.76
88.79
83.17
76.94
69.98
62.07
53.15
43.62
34.38
26.42
20.14
14.92
9.12
0.85
-11.13
-26.73
-44.52
-62.32
-77.96
-89.62
-95.84
-95.20
-86.29
-68.15
-41.03
-6.95
30.28
65.92
95.59
116.48
127.94
131.24
128.70
122.80
115.44
107.81
100.53
93.84
87.77
81.93
75.57
67.57
56.87
42.92
26.02
7.37
-11.11
-27.13
-38.54
-43.55
-41.17
-31.45
-15.59
4.04
24.21
41.50
52.89
56.41
51.46
38.78
20.08
-2.40
-26.24
-49.03
-68.41
-82.12
-88.43
-86.68
-77.91
-64.95
-51.69
-41.79
-37.34
-38.19
-42.37
-47.28
-50.92
-52.67
-53.04
-52.80
-52.20
-50.74
-47.69
-42.77
-36.75
-31.23
-28.07
-28.49
-32.62
-39.41
-47.11
-53.93
-58.54
-60.31
-59.19
-55.53
-49.86
-43.01
-36.19
-31.02
-29.25
-32.17
-40.06
-51.87
-65.59
-79.05
-90.71
-100.25
-108.32
-115.74
-122.59
-127.68
-128.91
-124.25
-112.79
-95.36
-74.31
-52.64
-32.90
-16.35
-2.81
8.93
20.36
32.51
45.57
59.04
71.96
83.31
92.25
98.20
100.84
100.13
96.29
89.79
81.28
71.38
60.39
48.01
33.38
15.57
-5.76
-29.65
-53.85
-75.18
-90.52
-97.76
-96.49
-88.08
-75.32
-61.65
-50.39
-44.05
-43.91
-49.77
-60.11
-72.32
-83.28
-90.11
-90.83
-84.88
-73.14
-57.51
-40.19
-22.97
-6.99
7.28
19.75
30.21
38.13
42.71
43.12
38.79
29.70
16.54
0.93
-14.68
-27.47
-34.99
-35.73
-29.45
-16.98
0.24
20.34
41.56
62.11
80.16
93.68
100.85
100.56
92.77
78.58
59.33
37.04
14.10
-7.18
-25.14
-39.24
-50.01
-58.69
-66.72
-76.42
-88.67
-102.52
-115.68
-125.70
-131.25
-132.59
-131.54
-130.80
-135.16
-147.44
-167.47
-192.47
-218.59
-242.74
-263.27
-279.63
-291.58
-301.03
-307.89
-309.89
-303.86
-287.86
-262.52
-230.71
-196.22
-145.58
-75.42
7.85
90.58
159.78
208.95
238.36
251.99
254.73
250.60
239.84
222.83
201.24
178.04
156.35
138.57
126.04
119.94
120.68
125.48
131.11
134.73
134.45
129.64
121.35
112.79
108.07
110.50
119.90
134.02
149.72
164.58
175.22
180.25
180.71
178.54
175.63
172.71
170.31
169.15
170.05
173.34
173.54
165.89
147.28
118.27
83.02
47.55
17.13
-5.33
-18.11
-23.75
-24.48
-22.27
-18.70
-15.05
-12.28
-10.91
-12.08
-15.90
-22.16
-29.69
-37.53
-45.16
-52.39
-59.19
-65.31
-70.19
-72.85
-72.60
-68.59
-60.72
-49.73
-36.97
-24.17
-12.84
-4.01
2.07
5.61
7.45
8.42
9.05
9.51
9.62
9.13
7.95
6.35
4.78
3.82
3.80
4.68
6.11
7.53
8.50
8.75
8.24
6.95
4.85
1.81
-2.34
-7.69
-14.19
-21.51
-29.11
-36.35
-42.74
-48.17
-52.91
-57.59
-62.92
-69.41
-77.08
-85.42
-93.47
-100.12
-104.15
-104.57
-100.66
-92.19
-79.55
-63.81
-46.56
-29.57
-14.28
-1.52
8.51
16.03
21.33
24.63
26.08
25.94
24.65
22.80
20.98
19.46
18.21
16.97
15.52
13.78
11.82
9.78
7.67
5.41
2.78
-0.45
-4.47
-9.30
-14.57
-19.41
-22.44
-22.12
-17.31
-7.94
4.69
18.19
29.72
36.94
38.68
35.25
28.24
20.06
13.44
10.87
14.17
24.08
39.99
59.88
80.82
99.64
113.82
122.03
124.37
121.95
116.39
109.33
102.06
95.49
90.20
86.47
84.21
83.03
82.37
81.69
80.72
79.50
78.25
77.11
75.90
74.21
71.47
67.25
61.36
53.86
45.01
35.26
25.15
15.34
6.43
-1.22
-7.69
-13.44
-19.22
-25.74
-33.34
-41.89
-50.73
-58.75
-64.67
-67.35
-66.11
-61.06
-53.02
-43.30
-33.23
-23.87
-15.74
-8.98
-3.55
0.61
3.48
5.11
5.61
5.24
4.35
3.22
2.08
1.07
0.32
-0.15
-0.32
-0.29
-0.21
-0.27
-0.61
-1.37
-2.60
-4.31
-6.46
-8.97
-11.76
-14.69
-17.62
-20.38
-22.82
-24.86
-26.57
-28.16
-29.98
-32.41
-35.76
-40.20
-45.52
-51.15
-56.15
-59.38
-59.88
-57.13
-51.36
-43.48
-34.76
-26.46
-19.47
-14.12
-10.24
-7.43
-5.31
-3.78
-2.95
-3.01
-4.02
-5.74
-7.53
-8.61
-8.20
-5.83
-1.45
4.55
11.48
18.55
25.04
30.47
34.61
37.43
39.07
39.74
39.62
38.84
37.38
35.09
31.75
27.08
20.88
13.17
4.22
-5.41
-15.10
-24.35
-32.82
-40.34
-46.63
-51.21
-53.34
-52.32
-47.86
-40.33
-30.79
-20.64
-11.24
-3.53
2.16
5.97
8.30
9.48
9.77
9.35
8.52
7.68
7.21
7.34
8.02
8.85
9.29
8.93
7.59
5.41
2.68
-0.30
-3.34
-6.41
-9.56
-12.87
-16.40
-20.21
-24.27
-28.48
-32.62
-36.33
-39.29
-41.37
-42.72
-43.78
-45.22
-47.57
-51.02
-55.18
-59.03
-61.20
-60.38
-55.80
-47.57
-36.71
-24.78
-13.32
-3.31
4.97
11.86
17.82
23.13
27.63
30.88
32.51
32.44
31.07
29.13
27.37
26.32
26.11
26.46
26.86
26.85
26.13
24.74
22.91
20.87
18.66
16.11
12.81
8.45
2.93
-3.53
-10.55
-17.71
-24.79
-31.70
-38.39
-44.80
-50.85
-56.42
-61.35
-65.28
-67.53
-67.09
-62.97
-54.58
-42.25
-27.23
-11.42
3.32
15.68
25.28
32.43
37.73
41.66
44.36
45.80
45.89
44.76
42.72
40.21
37.65
35.27
33.10
31.01
28.83
26.48
24.03
21.79
20.09
19.16
18.91
18.93
18.60
17.43
15.27
12.38
9.31
6.59
4.46
2.83
1.32
-0.57
-3.28
-7.10
-12.05
-17.71
-23.13
-26.90
-27.47
-23.68
-15.35
-3.46
10.00
22.71
32.65
38.80
41.33
41.42
40.83
41.32
44.05
49.30
56.26
63.30
68.38
69.71
66.25
58.00
45.91
31.43
16.17
1.60
-11.05
-20.83
-27.07
-29.48
-28.36
-24.49
-18.95
-12.70
-6.33
0.04
6.46
12.74
18.23
21.81
22.30
18.89
11.43
0.53
-12.65
-26.67
-39.94
-50.93
-58.24
-60.97
-59.00
-53.36
-46.11
-39.83
-36.61
-37.22
-40.70
-44.74
-46.70
-44.63
-37.87
-27.17
-14.05
-0.19
12.99
24.43
33.30
38.96
40.98
39.40
34.90
28.72
22.48
17.65
15.24
15.43
17.58
20.31
21.91
20.81
15.95
7.06
-5.34
-20.15
-35.86
-50.80
-63.37
-72.30
-77.15
-78.63
-78.66
-79.98
-85.02
-94.85
-108.41
-122.60
-133.53
-138.03
-134.93
-125.28
-111.41
-95.53
-78.63
-60.48
-40.46
-18.97
1.91
18.71
28.05
28.15
19.83
6.29
-8.16
-19.48
-24.87
-23.04
-14.04
0.94
19.65
38.81
54.71
64.03
65.07
58.44
46.97
34.70
25.35
21.10
21.79
25.35
28.68
29.02
25.04
17.27
7.74
-1.07
-7.35
-10.74
-12.18
-13.11
-14.33
-15.30
-14.41
-9.71
0.13
15.24
34.49
55.99
77.62
97.41
113.67
124.93
130.22
129.18
122.20
110.25
94.76
77.39
59.87
43.97
31.05
22.12
17.56
16.90
18.88
21.74
23.83
24.00
21.64
15.94
6.55
-6.04
-20.51
-34.97
-47.49
-56.52
-61.07
-60.84
-57.62
-53.37
-49.62
-47.60
-48.82
-55.28
-68.84
-90.15
-118.00
-151.51
-187.77
-221.95
-248.57
-263.36
-264.95
-255.22
-238.64
-221.16
-211.52
-215.61
-233.88
-261.09
-288.74
-308.50
-314.83
-306.19
-266.87
-193.97
-98.18
0.83
85.40
147.38
187.35
209.94
220.23
222.18
216.06
202.20
182.99
162.40
144.40
131.66
124.96
125.09
131.96
142.24
151.56
156.80
156.97
153.02
147.13
142.09
140.60
142.68
147.27
153.03
159.83
167.76
175.62
180.12
176.98
163.52
140.59
114.64
90.42
72.44
62.77
60.27
61.63
63.35
63.57
62.18
59.99
57.12
53.49
48.49
41.69
33.51
24.69
16.84
11.25
8.48
7.76
8.13
8.58
8.30
6.75
3.56
-1.29
-7.68
-15.15
-23.36
-31.81
-40.16
-48.37
-56.43
-64.06
-70.46
-74.64
-75.87
-74.16
-70.10
-64.64
-58.47
-51.54
-43.10
-32.08
-17.92
-1.10
16.71
33.24
46.31
54.58
57.89
57.24
54.37
51.12
48.90
48.24
48.59
48.45
45.95
39.52
28.67
14.30
-1.48
-16.09
-27.37
-34.26
-36.88
-36.27
-33.74
-30.56
-27.78
-26.20
-26.37
-28.43
-31.89
-35.68
-38.48
-39.30
-37.96
-35.30
-32.76
-31.76
-32.86
-35.39
-37.71
-38.05
-35.37
-29.79
-22.40
-14.61
-7.46
-1.37
3.69
7.75
10.44
11.06
9.23
5.37
0.84
-2.58
-3.49
-1.43
2.78
7.53
10.66
10.68
7.18
0.72
-7.54
-16.33
-24.47
-31.06
-35.61
-38.91
-42.07
-46.19
-52.06
-60.02
-69.78
-80.27
-89.88
-96.95
-101.46
-103.87
-104.64
-104.20
-102.99
-101.57
-100.44
-100.15
-101.36
-106.38
-116.68
-131.60
-148.05
-161.18
-165.88
-158.57
-138.73
-101.06
-49.21
6.18
52.66
82.45
95.55
97.25
94.05
90.78
89.78
89.76
88.22
84.18
77.32
67.51
54.69
39.56
24.15
11.92
6.73
11.84
27.73
50.44
73.05
88.94
95.03
92.76
88.29
84.76
82.96
82.16
80.80
78.00
74.46
72.05
72.66
76.97
83.61
88.69
90.00
87.13
81.45
75.24
70.33
67.14
64.41
59.71
50.98
37.89
21.73
5.02
-9.41
-19.50
-24.50
-25.01
-22.46
-18.29
-13.20
-7.53
-1.33
5.28
11.91
17.83
22.11
23.80
22.29
17.69
10.83
3.17
-3.48
-7.57
-8.45
-6.76
-4.43
-3.89
-7.08
-14.61
-25.27
-36.33
-44.40
-46.59
-41.38
-29.02
-11.41
8.52
27.50
42.61
51.91
54.71
51.58
43.85
33.00
20.24
6.32
-7.98
-21.53
-32.50
-38.77
-38.62
-31.50
-18.55
-2.36
13.57
25.85
32.08
31.46
24.81
14.26
2.47
-8.07
-15.66
-19.59
-19.92
-17.18
-11.96
-4.88
3.30
11.49
18.28
22.30
22.69
19.49
13.72
7.04
1.21
-2.50
-3.57
-2.14
1.44
6.97
14.42
23.61
33.66
42.88
49.19
51.09
48.55
43.03
36.87
32.02
29.26
28.05
27.23
25.89
23.76
20.89
17.13
11.94
4.73
-4.38
-14.01
-21.83
-25.60
-24.35
-19.02
-12.04
-6.18
-3.37
-4.06
-7.40
-11.90
-16.17
-19.51
-21.92
-23.74
-25.25
-26.35
-26.54
-25.05
-21.24
-15.06
-7.29
0.61
7.00
10.64
11.07
8.64
4.33
-0.81
-5.94
-10.83
-15.36
-19.19
-21.50
-21.36
-18.11
-11.90
-3.89
4.05
9.32
10.17
6.42
-0.55
-8.71
-16.29
-22.51
-27.50
-31.81
-37.23
-44.73
-54.11
-64.32
-74.48
-84.40
-94.42
-104.78
-115.22
-127.12
-141.03
-156.32
-171.39
-184.70
-195.67
-204.63
-212.33
-219.42
-229.01
-243.04
-261.24
-280.92
-298.36
-310.10
-313.76
-308.15
-276.84
-214.15
-127.25
-34.00
47.36
106.81
143.83
163.51
172.41
175.67
173.29
164.12
147.36
125.33
101.70
79.99
62.56
50.54
43.93
40.05
37.05
35.07
36.21
42.67
55.27
72.19
90.43
107.41
120.62
129.38
134.46
137.15
138.12
136.97
132.84
125.36
115.07
102.49
88.63
74.73
62.12
51.79
44.03
38.46
34.47
31.54
29.34
28.02
28.03
29.76
33.25
38.05
43.45
48.78
53.54
57.52
60.78
63.63
66.41
69.22
71.57
72.39
70.29
64.03
53.21
38.63
22.25
6.62
-6.03
-14.54
-19.22
-21.53
-23.38
-26.32
-31.00
-37.02
-43.16
-47.82
-49.47
-47.01
-40.00
-28.73
-14.05
2.70
20.04
36.55
51.08
62.77
71.14
76.10
77.81
76.80
73.77
69.54
64.89
60.40
56.38
52.90
49.85
47.04
44.37
41.79
39.25
36.60
33.52
29.60
24.58
18.54
12.05
6.06
1.48
-1.18
-2.16
-2.38
-3.14
-5.59
-10.36
-17.22
-25.24
-33.03
-39.14
-42.39
-42.10
-38.10
-30.73
-20.81
-9.48
1.97
12.31
20.71
26.77
30.48
32.01
31.59
29.36
25.60
20.74
15.42
10.24
5.50
1.08
-3.48
-8.65
-14.52
-20.69
-26.42
-31.10
-34.60
-37.43
-40.44
-44.45
-49.88
-56.48
-63.57
-70.19
-75.55
-79.27
-81.61
-83.36
-85.77
-90.32
-98.22
-109.79
-123.83
-137.51
-146.93
-148.53
-140.42
-123.41
-100.92
-77.70
-58.09
-44.33
-36.11
-31.05
-26.01
-17.81
-4.12
16.01
41.81
70.72
98.66
120.81
132.60
130.85
115.25
88.37
54.59
18.82
-14.63
-42.50
-62.96
-75.70
-82.05
-83.58
-81.75
-77.89
-73.16
-68.33
-63.20
-56.49
-46.29
-31.09
-9.75
17.17
46.47
71.97
85.53
81.88
63.09
40.86
25.08
21.42
30.74
49.50
72.20
93.31
109.13
118.38
121.41
118.65
111.11
99.93
86.21
71.06
55.73
41.77
30.72
23.28
18.74
15.98
13.91
11.84
9.56
7.15
4.82
2.54
-0.12
-3.88
-8.49
-12.54
-13.67
-9.56
0.84
16.70
34.79
49.99
57.10
52.52
35.05
6.30
-29.37
-65.86
-97.76
-121.60
-136.03
-141.60
-140.29
-134.39
-125.61
-115.01
-103.52
-91.86
-78.91
-64.04
-46.32
-25.04
-0.57
24.99
48.04
64.50
72.15
71.45
65.22
57.74
53.12
54.09
61.80
75.96
93.75
111.78
126.15
133.27
131.36
120.83
103.86
83.58
64.21
46.43
30.49
16.64
5.27
-3.03
-7.92
-9.80
-8.97
-6.46
-3.55
-0.50
3.13
7.77
13.66
20.51
27.59
34.06
39.06
41.69
41.38
37.50
29.10
16.03
-0.67
-18.88
-36.24
-51.26
-63.72
-74.26
-83.81
-93.52
-103.55
-112.98
-120.50
-125.29
-127.66
-128.72
-129.66
-130.97
-132.82
-134.19
-133.23
-128.14
-117.97
-103.03
-84.24
-62.90
-34.89
-0.10
37.67
72.19
98.84
117.27
130.03
142.01
155.93
171.45
184.88
192.30
191.61
183.88
172.99
163.81
160.30
164.09
174.68
189.79
207.26
225.49
242.93
257.13
264.55
261.63
246.19
218.70
181.94
140.44
99.28
62.68
33.13
11.21
-3.89
-13.83
-20.29
-24.78
-28.04
-30.11
-30.67
-29.52
-27.10
-24.55
-23.60
-25.87
-32.50
-43.56
-58.14
-74.71
-91.79
-108.59
-125.27
-142.88
-163.05
-187.67
-218.31
-255.49
-297.88
-341.70
-380.99
-408.95
-420.06
-412.28
-388.09
-353.78
-317.26
-285.31
-261.57
-246.00
-235.88
-227.63
-218.43
-207.14
-194.19
-181.00
-169.23
-160.24
-154.76
-152.66
-152.82
-153.37
-152.13
-147.43
-138.90
-127.76
-116.18
-106.29
-98.92
-93.11
-86.58
-76.78
-61.93
-41.42
-16.08
11.55
36.94
53.98
56.65
41.98
12.54
-22.99
-52.31
-64.40
-54.27
-24.96
14.54
53.80
85.61
107.93
122.84
133.62
142.47
149.90
155.15
157.14
154.66
146.50
132.11
112.92
93.58
81.48
84.18
105.53
142.86
187.12
226.31
250.38
255.07
242.73
219.92
193.75
168.90
147.05
128.18
112.54
101.45
96.79
99.48
108.23
119.50
128.76
132.42
129.25
120.77
110.48
102.09
97.97
98.19
100.90
103.35
103.19
99.32
92.04
82.59
72.39
62.55
53.62
45.78
39.06
33.35
28.22
22.83
16.07
7.09
-3.95
-15.52
-25.08
-30.21
-29.84
-24.98
-18.29
-13.01
-11.67
-15.32
-23.61
-35.47
-49.64
-64.72
-78.80
-89.08
-92.22
-85.61
-68.92
-44.97
-19.25
1.96
13.90
15.15
7.99
-2.79
-12.04
-16.16
-14.19
-7.69
0.23
6.31
8.26
5.52
-0.86
-8.81
-16.10
-21.09
-23.06
-22.16
-19.15
-15.07
-10.74
-7.08
-5.12
-5.90
-10.09
-17.46
-26.75
-36.15
-44.03
-48.89
-50.10
-47.70
-42.32
-35.03
-27.24
-20.76
-17.40
-18.11
-21.00
-22.01
-16.44
-1.30
22.73
51.49
78.88
99.30
109.70
111.72
109.68
108.45
111.43
119.60
132.58
149.67
170.16
185.25
187.06
170.84
137.92
94.40
46.87
0.51
-40.82
-74.47
-99.40
-115.39
-124.12
-128.82
-133.02
-139.65
-149.78
-162.51
-176.38
-189.86
-200.08
-203.09
-194.51
-167.82
-123.50
-69.07
-16.11
24.89
49.22
60.06
64.99
71.08
81.19
94.69
107.04
114.90
117.08
113.71
105.25
91.62
72.62
48.94
21.96
-6.00
-31.88
-52.66
-65.87
-70.48
-67.15
-58.03
-46.40
-36.12
-30.41
-30.38
-34.93
-41.39
-46.69
-48.60
-46.40
-40.79
-33.35
-25.36
-17.02
-7.61
3.56
16.20
28.64
38.29
42.68
40.67
33.01
22.28
11.58
3.20
-2.44
-6.74
-12.03
-20.19
-31.56
-44.29
-54.94
-59.94
-57.38
-48.13
-35.68
-24.73
-19.09
-20.10
-25.83
-32.25
-35.39
-33.68
-28.95
-25.45
-27.85
-38.87
-58.04
-81.21
-101.76
-112.66
-109.02
-89.77
-57.98
-20.01
16.25
43.72
58.67
61.88
58.14
53.83
54.41
62.69
78.51
99.49
119.59
131.76
131.07
118.12
97.72
74.42
49.07
19.09
-18.56
-64.17
-113.37
-159.59
-195.79
-217.60
-225.10
-222.00
-213.58
-204.67
-198.68
-197.30
-200.02
-206.43
-215.59
-225.69
-233.98
-237.23
-232.55
-218.08
-192.74
-156.13
-108.73
-52.46
8.68
69.14
123.19
166.96
199.57
223.21
241.85
259.20
277.33
296.28
314.48
329.71
340.08
344.42
342.49
334.92
323.10
308.94
294.29
280.17
266.39
251.58
233.75
211.30
183.88
152.42
118.63
84.16
50.09
17.13
-13.89
-41.62
-64.37
-80.75
-90.56
-95.12
-97.02
-99.29
-104.32
-113.20
-125.61
-140.09
-154.55
-166.78
-174.94
-177.98
-175.96
-170.06
-162.31
-155.01
-149.96
-148.08
-149.27
-152.72
-157.29
-161.74
-164.67
-164.33
-158.68
-145.87
-125.03
-96.91
-63.86
-29.01
5.01
36.91
66.61
94.31
119.26
139.27
151.41
153.49
145.45
129.62
109.85
89.94
72.32
57.64
45.23
34.02
23.30
12.84
2.72
-6.92
-15.82
-23.37
-28.56
-30.27
-27.83
-21.45
-12.38
-2.48
6.53
13.65
18.87
22.94
26.82
31.21
36.30
41.69
46.53
49.58
49.48
45.15
36.49
24.89
13.05
4.03
-0.18
0.23
2.84
4.28
2.06
-4.07
-12.17
-19.26
-23.14
-23.44
-21.43
-18.85
-16.66
-14.62
-11.81
-7.68
-2.68
1.92
4.88
6.01
6.34
7.68
11.60
18.64
28.08
38.46
48.22
56.22
61.90
65.09
65.76
64.05
60.50
56.08
51.99
49.21
47.91
47.39
46.39
43.73
38.97
32.50
25.33
18.46
12.42
7.11
1.99
-3.53
-9.79
-16.76
-24.14
-31.50
-38.34
-44.23
-48.92
-52.44
-55.25
-58.09
-61.66
-66.23
-71.23
-75.38
-77.01
-74.70
-67.83
-56.66
-42.18
-25.76
-8.81
7.37
21.59
32.85
40.50
44.39
44.94
42.97
39.34
34.73
29.57
24.24
19.25
15.28
13.01
12.80
14.51
17.48
20.81
23.71
25.78
27.09
27.99
28.88
30.09
31.65
33.36
34.76
35.16
33.85
30.24
24.23
16.35
7.96
0.77
-3.59
-4.16
-0.88
5.55
13.92
22.91
31.48
39.15
45.89
51.72
56.35
59.02
58.62
54.08
44.96
31.90
17.22
4.04
-4.72
-7.62
-5.19
0.50
6.75
11.41
13.50
13.85
14.14
15.98
20.17
26.40
33.44
39.44
42.63
38.59
25.29
4.37
-18.86
-38.07
-49.24
-52.15
-49.46
-44.86
-41.52
-41.00
-43.64
-49.03
-56.13
-63.22
-67.89
-67.85
-61.87
-49.45
-32.58
-15.19
-1.87
3.62
-0.39
-13.10
-31.79
-52.91
-73.17
-90.15
-102.62
-110.47
-114.51
-116.14
-116.85
-117.88
-119.91
-122.95
-126.31
-128.71
-128.38
-123.51
-112.43
-94.07
-68.29
-36.02
0.91
40.14
79.44
116.83
150.41
177.97
196.88
204.64
199.91
183.35
157.71
127.16
96.07
67.80
44.29
25.93
11.96
0.82
-9.50
-20.91
-34.58
-50.18
-65.82
-78.50
-85.37
-84.93
-77.51
-65.03
-49.81
-33.43
-16.17
2.70
24.02
47.60
71.72
93.37
109.06
116.12
113.40
101.40
81.71
56.26
26.78
-5.11
-37.62
-68.52
-95.16
-115.11
-126.86
-130.37
-127.09
-119.38
-109.79
-100.12
-91.14
-82.69
-74.23
-65.51
-56.80
-48.84
-42.37
-37.68
-34.45
-31.78
-28.62
-24.24
-18.37
-11.26
-3.43
4.56
12.26
19.26
25.04
29.02
30.65
29.71
26.54
22.06
17.50
13.94
11.87
10.99
10.39
9.06
6.36
2.49
-1.57
-4.33
-4.36
-0.82
6.23
15.90
26.87
37.91
48.21
57.57
66.21
74.34
81.94
88.64
93.91
97.34
98.83
98.56
96.75
93.48
88.58
81.87
73.47
63.98
54.42
45.85
38.91
33.58
29.21
24.85
19.63
13.07
5.03
-4.37
-14.96
-26.62
-39.25
-52.61
-66.30
-79.74
-92.21
-102.94
-111.12
-115.92
-116.66
-112.82
-104.26
-91.35
-75.14
-57.19
-39.34
-23.22
-9.78
0.83
9.24
16.36
22.95
29.24
34.98
39.61
42.72
44.26
44.47
43.74
42.46
40.86
39.17
37.63
36.46
35.77
35.38
34.76
33.08
29.45
23.45
15.50
7.02
-0.10
-4.31
-5.35
-4.63
-4.72
-8.14
-15.97
-27.19
-39.02
-48.16
-52.25
-50.73
-44.80
-36.64
-28.44
-21.74
-17.13
-14.37
-12.50
-10.14
-5.83
1.50
12.07
25.01
38.35
49.56
56.30
57.25
52.64
44.35
35.45
29.32
28.63
34.55
46.51
62.41
79.43
94.77
106.24
112.52
113.05
107.88
97.51
82.93
65.55
47.09
29.23
13.20
-0.59
-12.70
-24.25
-36.25
-48.92
-61.39
-71.98
-78.92
-81.22
-79.07
-73.57
-65.95
-57.04
-47.17
-36.71
-26.84
-19.46
-16.52
-18.62
-24.22
-30.01
-32.28
-28.82
-19.98
-8.37
2.77
11.15
16.34
19.32
21.22
22.25
21.52
17.72
10.18
-0.47
-12.41
-23.44
-32.02
-37.89
-41.95
-45.65
-50.16
-55.93
-62.56
-69.33
-75.55
-80.78
-84.73
-87.03
-87.02
-83.89
-77.14
-66.92
-54.24
-40.63
-27.65
-16.36
-7.13
0.21
6.06
10.74
14.35
16.94
18.56
19.45
19.92
20.21
20.39
20.35
20.01
19.41
18.76
18.37
18.47
18.95
19.45
19.41
18.37
16.20
13.16
9.72
6.42
3.54
1.03
-1.43
-4.29
-7.92
-12.49
-17.94
-23.94
-29.95
-35.22
-38.78
-39.69
-37.24
-31.26
-22.34
-11.67
-0.72
9.19
17.27
23.28
27.43
30.13
31.73
32.48
32.51
31.86
30.53
28.47
25.76
22.59
19.28
16.11
13.17
10.29
7.25
4.05
1.12
-0.86
-1.23
0.25
3.26
7.06
10.81
13.78
15.47
15.52
13.57
9.40
3.14
-4.53
-12.27
-18.36
-21.21
-19.76
-13.87
-4.35
7.24
18.97
28.96
35.82
39.05
39.28
38.27
38.54
42.66
52.32
67.57
86.44
105.45
120.64
128.95
129.18
122.07
109.80
94.84
79.13
63.78
49.32
36.04
24.36
14.65
7.00
1.03
-3.95
-8.58
-13.07
-17.05
-19.88
-21.18
-21.09
-20.31
-19.75
-20.16
-21.86
-24.77
-28.57
-32.73
-36.53
-39.08
-39.45
-37.05
-31.94
-24.90
-17.24
-10.23
-4.62
-0.51
2.54
4.96
7.01
8.60
9.53
9.68
9.03
7.59
5.24
1.86
-2.53
-7.61
-12.77
-17.44
-21.41
-25.03
-29.07
-34.44
-41.74
-51.11
-62.30
-74.82
-88.12
-101.60
-114.58
-126.42
-136.74
-145.65
-153.64
-161.25
-168.52
-174.78
-178.83
-179.73
-177.34
-172.71
-167.69
-164.08
-162.94
-164.19
-166.82
-169.40
-170.60
-169.57
-166.02
-160.18
-152.51
-143.32
-132.32
-118.49
-100.26
-76.18
-45.41
-8.08
34.85
81.68
130.20
177.59
220.45
255.26
279.27
291.52
293.34
287.84
278.77
269.10
260.41
253.16
247.63
244.62
245.21
249.82
257.17
264.10
266.46
260.80
245.76
222.55
194.13
163.68
133.44
104.41
76.96
51.75
30.08
13.47
2.77
-2.54
-4.20
-4.40
-4.66
-5.41
-6.22
-6.52
-6.28
-6.23
-7.39
-10.38
-15.12
-20.87
-26.86
-32.71
-38.57
-44.76
-51.30
-57.61
-62.55
-64.86
-63.60
-58.49
-49.77
-38.12
-24.39
-9.48
5.74
20.52
34.15
46.03
55.61
62.38
65.99
66.24
63.26
57.58
50.06
41.69
33.46
26.13
20.14
15.48
11.47
6.85
0.08
-10.21
-24.57
-42.49
-62.61
-83.28
-103.13
-121.48
-138.06
-152.65
-164.84
-174.21
-180.76
-185.01
-188.05
-191.15
-195.75
-203.46
-216.18
-235.86
-263.61
-298.64
-337.68
-375.25
-405.09
-421.95
-422.95
-407.87
-378.39
-336.86
-285.56
-226.80
-163.61
-100.26
-41.86
6.97
43.71
68.92
85.80
98.44
109.68
119.81
126.95
128.64
123.74
113.30
99.99
86.42
73.75
61.52
48.77
35.68
24.47
18.86
22.49
36.97
60.98
90.62
121.02
148.07
169.51
185.02
195.43
201.83
205.09
205.97
205.25
203.65
201.40
197.66
190.66
178.32
159.39
134.14
104.33
72.40
40.46
9.69
-19.54
-47.15
-72.76
-95.62
-115.03
-130.76
-143.27
-153.39
-161.70
-167.89
-170.60
-167.71
-157.14
-137.68
-109.45
-73.68
-32.17
13.35
61.39
110.30
157.80
200.70
235.37
258.60
268.56
265.30
250.60
227.31
198.57
167.31
135.88
105.91
78.16
52.30
26.78
-0.93
-33.81
-74.46
-123.99
-181.35
-242.90
-302.87
-354.75
-392.99
-414.67
-420.14
-412.64
-396.74
-376.76
-355.57
-334.38
-313.34
-292.34
-271.54
-251.24
-231.45
-211.29
-188.88
-161.58
-126.75
-82.96
-30.94
25.99
82.41
132.26
170.69
195.78
208.94
214.15
216.03
218.19
222.21
227.86
234.04
239.78
244.70
248.88
252.59
256.01
259.30
262.64
265.99
268.57
268.55
263.22
250.01
228.02
199.13
168.07
141.04
123.53
118.16
123.79
136.02
148.89
157.11
157.47
149.33
134.12
114.41
93.00
72.52
55.43
44.02
39.91
43.31
52.26
62.73
69.50
68.09
56.51
36.09
10.82
-14.59
-36.85
-55.51
-72.76
-91.88
-115.27
-142.90
-172.15
-198.77
-218.60
-229.24
-231.06
-227.35
-223.46
-225.35
-237.73
-262.54
-298.05
-339.03
-378.08
-407.82
-423.07
-422.14
-407.04
-382.21
-352.90
-323.56
-297.09
-274.81
-256.97
-243.11
-232.33
-223.33
-214.55
-204.59
-192.58
-178.53
-163.22
-147.86
-133.51
-120.73
-109.46
-99.16
-89.11
-78.85
-68.38
-58.25
-49.50
-43.28
-40.60
-41.91
-46.98
-54.85
-63.86
-71.94
-76.77
-76.26
-68.81
-53.67
-31.03
-2.00
31.66
67.90
104.68
140.23
173.18
202.70
228.62
251.48
272.20
291.36
308.45
321.52
327.69
324.47
311.24
290.09
265.34
241.99
223.74
211.57
203.68
196.52
186.42
170.95
149.57
123.40
94.64
66.00
40.47
21.06
10.36
9.82
19.00
35.15
53.74
69.92
80.22
83.93
83.19
81.82
83.47
90.12
101.28
114.59
127.08
136.34
141.26
141.85
138.79
132.91
125.07
115.97
106.09
95.78
85.15
74.20
62.85
51.01
38.72
26.58
15.24
5.17
-3.56
-11.15
-17.86
-23.64
-28.00
-30.06
-27.60
-18.74
-2.79
19.34
45.30
72.07
96.87
117.57
132.82
144.52
154.84
165.18
175.65
185.15
192.44
197.04
199.38
200.39
205.11
217.69
239.75
269.83
303.72
336.67
365.48
389.09
408.21
429.66
459.53
500.50
551.06
605.77
658.35
704.48
742.72
741.07
678.84
550.62
371.66
172.26
-18.30
-182.32
-314.65
-417.96
-497.76
-553.99
-583.82
-590.51
-579.42
-558.62
-536.50
-519.55
-511.40
-512.93
-519.15
-524.44
-525.19
-518.01
-502.80
-481.05
-454.68
-425.80
-396.83
-368.06
-339.97
-313.73
-290.52
-271.98
-259.07
-251.47
-247.60
-245.08
-239.86
-228.11
-207.42
-177.30
-140.08
-99.99
-61.53
-27.91
-0.05
23.89
47.21
72.93
102.65
135.38
168.00
196.24
215.95
224.29
220.47
205.87
183.64
157.65
131.27
106.75
85.08
66.52
51.20
39.51
31.94
28.66
29.14
32.10
35.88
39.03
40.67
40.63
39.15
36.48
32.57
27.16
20.11
11.68
2.66
-5.93
-13.19
-18.76
-22.89
-26.27
-29.66
-33.62
-38.36
-43.85
-49.94
-56.49
-63.38
-70.35
-77.06
-82.97
-87.49
-90.07
-90.44
-88.60
-84.88
-79.84
-74.04
-67.84
-61.34
-54.48
-47.14
-39.36
-31.43
-23.70
-16.51
-10.03
-4.23
1.04
6.11
11.44
17.60
25.21
34.70
46.13
59.04
72.43
84.99
95.38
102.47
105.44
103.85
97.57
86.87
72.47
55.40
37.03
18.81
2.07
-12.24
-23.64
-32.17
-38.29
-42.69
-46.08
-48.92
-51.44
-53.58
-55.25
-56.39
-57.09
-57.65
-58.45
-59.86
-62.13
-65.31
-69.10
-72.84
-75.56
-76.14
-73.53
-66.99
-56.37
-42.14
-25.42
-7.74
9.20
23.94
35.47
43.40
47.94
49.77
49.83
49.25
49.16
50.53
53.90
59.21
65.77
72.56
78.55
83.19
86.52
89.10
91.65
94.66
98.29
102.19
105.75
108.20
108.81
107.09
102.84
96.22
87.75
78.15
68.35
59.47
52.76
49.52
50.74
56.80
67.16
80.27
93.74
104.63
110.05
107.61
96.09
75.88
49.24
19.94
-7.56
-29.40
-43.30
-49.21
-49.04
-46.03
-43.66
-44.89
-51.58
-64.19
-81.97
-103.20
-125.88
-148.28
-169.33
-188.45
-204.89
-216.97
-221.61
-214.91
-193.56
-156.66
-106.92
-50.70
3.47
47.17
74.40
83.25
76.06
58.56
38.07
21.66
14.42
18.36
32.09
51.23
69.81
82.13
84.80
77.85
64.80
51.14
42.05
40.42
45.92
55.46
64.77
70.07
69.08
61.15
46.66
26.50
1.89
-25.36
-52.48
-75.93
-92.10
-98.47
-94.57
-82.29
-65.27
-47.65
-32.78
-22.27
-16.01
-12.75
-11.13
-10.39
-10.69
-12.65
-16.67
-22.53
-29.18
-35.17
-39.19
-40.64
-39.76
-37.38
-34.56
-32.07
-30.27
-29.09
-28.26
-27.56
-26.94
-26.62
-26.93
-28.28
-31.03
-35.34
-40.99
-47.28
-53.07
-57.02
-57.95
-55.21
-48.88
-39.73
-28.90
-17.55
-6.63
3.14
11.23
17.16
20.52
21.20
19.43
15.89
11.45
6.97
3.12
0.24
-1.61
-2.60
-3.04
-3.30
-3.74
-4.58
-5.86
-7.40
-8.94
-10.29
-11.47
-12.77
-14.58
-17.27
-20.95
-25.38
-29.86
-33.41
-34.92
-33.46
-28.53
-20.30
-9.56
2.45
14.35
24.99
33.58
39.83
43.70
45.37
45.10
43.24
40.28
36.82
33.51
30.83
29.06
28.11
27.66
27.28
26.62
25.50
23.96
22.16
20.28
18.44
16.61
14.57
12.00
8.53
3.92
-1.84
-8.34
-14.83
-20.30
-23.68
-24.17
-21.35
-15.42
-7.14
2.37
11.87
20.22
26.56
30.44
31.70
30.47
27.09
22.03
15.93
9.54
3.67
-1.01
-4.07
-5.54
-5.85
-5.76
-6.04
-7.26
-9.58
-12.71
-16.15
-19.33
-21.97
-24.06
-25.91
-27.97
-30.60
-33.93
-37.69
-41.20
-43.40
-43.08
-39.18
-31.12
-19.11
-4.10
12.41
28.79
43.64
56.03
65.57
72.27
76.38
78.22
78.21
76.82
74.60
72.18
70.17
69.13
69.40
71.10
74.06
78.03
82.70
87.85
93.16
98.23
102.43
105.13
105.98
105.20
103.61
102.30
102.10
103.07
104.54
105.48
105.27
104.09
102.85
102.67
103.99
106.15
107.58
106.37
101.23
91.95
79.40
65.01
50.20
35.92
22.53
10.09
-1.49
-12.24
-22.18
-31.31
-39.59
-46.76
-52.24
-54.99
-53.69
-47.13
-34.69
-16.95
4.24
26.33
47.06
65.60
82.99
101.49
122.97
147.37
172.03
192.58
204.95
207.31
200.91
189.17
175.66
162.27
148.63
133.04
114.14
92.28
69.65
49.26
33.51
23.19
17.36
14.08
11.35
7.81
3.13
-2.07
-6.32
-7.81
-5.03
2.24
12.25
21.29
24.69
18.64
1.83
-23.80
-53.83
-83.23
-108.23
-127.46
-141.61
-152.28
-160.72
-167.29
-171.77
-174.10
-174.88
-175.20
-176.02
-177.37
-178.13
-176.45
-170.63
-159.92
-144.90
-127.15
-108.61
-90.89
-74.83
-60.67
-48.25
-37.34
-27.72
-19.20
-11.53
-4.44
2.22
8.29
13.32
16.68
17.91
17.06
14.74
12.01
9.97
9.37
10.54
13.31
17.26
21.78
26.13
29.58
31.40
31.21
29.01
25.27
20.64
15.55
9.86
2.83
-6.40
-18.24
-32.19
-46.89
-60.65
-72.03
-80.30
-85.36
-87.31
-86.08
-81.33
-72.97
-61.74
-49.70
-39.92
-35.70
-39.30
-51.06
-69.23
-90.46
-110.66
-126.00
-133.63
-132.15
-121.82
-104.28
-82.21
-58.80
-37.28
-20.58
-11.14
-10.58
-19.30
-36.22
-58.68
-83.13
-106.14
-125.41
-140.24
-151.19
-159.12
-164.38
-166.43
-164.36
-157.77
-147.19
-134.13
-120.48
-107.83
-97.03
-88.15
-80.80
-74.45
-68.64
-63.00
-57.21
-50.93
-43.80
-35.44
-25.67
-14.51
-2.36
10.06
21.85
32.14
40.31
46.23
50.29
53.14
55.49
57.83
60.41
63.25
66.38
69.84
73.70
77.91
82.15
85.88
88.53
89.73
89.54
88.53
87.52
87.27
88.12
89.77
91.43
92.10
91.02
88.06
83.76
79.16
75.43
73.42
73.49
75.50
78.96
83.13
87.14
90.17
91.76
92.23
92.90
96.03
104.02
118.23
137.78
159.08
176.63
184.87
180.45
163.62
138.06
109.09
81.26
56.71
35.01
14.52
-5.85
-25.71
-43.74
-59.13
-72.85
-87.60
-106.16
-129.54
-155.82
-180.89
-200.41
-212.02
-216.21
-215.44
-212.18
-207.10
-198.64
-183.99
-160.85
-128.77
-89.41
-45.92
-1.90
39.18
74.17
100.18
114.84
116.92
107.19
88.78
66.65
46.34
32.31
26.90
29.93
39.29
51.82
64.15
73.31
77.03
74.05
64.31
49.01
30.26
10.23
-9.76
-29.76
-50.90
-74.51
-100.87
-128.72
-155.48
-178.26
-194.86
-204.13
-205.90
-200.34
-187.66
-168.23
-142.98
-113.73
-83.14
-54.22
-29.54
-10.62
2.26
9.63
12.33
10.92
5.54
-3.79
-16.78
-32.41
-49.01
-64.67
-77.93
-88.22
-95.86
-101.52
-105.54
-107.48
-106.14
-100.18
-88.79
-72.41
-52.75
-32.42
-14.28
-0.68
6.73
6.84
-1.33
-18.73
-45.90
-82.14
-124.89
-169.78
-211.52
-245.41
-268.55
-280.28
-281.68
-274.69
-261.25
-243.10
-221.90
-199.50
-177.84
-158.71
-143.31
-132.16
-124.98
-120.81
-118.04
-114.53
-107.93
-96.18
-78.07
-53.43
-23.14
11.21
47.45
82.82
114.11
138.04
152.13
155.72
150.55
140.39
129.90
122.99
121.62
125.58
133.07
141.73
149.52
155.10
157.72
157.06
153.07
145.98
136.43
125.39
114.08
103.72
95.23
89.04
85.02
82.56
80.79
78.80
75.93
71.90
66.86
61.30
55.81
50.85
46.57
42.80
39.13
35.15
30.64
25.68
20.63
15.88
11.71
8.08
4.57
0.54
-4.68
-11.50
-19.81
-28.85
-37.22
-43.10
-44.65
-40.49
-30.14
-14.21
5.67
27.29
48.37
67.08
82.27
93.50
100.78
104.35
104.65
102.25
97.98
92.95
88.34
85.17
83.93
84.59
86.73
89.76
93.23
96.92
100.73
104.56
108.09
110.84
112.25
111.98
110.02
106.80
103.01
99.25
95.76
92.17
87.73
81.59
73.35
63.24
52.11
41.25
32.14
26.27
24.97
29.03
38.03
50.01
61.56
68.75
68.45
59.51
42.99
21.37
-2.67
-27.40
-52.22
-77.17
-102.15
-126.53
-149.21
-169.13
-185.60
-198.42
-207.64
-213.45
-216.12
-216.07
-213.86
-209.96
-204.46
-196.86
-186.05
-170.57
-149.07
-120.74
-86.00
-46.91
-7.28
27.97
54.16
68.33
70.51
63.75
53.07
43.77
39.72
42.57
51.93
66.15
83.20
101.12
118.15
132.60
143.16
149.14
150.77
149.22
146.03
142.60
139.66
137.33
135.35
133.57
132.06
130.95
130.13
129.12
127.29
124.07
119.35
113.49
107.20
101.43
97.15
95.06
95.12
95.99
94.84
87.98
72.37
47.20
14.85
-19.69
-50.70
-73.74
-86.89
-90.47
-86.13
-75.79
-61.30
-44.57
-27.52
-11.55
3.10
17.36
32.32
47.79
61.39
69.29
68.17
57.15
38.59
17.06
-2.78
-17.99
-27.84
-32.93
-34.00
-31.31
-24.90
-15.24
-3.71
7.82
17.84
25.96
32.91
39.74
46.76
52.90
55.92
53.31
43.70
27.72
8.11
-11.13
-26.08
-34.08
-34.38
-27.96
-17.03
-4.25
7.88
17.35
22.82
23.69
19.99
12.33
1.79
-10.15
-21.78
-31.39
-37.56
-39.59
-37.72
-33.15
-27.71
-23.28
-21.08
-21.29
-22.93
-24.31
-23.69
-20.16
-14.08
-7.28
-2.39
-2.06
-7.78
-19.17
-33.90
-48.17
-57.71
-58.80
-49.01
-27.75
3.50
41.30
80.76
116.55
144.13
160.84
166.44
162.86
153.29
140.85
127.67
114.36
100.38
84.68
66.56
46.29
25.19
5.35
-11.11
-22.60
-28.47
-29.03
-25.18
-18.07
-9.05
0.24
7.82
11.63
10.20
3.34
-7.57
-19.97
-31.04
-38.81
-42.83
-44.15
-44.64
-46.06
-49.27
-53.85
-58.28
-60.55
-58.94
-52.83
-42.99
-31.40
-20.56
-12.59
-8.47
-7.88
-9.66
-12.47
-15.40
-18.20
-20.93
-23.54
-25.72
-26.98
-26.93
-25.65
-23.59
-21.42
-19.68
-18.68
-18.57
-19.49
-21.75
-25.85
-32.25
-41.19
-52.46
-65.36
-78.86
-91.97
-104.11
-115.23
-125.59
-135.08
-142.69
-146.31
-143.49
-132.57
-113.76
-89.53
-63.81
-40.67
-22.87
-11.37
-5.65
-4.64
-7.43
-13.44
-21.98
-31.74
-40.71
-46.69
-48.19
-44.81
-37.24
-26.61
-13.88
0.34
15.54
30.65
43.83
52.69
55.18
50.52
39.66
25.11
10.03
-2.86
-12.12
-17.82
-21.17
-23.98
-27.86
-33.77
-41.58
-50.19
-57.70
-62.03
-61.48
-55.24
-43.60
-27.80
-9.56
9.28
27.10
42.72
55.41
64.88
71.19
74.61
75.39
73.56
68.92
61.31
50.87
38.26
24.65
11.43
-0.12
-9.14
-15.35
-18.92
-20.33
-20.16
-19.03
-17.70
-17.15
-18.67
-23.71
-33.50
-48.62
-68.62
-92.05
-116.78
-140.50
-161.20
-177.32
-187.72
-191.45
-187.73
-176.19
-157.16
-132.08
-103.33
-73.72
-45.82
-21.35
-1.03
15.04
26.92
34.49
37.46
35.67
29.51
20.24
9.96
1.29
-3.12
-1.10
8.38
24.82
45.96
68.19
87.52
100.95
107.48
108.42
106.61
104.86
104.75
105.96
106.74
104.95
99.18
89.34
76.46
62.17
47.93
34.86
23.87
15.89
12.07
13.55
20.88
33.48
49.25
64.71
75.76
78.93
72.42
56.56
33.54
6.36
-22.05
-49.16
-72.40
-88.62
-94.18
-86.22
-64.41
-32.11
4.09
36.62
59.86
72.05
75.28
73.52
70.07
65.95
60.07
50.77
37.50
21.53
5.44
-8.12
-17.53
-22.48
-23.77
-22.69
-20.71
-19.22
-19.32
-21.65
-26.07
-31.68
-37.10
-41.00
-42.53
-41.46
-37.93
-32.06
-23.80
-13.04
0.20
15.54
32.25
49.36
65.69
79.78
90.11
95.29
94.66
88.50
78.09
65.14
51.14
36.86
22.47
8.06
-5.73
-17.62
-26.00
-29.78
-29.09
-25.28
-20.40
-16.19
-13.31
-11.39
-9.60
-7.63
-6.16
-6.64
-10.51
-18.30
-29.34
-42.00
-54.41
-65.04
-72.75
-76.65
-75.99
-70.34
-60.30
-47.90
-36.39
-29.23
-28.68
-34.62
-44.33
-53.22
-56.16
-49.16
-30.75
-2.61
30.66
62.88
88.21
102.95
106.54
101.45
91.78
81.46
72.64
64.85
55.20
39.47
13.73
-23.74
-71.17
-122.92
-170.67
-206.01
-223.28
-221.52
-204.35
-177.95
-148.15
-118.18
-88.06
-55.72
-18.89
23.14
68.83
114.84
157.19
192.62
219.40
237.42
247.64
251.33
249.22
241.31
227.19
206.84
181.42
153.55
126.87
104.81
89.37
80.03
73.71
65.87
52.00
29.14
-3.41
-44.35
-91.37
-142.00
-193.89
-244.43
-290.12
-326.53
-349.18
-354.93
-343.37
-317.35
-282.15
-243.82
-207.31
-175.10
-147.12
-121.52
-96.01
-69.01
-39.88
-8.68
24.33
58.78
93.96
128.35
159.67
185.55
204.25
215.28
219.24
217.08
209.55
197.04
180.03
159.71
138.09
117.46
99.39
84.16
70.79
57.75
43.84
28.55
11.94
-5.73
-24.29
-43.54
-62.95
-81.40
-97.28
-109.03
-115.72
-117.28
-114.37
-107.84
-98.39
-86.57
-73.28
-60.11
-49.35
-43.38
-43.60
-49.66
-59.35
-69.27
-76.11
-77.83
-74.10
-66.24
-56.35
-46.56
-38.48
-33.08
-30.84
-31.97
-36.45
-44.07
-54.17
-65.59
-76.67
-85.59
-90.86
-91.69
-88.19
-81.37
-72.83
-64.41
-57.78
-54.01
-53.17
-54.06
-54.34
-51.04
-41.53
-24.67
-1.43
25.15
50.98
72.36
87.14
95.10
97.54
96.16
92.23
86.24
78.08
67.62
55.19
41.82
29.20
19.67
16.04
21.10
36.72
62.73
96.21
131.80
163.01
184.21
192.29
187.25
171.64
149.26
123.91
98.70
76.01
57.45
43.88
35.16
30.14
27.17
24.84
22.59
20.88
20.74
23.09
28.33
36.14
45.60
55.29
63.38
67.78
66.62
59.16
46.51
31.88
19.81
14.67
18.94
32.03
50.37
68.54
81.29
85.28
80.24
68.71
54.91
42.94
35.36
32.60
33.25
34.95
35.40
32.84
26.31
15.63
1.43
-14.85
-31.11
-45.31
-56.25
-64.24
-71.24
-80.00
-92.83
-110.14
-129.92
-148.15
-160.40
-163.50
-156.79
-142.21
-123.26
-103.53
-85.57
-70.53
-58.59
-49.67
-43.80
-40.98
-40.82
-42.09
-43.10
-42.23
-38.69
-32.74
-25.50
-18.30
-12.18
-7.61
-4.55
-2.82
-2.31
-3.12
-5.50
-9.77
-16.09
-24.38
-34.22
-44.88
-55.50
-65.11
-72.74
-77.49
-78.73
-76.41
-71.18
-64.41
-57.67
-52.11
-47.89
-44.13
-39.49
-33.01
-24.82
-16.13
-8.62
-3.50
-0.99
-0.48
-1.12
-2.49
-4.70
-7.95
-11.91
-15.52
-17.27
-15.83
-10.56
-1.46
11.20
27.26
46.53
68.24
90.66
111.11
126.79
135.82
138.00
134.78
128.39
120.83
113.07
105.07
96.40
87.04
77.82
70.31
66.16
66.31
70.53
77.53
85.66
93.71
101.49
109.88
120.10
133.01
148.48
165.34
181.57
194.75
202.36
202.30
193.53
176.59
153.87
129.08
106.09
87.62
74.40
65.46
59.04
53.71
49.00
45.01
41.74
38.27
32.74
22.78
6.34
-17.70
-49.28
-87.16
-128.96
-171.33
-210.17
-241.22
-260.89
-267.27
-260.68
-243.63
-220.16
-194.75
-171.14
-151.68
-137.08
-126.82
-119.89
-115.35
-112.67
-111.65
-112.18
-113.85
-115.92
-117.37
-116.97
-113.31
-104.64
-89.31
-66.59
-37.80
-6.75
20.93
39.75
46.64
42.25
30.58
17.06
5.99
-1.05
-5.25
-9.20
-15.06
-23.29
-32.57
-40.50
-44.72
-43.65
-36.84
-24.98
-9.52
7.69
24.91
40.65
53.83
63.61
69.39
70.99
68.73
63.75
57.99
53.82
53.39
58.02
67.73
81.25
96.40
110.69
121.91
128.61
130.22
127.09
120.24
111.10
101.13
91.41
82.30
73.42
63.85
52.72
39.80
25.84
12.48
1.68
-4.96
-6.75
-3.97
2.40
11.13
21.14
31.40
40.78
47.84
51.00
48.96
41.22
28.47
12.47
-4.43
-20.02
-32.90
-42.70
-49.98
-55.81
-61.33
-67.38
-74.41
-82.43
-91.35
-101.13
-111.93
-124.11
-138.04
-153.76
-170.96
-189.01
-207.24
-225.10
-242.16
-257.82
-271.07
-280.39
-284.07
-280.80
-270.03
-252.07
-227.86
-198.68
-166.20
-132.45
-99.79
-70.47
-45.91
-26.29
-10.48
3.34
17.05
32.24
50.30
72.38
99.04
129.45
160.73
188.25
207.18
214.79
212.05
203.45
194.89
190.65
191.47
194.56
195.78
192.57
185.58
178.01
173.24
172.47
174.20
175.68
175.29
173.94
174.32
178.43
185.22
190.28
187.95
174.87
152.67
127.99
109.86
105.50
116.98
140.37
167.51
189.39
199.56
195.85
180.21
156.75
129.42
100.26
69.22
35.36
-1.67
-40.63
-78.77
-112.99
-140.94
-161.74
-175.73
-183.72
-186.12
-182.76
-173.05
-156.74
-134.40
-107.73
-79.17
-51.28
-25.90
-3.43
17.19
37.80
59.82
82.79
103.86
118.39
121.67
111.07
87.43
54.94
19.59
-13.00
-39.45
-59.06
-72.92
-82.14
-86.53
-84.52
-74.49
-56.66
-34.47
-14.42
-4.15
-9.77
-33.46
-72.44
-119.86
-166.83
-205.00
-228.33
-234.05
-222.56
-196.73
-160.98
-120.47
-80.19
-44.31
-15.64
4.47
16.06
20.28
18.92
14.06
7.69
1.36
-3.87
-7.44
-9.07
-8.59
-5.88
-1.10
5.13
11.57
16.54
18.17
14.95
6.14
-7.96
-26.08
-46.13
-65.61
-82.10
-93.72
-99.60
-100.03
-96.29
-90.22
-83.56
-77.55
-72.64
-68.56
-64.64
-60.19
-54.81
-48.66
-42.38
-36.80
-32.53
-29.52
-26.96
-23.55
-18.04
-9.81
1.05
13.83
27.63
41.59
54.90
66.65
75.69
80.78
81.11
76.75
68.85
59.39
50.49
43.72
39.79
38.46
38.96
40.31
41.66
42.40
42.12
40.61
37.75
33.57
28.11
21.55
14.05
5.74
-3.35
-13.29
-24.09
-35.49
-46.71
-56.38
-62.73
-64.24
-60.16
-51.00
-38.33
-24.36
-11.15
-0.11
8.15
13.59
16.42
16.83
15.08
11.72
7.64
3.90
1.48
0.85
1.84
3.68
5.31
5.70
4.10
0.16
-6.12
-14.53
-24.74
-36.34
-48.82
-61.54
-73.79
-84.87
-94.40
-102.54
-110.00
-117.96
-127.63
-139.80
-154.41
-170.34
-185.64
-197.85
-204.63
-204.40
-196.81
-182.96
-165.18
-146.55
-129.86
-116.83
-107.50
-100.23
-92.48
-81.73
-66.44
-46.36
-22.34
4.27
32.10
60.04
87.15
112.47
134.95
153.54
167.45
176.22
179.92
179.04
174.57
168.00
161.07
155.45
152.24
151.65
152.91
154.75
155.89
155.32
152.13
145.02
132.34
112.63
85.69
53.61
20.79
-7.29
-26.01
-33.34
-30.33
-20.23
-6.77
7.46
21.55
35.96
51.47
68.33
86.06
103.53
119.37
132.15
140.65
144.32
143.41
138.95
132.20
123.88
113.64
100.29
82.83
61.59
38.80
17.95
2.35
-6.27
-8.21
-5.07
1.56
10.98
23.14
37.29
50.83
59.08
56.76
40.30
9.94
-29.67
-70.79
-105.20
-127.01
-134.24
-128.80
-114.97
-97.40
-79.41
-62.16
-44.89
-25.69
-2.38
26.78
62.50
103.86
147.82
189.17
221.49
238.95
238.36
220.40
189.31
151.07
110.97
72.07
35.09
-0.20
-33.26
-61.96
-83.10
-93.80
-93.10
-82.24
-64.14
-42.34
-20.09
-0.18
14.91
22.85
21.84
11.28
-7.55
-31.35
-55.51
-75.38
-87.41
-89.90
-83.04
-68.28
-47.65
-23.25
2.62
27.02
46.10
55.42
51.03
30.97
-3.35
-46.76
-91.11
-127.27
-147.65
-148.24
-129.62
-96.45
-55.85
-15.27
19.51
45.32
61.55
69.23
69.77
64.23
53.27
37.76
19.33
0.24
-17.18
-31.62
-43.39
-54.16
-65.94
-79.75
-94.81
-108.65
-118.07
-120.62
-115.61
-104.45
-90.08
-75.77
-63.89
-55.08
-48.23
-41.33
-32.78
-22.44
-12.08
-4.68
-2.94
-7.72
-17.36
-28.09
-35.67
-37.35
-33.07
-25.49
-18.54
-15.78
-18.82
-26.81
-36.89
-45.18
-47.72
-40.87
-21.98
9.56
51.21
96.53
135.79
158.37
156.26
127.22
75.80
11.73
-53.58
-110.50
-153.07
-178.56
-185.77
-173.86
-142.82
-95.50
-39.30
13.98
51.13
61.98
43.33
0.31
-55.33
-109.57
-150.60
-171.94
-173.04
-157.74
-131.88
-100.89
-68.34
-35.66
-2.65
31.45
66.77
101.92
133.77
158.33
172.09
173.31
162.48
141.91
114.65
83.57
51.17
19.91
-7.20
-26.79
-36.12
-34.59
-24.71
-11.62
-1.14
2.81
-0.08
-6.35
-10.33
-6.37
9.29
37.66
77.31
124.94
175.94
224.81
265.70
293.32
304.42
298.81
279.56
251.89
221.34
192.05
166.10
143.89
125.14
109.73
97.96
89.98
85.30
82.53
79.76
75.37
68.75
60.43
51.70
43.83
37.34
31.77
26.01
18.94
10.02
-0.54
-12.09
-24.02
-36.11
-48.35
-60.55
-71.88
-80.97
-86.30
-87.04
-83.63
-77.78
-71.91
-68.29
-68.23
-71.90
-78.54
-87.00
-96.23
-105.48
-114.12
-121.47
-126.63
-128.72
-127.02
-121.32
-111.79
-98.95
-83.41
-65.95
-47.65
-29.99
-14.71
-3.39
2.96
4.31
1.60
-3.62
-9.58
-14.85
-18.42
-19.87
-19.33
-17.28
-14.44
-11.38
-8.14
-4.03
2.22
12.00
26.11
44.22
64.74
85.26
103.17
116.43
123.90
125.29
120.89
111.19
96.75
78.33
57.03
34.45
12.60
-6.47
-21.12
-30.49
-34.66
-34.72
-32.32
-29.35
-27.40
-27.37
-29.42
-33.02
-37.45
-42.11
-46.80
-51.65
-56.80
-62.19
-67.51
-72.48
-77.16
-81.97
-87.29
-92.93
-97.77
-99.90
-97.47
-89.63
-77.12
-62.21
-47.83
-36.61
-30.07
-28.44
-31.00
-36.68
-44.46
-53.55
-63.18
-72.53
-80.68
-86.80
-90.39
-91.43
-90.53
-88.71
-87.09
-86.61
-87.75
-90.47
-94.27
-98.49
-102.49
-105.84
-108.37
-110.15
-111.44
-112.72
-114.51
-117.18
-120.63
-123.94
-125.29
-122.26
-112.56
-94.83
-69.34
-38.14
-4.57
27.59
55.18
76.31
90.62
98.87
102.43
102.64
100.35
95.95
89.49
81.11
71.26
60.72
50.34
40.68
31.70
22.74
12.87
1.26
-12.35
-27.63
-43.83
-60.19
-76.29
-92.11
-107.94
-124.15
-140.97
-158.30
-175.68
-192.10
-206.07
-215.74
-219.34
-215.58
-204.07
-185.38
-160.83
-132.02
-100.50
-67.53
-33.98
-0.40
33.00
66.08
98.69
130.41
160.38
187.34
209.96
227.25
238.85
245.05
246.39
243.27
235.73
223.52
206.57
185.37
161.04
135.11
109.07
83.93
60.22
38.10
17.45
-2.27
-21.97
-42.75
-65.23
-88.65
-110.47
-126.87
-133.90
-128.92
-111.47
-83.33
-47.92
-9.23
28.84
62.92
90.43
109.80
120.75
124.38
122.83
118.80
115.06
114.03
117.60
127.02
142.78
164.49
190.82
219.37
246.75
268.76
281.05
279.95
263.64
232.69
189.95
139.50
85.49
31.25
-20.68
-67.97
-108.01
-138.06
-156.20
-162.16
-157.58
-145.24
-127.73
-106.67
-82.74
-56.62
-29.92
-5.50
13.46
24.77
28.38
26.46
22.41
19.20
18.13
18.47
18.16
15.25
9.17
1.23
-5.85
-9.07
-6.56
1.64
13.47
25.58
34.54
37.88
34.76
26.05
13.85
0.85
-10.53
-18.75
-23.62
-26.26
-28.67
-32.88
-40.01
-49.56
-59.28
-65.88
-66.18
-58.44
-43.13
-22.90
-1.71
16.53
29.27
36.08
38.43
38.86
39.67
42.07
45.82
49.69
52.24
52.59
50.80
47.64
44.21
41.58
40.55
41.68
45.34
51.69
60.51
71.12
82.27
92.14
98.58
99.46
93.31
79.70
59.37
33.85
4.69
-27.23
-62.01
-100.37
-142.95
-189.45
-238.33
-287.01
-332.48
-371.90
-402.97
-423.93
-433.48
-430.85
-416.02
-389.98
-354.71
-313.01
-268.00
-222.63
-179.23
-139.36
-103.89
-73.02
-46.55
-23.94
-4.35
13.33
30.52
48.84
69.74
93.79
120.25
146.76
169.89
186.24
193.70
192.25
183.80
171.29
157.33
143.51
130.25
117.43
105.16
93.98
84.59
77.15
70.96
64.46
56.05
44.88
31.47
17.66
5.97
-1.27
-2.76
1.45
10.16
21.63
34.14
46.41
57.54
66.90
73.90
78.02
79.06
77.33
73.75
69.54
65.88
63.50
62.51
62.55
63.03
63.39
63.27
62.52
61.12
59.11
56.56
53.48
49.92
45.90
41.48
36.74
31.81
26.84
22.01
17.37
12.81
8.03
2.64
-3.73
-11.18
-19.43
-27.69
-34.70
-39.03
-39.45
-35.36
-27.00
-15.49
-2.42
10.55
22.17
31.72
39.07
44.27
47.46
48.66
47.85
45.18
41.07
36.19
31.33
27.17
24.05
21.97
20.66
19.76
18.95
18.04
16.93
15.59
13.90
11.71
8.87
5.27
0.98
-3.81
-8.78
-13.62
-18.11
-22.19
-26.02
-29.92
-34.29
-39.49
-45.57
-52.08
-58.07
-62.27
-63.47
-60.88
-54.46
-44.88
-33.32
-21.06
-9.18
1.55
10.65
17.82
22.87
25.79
26.71
26.08
24.52
22.72
21.32
20.72
21.02
22.04
23.40
24.69
25.64
26.19
26.45
26.58
26.66
26.51
25.79
24.11
21.29
17.45
12.94
8.25
3.79
-0.23
-3.82
-7.19
-10.64
-14.53
-19.17
-24.68
-30.83
-36.92
-41.79
-44.10
-42.76
-37.30
-28.13
-16.40
-3.70
8.46
18.90
27.04
32.72
36.10
37.50
37.21
35.63
33.19
30.39
27.74
25.65
24.37
23.92
24.11
24.53
24.70
24.26
23.07
21.28
19.21
17.12
15.02
12.58
9.30
4.83
-0.79
-7.04
-13.08
-18.12
-21.74
-23.98
-25.35
-26.55
-28.26
-30.98
-34.78
-39.32
-43.69
-46.59
-46.54
-42.45
-33.96
-21.77
-7.47
6.90
19.46
29.01
35.25
38.58
39.70
39.24
37.59
34.87
31.21
26.84
22.25
17.94
14.35
11.63
9.72
8.38
7.39
6.70
6.29
6.19
6.30
6.32
5.84
4.46
2.06
-1.24
-4.99
-8.65
-11.75
-14.09
-15.75
-17.13
-18.77
-21.18
-24.66
-29.15
-34.11
-38.62
-41.47
-41.58
-38.20
-31.24
-21.32
-9.63
2.41
13.49
22.70
29.62
34.22
36.65
37.12
35.82
33.03
29.17
24.89
20.90
17.80
15.93
15.21
15.26
15.57
15.62
15.14
14.04
12.38
10.26
7.69
4.62
0.99
-3.18
-7.73
-12.37
-16.79
-20.75
-24.20
-27.26
-30.25
-33.50
-37.31
-41.78
-46.75
-51.73
-55.91
-58.36
-58.19
-54.83
-48.23
-38.88
-27.75
-16.07
-5.02
4.44
11.79
16.93
20.08
21.62
21.94
21.39
20.29
18.97
17.79
17.07
17.03
17.64
18.70
19.89
20.90
21.55
21.78
21.61
21.02
19.93
18.19
15.66
12.30
8.23
3.74
-0.78
-4.94
-8.51
-11.54
-14.36
-17.51
-21.49
-26.46
-32.04
-37.25
-40.73
-41.24
-38.09
-31.43
-22.18
-11.76
-1.60
7.22
14.07
18.75
21.30
21.88
20.74
18.24
14.86
11.15
7.61
4.66
2.59
1.51
1.41
2.12
3.35
4.66
5.59
5.77
4.99
3.22
0.62
-2.60
-6.21
-9.96
-13.58
-16.78
-19.28
-20.91
-21.76
-22.21
-22.80
-24.02
-25.90
-27.93
-29.07
-28.10
-24.12
-16.90
-7.10
3.98
14.78
23.95
30.62
34.49
35.63
34.28
30.83
25.82
19.97
14.17
9.27
5.84
4.00
3.43
3.63
4.12
4.65
5.13
5.46
5.45
4.80
3.25
0.77
-2.45
-6.05
-9.69
-13.20
-16.54
-19.81
-23.14
-26.65
-30.53
-34.99
-40.10
-45.63
-50.91
-54.81
-56.09
-53.79
-47.63
-38.19
-26.72
-14.76
-3.70
5.51
12.46
17.17
19.88
20.91
20.63
19.46
17.98
16.80
16.43
17.10
18.64
20.49
21.99
22.62
22.24
21.09
19.62
18.22
17.01
15.80
14.25
12.12
9.39
6.24
2.98
-0.18
-3.14
-6.00
-8.91
-12.05
-15.54
-19.39
-23.52
-27.61
-31.09
-33.18
-33.02
-29.97
-23.89
-15.28
-5.16
5.16
14.50
22.04
27.45
30.77
32.26
32.26
31.13
29.26
27.05
24.92
23.15
21.91
21.18
20.83
20.65
20.44
20.03
19.27
18.11
16.51
14.42
11.87
8.87
5.47
1.80
-2.05
-5.89
-9.56
-12.88
-15.79
-18.35
-20.77
-23.45
-26.82
-31.14
-36.26
-41.46
-45.52
-47.05
-44.95
-38.87
-29.32
-17.61
-5.37
5.87
15.08
21.77
25.97
27.97
28.17
26.99
24.81
22.04
19.07
16.30
14.04
12.49
11.68
11.41
11.39
11.28
10.80
9.85
8.53
7.01
5.47
3.94
2.32
0.40
-1.99
-4.90
-8.17
-11.46
-14.45
-16.89
-18.81
-20.49
-22.33
-24.73
-27.88
-31.69
-35.65
-39.03
-40.90
-40.41
-37.02
-30.67
-21.88
-11.61
-1.02
8.77
16.98
23.27
27.65
30.36
31.68
31.81
30.98
29.39
27.38
25.35
23.67
22.56
21.95
21.56
20.99
19.96
18.44
16.63
14.84
13.29
11.95
10.60
8.87
6.47
3.31
-0.43
-4.37
-8.05
-11.14
-13.51
-15.26
-16.68
-18.17
-20.09
-22.71
-26.05
-29.83
-33.43
-35.93
-36.32
-33.79
-28.14
-19.82
-9.93
0.17
9.30
16.80
22.52
26.69
29.64
31.50
32.25
31.78
30.13
27.60
24.69
22.07
20.26
19.54
19.81
20.62
21.30
21.26
20.25
18.42
16.24
14.23
12.67
11.43
10.07
8.13
5.39
2.02
-1.57
-4.91
-7.75
-10.13
-12.27
-14.43
-16.75
-19.24
-21.86
-24.59
-27.37
-29.98
-32.01
-32.76
-31.43
-27.36
-20.34
-10.77
0.34
11.65
21.81
29.89
35.54
38.99
40.85
41.79
42.29
42.60
42.82
43.00
43.27
43.74
44.36
44.81
44.56
43.09
40.18
36.03
31.20
26.40
22.17
18.68
15.75
13.02
10.14
6.89
3.24
-0.74
-4.96
-9.42
-14.19
-19.32
-24.81
-30.53
-36.30
-42.00
-47.61
-53.16
-58.52
-63.23
-66.47
-67.23
-64.74
-58.80
-49.97
-39.46
-28.72
-19.03
-11.23
-5.64
-2.16
-0.48
-0.21
-0.95
-2.36
-4.12
-5.89
-7.31
-8.10
-8.05
-7.15
-5.63
-3.91
-2.51
-1.83
-2.06
-3.11
-4.68
-6.45
-8.17
-9.84
-11.54
-13.46
-15.72
-18.27
-20.98
-23.63
-26.06
-28.21
-30.18
-32.09
-34.12
-36.39
-38.93
-41.70
-44.54
-47.17
-49.07
-49.56
-47.90
-43.51
-36.24
-26.52
-15.32
-3.83
6.87
16.12
23.76
29.96
34.96
38.85
41.52
42.82
42.76
41.67
40.14
38.82
38.23
38.53
39.55
40.84
41.88
42.25
41.70
40.16
37.68
34.36
30.27
25.41
19.83
13.63
7.01
0.29
-6.19
-12.06
-17.04
-21.03
-24.12
-26.54
-28.59
-30.52
-32.51
-34.60
-36.63
-38.20
-38.60
-36.86
-32.00
-23.39
-11.03
4.21
20.87
37.18
51.60
63.16
71.51
76.71
79.03
78.72
76.04
71.28
64.89
57.44
49.60
41.98
34.98
28.69
22.91
17.18
11.03
4.11
-3.53
-11.53
-19.28
-26.18
-31.83
-36.19
-39.50
-42.24
-44.97
-48.18
-52.20
-57.11
-62.67
-68.41
-73.67
-77.82
-80.44
-81.42
-80.99
-79.57
-77.58
-75.23
-72.41
-68.70
-63.47
-56.17
-46.57
-35.00
-22.36
-10.01
0.62
8.41
12.90
14.43
13.90
12.44
10.93
9.74
8.81
7.89
6.82
5.65
4.64
4.00
3.81
3.94
4.27
4.75
5.54
6.86
8.75
10.87
12.57
13.01
11.57
8.12
3.10
-2.54
-7.64
-11.20
-12.63
-11.95
-9.81
-7.27
-5.56
-5.64
-7.97
-12.25
-17.51
-22.30
-25.12
-24.82
-20.89
-13.62
-3.96
6.72
16.88
25.19
30.75
33.22
32.91
30.62
27.28
23.69
20.25
16.91
13.41
9.55
5.41
1.40
-1.93
-4.17
-5.22
-5.34
-4.94
-4.43
-4.05
-3.90
-4.02
-4.48
-5.45
-7.06
-9.35
-12.23
-15.44
-18.65
-21.62
-24.22
-26.53
-28.68
-30.85
-33.11
-35.40
-37.40
-38.56
-38.16
-35.49
-30.08
-21.85
-11.23
0.94
13.59
25.65
36.27
44.90
51.38
56.00
59.39
62.30
65.38
68.88
72.56
75.76
77.75
78.04
76.58
73.78
70.28
66.90
64.38
63.39
64.54
68.16
74.24
82.38
91.79
101.56
110.98
119.75
128.04
136.28
144.83
153.73
162.67
171.20
179.01
186.19
193.23
200.76
209.27
218.69
228.37
237.25
244.20
248.42
249.72
248.58
245.93
242.83
240.01
237.67
235.43
232.59
228.42
222.51
214.76
205.29
194.16
181.33
166.61
149.83
131.04
110.51
88.64
65.82
42.35
18.64
-4.68
-26.66
-46.18
-62.24
-74.30
-82.46
-87.44
-90.35
-92.42
-94.69
-98.02
-103.06
-110.43
-120.65
-133.98
-149.97
-167.20
-183.27
-195.35
-201.02
-199.19
-190.44
-176.72
-160.61
-144.52
-130.30
-119.35
-112.81
-111.52
-115.63
-124.10
-134.66
-144.32
-150.40
-151.47
-147.62
-140.18
-130.93
-121.49
-112.93
-105.80
-100.25
-96.15
-93.02
-90.24
-87.22
-83.75
-80.09
-76.77
-74.22
-72.41
-70.73
-68.30
-64.52
-59.52
-54.19
-49.81
-47.48
-47.43
-48.78
-49.63
-47.56
-40.32
-26.67
-6.84
17.22
42.33
65.03
82.53
93.54
98.35
98.37
95.30
90.46
84.52
77.79
70.63
63.68
57.78
53.55
51.13
49.61
47.97
45.54
42.25
38.32
33.72
28.07
20.71
11.19
-0.81
-14.73
-29.25
-42.81
-54.25
-63.33
-70.69
-77.49
-84.85
-94.55
-107.24
-121.87
-135.88
-146.09
-149.99
-146.64
-137.04
-123.80
-113.71
-112.55
-123.25
-145.15
-175.07
-209.20
-244.15
-277.32
-306.77
-337.96
-375.15
-419.29
-467.41
-514.79
-557.66
-594.20
-623.92
-646.86
-673.74
-712.41
-764.66
-825.72
-887.92
-945.27
-995.14
-1037.26
-1071.91
-1112.66
-1168.05
-1237.30
-1310.09
-1372.48
-1414.33
-1432.69
-1430.68
-1328.60
-1089.14
-723.89
-292.84
129.30
489.23
766.15
962.82
1093.22
1173.98
1206.36
1192.78
1141.17
1066.12
984.38
908.77
845.76
796.05
758.99
722.11
675.81
617.20
550.85
485.04
426.56
378.46
341.13
313.41
286.83
255.01
216.12
173.34
132.61
99.51
74.84
58.50
49.56
43.37
36.23
26.66
15.75
6.08
0.23
-0.14
6.12
19.36
37.89
59.79
83.47
108.06
133.27
158.97
184.93
211.19
237.84
265.07
293.05
321.49
349.10
373.37
390.85
398.28
394.05
378.83
355.40
327.61
298.95
271.55
246.03
222.08
199.25
177.55
157.30
138.73
121.75
105.89
90.49
75.08
59.41
43.53
27.77
12.65
-1.20
-13.08
-22.34
-28.45
-30.94
-29.47
-23.92
-14.49
-2.01
12.19
26.35
38.80
48.27
54.18
56.54
55.81
52.66
47.78
41.87
35.53
29.37
23.84
19.25
15.69
13.03
11.01
9.40
8.03
6.86
5.80
4.60
2.76
-0.33
-5.10
-11.60
-19.36
-27.57
-35.37
-42.16
-47.76
-52.43
-56.65
-61.06
-66.07
-71.67
-77.09
-80.84
-81.02
-75.92
-64.65
-47.57
-26.11
-2.26
22.03
45.26
66.50
85.16
100.79
113.00
121.61
126.87
129.60
131.03
132.57
135.35
140.04
146.68
154.93
164.24
174.08
183.93
193.05
200.35
204.57
204.48
199.33
189.07
174.12
155.08
132.45
106.56
77.85
47.00
14.80
-18.26
-52.31
-87.99
-125.53
-163.84
-199.90
-229.34
-247.81
-252.85
-244.93
-227.39
-205.23
-183.41
-165.45
-152.86
-145.45
-141.89
-140.28
-138.45
-134.30
-126.18
-113.43
-96.74
-78.01
-59.65
-43.58
-30.28
-18.33
-4.79
13.64
39.13
71.51
107.97
143.88
174.38
196.19
208.68
214.00
216.02
218.85
225.37
236.16
249.29
260.78
265.88
260.75
244.03
217.48
185.29
152.39
122.42
96.80
75.10
56.46
40.83
29.20
22.61
20.83
21.73
22.02
18.90
11.61
1.85
-7.22
-12.55
-12.61
-7.80
0.11
9.08
17.71
25.69
33.55
41.93
50.89
59.69
67.12
72.28
75.17
76.77
78.37
80.50
82.35
81.91
76.90
65.99
49.48
29.20
7.67
-13.01
-31.72
-48.32
-63.13
-76.33
-87.72
-96.80
-103.09
-106.44
-107.14
-105.84
-103.32
-100.25
-97.08
-94.07
-91.37
-89.13
-87.46
-86.24
-85.05
-83.13
-79.73
-74.48
-67.71
-60.48
-54.22
-50.24
-49.38
-51.73
-56.67
-62.99
-69.00
-72.90
-73.19
-69.21
-61.48
-51.66
-41.97
-34.55
-30.90
-31.61
-36.37
-44.01
-52.47
-58.89
-60.12
-53.70
-39.06
-18.18
4.69
24.38
36.73
40.11
35.89
27.73
19.94
15.94
17.45
24.52
36.34
51.92
70.45
91.10
112.87
134.57
155.03
173.39
189.25
202.43
212.54
218.85
220.35
216.09
205.62
189.15
167.54
142.17
114.90
87.89
63.41
43.23
28.22
18.12
12.04
9.04
8.48
9.98
12.75
15.21
15.06
10.04
-1.05
-17.58
-37.32
-57.22
-74.59
-88.01
-97.53
-104.33
-109.91
-115.32
-120.86
-126.13
-130.54
-133.87
-136.49
-139.16
-142.56
-146.81
-151.47
-155.90
-159.77
-163.35
-167.29
-172.11
-177.85
-184.06
-190.30
-196.49
-203.08
-210.35
-217.78
-223.70
-225.67
-221.40
-209.73
-190.81
-165.86
-136.53
-104.48
-71.52
-39.97
-12.66
7.53
18.66
20.67
15.43
6.18
-3.83
-12.37
-18.76
-23.52
-27.52
-31.29
-34.72
-37.30
-38.44
-37.85
-35.50
-31.48
-25.87
-18.74
-10.14
-0.02
11.90
26.26
43.71
64.36
86.99
108.73
125.54
133.45
130.00
115.25
91.89
64.30
37.28
14.85
-0.40
-7.34
-6.26
1.37
12.99
25.32
35.05
39.62
37.94
30.71
19.98
8.41
-1.69
-8.99
-13.36
-15.54
-16.62
-17.47
-18.54
-19.84
-21.38
-23.36
-26.19
-30.48
-36.69
-44.90
-54.80
-65.77
-77.03
-87.87
-97.73
-106.19
-112.85
-117.25
-118.96
-117.73
-113.73
-107.78
-101.35
-96.39
-95.05
-99.27
-110.41
-129.00
-154.39
-184.73
-216.98
-247.36
-271.95
-287.56
-292.18
-285.19
-267.10
-239.14
-202.78
-159.55
-111.02
-59.00
-5.89
45.03
89.62
123.53
143.45
148.60
141.59
127.87
113.94
104.74
102.01
104.06
107.42
108.88
106.89
101.59
93.74
83.59
70.58
54.14
34.67
14.12
-4.41
-17.95
-24.74
-24.87
-20.03
-12.79
-5.74
-0.85
0.95
-0.08
-2.69
-4.98
-5.14
-2.02
4.50
13.71
24.67
36.87
50.57
66.49
85.18
106.24
128.07
148.00
162.97
170.24
168.09
156.22
135.78
109.20
79.50
49.49
21.00
-5.76
-32.37
-61.74
-96.77
-138.69
-185.56
-231.88
-269.68
-291.00
-290.81
-269.00
-230.64
-184.18
-138.44
-99.90
-71.52
-53.24
-43.61
-41.47
-46.38
-58.32
-76.75
-100.08
-125.81
-151.12
-173.54
-191.40
-204.00
-211.47
-214.44
-213.69
-209.62
-202.00
-190.06
-173.16
-151.56
-126.84
-101.58
-78.39
-58.63
-41.80
-25.92
-8.92
10.14
30.54
50.60
68.70
83.93
96.17
105.60
112.42
117.08
120.63
124.83
131.37
140.99
152.58
163.49
170.71
172.32
168.26
160.00
149.40
137.60
124.74
110.44
94.57
77.79
61.45
47.21
36.52
30.18
28.32
30.58
36.32
44.92
55.85
68.67
82.76
97.08
110.15
120.30
126.32
128.09
126.82
124.69
123.81
125.08
127.48
128.17
123.57
110.91
89.51
61.22
29.86
-0.24
-25.67
-44.93
-58.61
-68.81
-78.32
-89.62
-104.28
-122.34
-142.09
-160.24
-172.40
-173.93
-160.92
-131.37
-86.38
-30.82
27.10
77.89
113.68
131.35
133.38
126.48
118.00
112.26
108.80
103.33
90.93
69.14
39.28
5.22
-28.94
-60.73
-89.25
-113.63
-131.49
-138.78
-131.66
-108.90
-73.85
-34.07
1.28
25.05
34.91
34.10
29.52
28.26
34.50
47.98
64.99
80.94
92.62
99.55
103.31
105.82
107.89
108.83
107.37
102.77
95.29
85.49
73.18
56.74
33.99
3.83
-32.07
-69.03
-100.76
-121.61
-128.63
-122.13
-104.85
-80.44
-52.21
-22.80
5.53
30.37
49.55
61.74
67.30
68.26
67.40
67.02
67.76
68.54
67.32
62.50
53.89
42.93
32.04
23.54
18.81
18.00
20.32
24.45
28.93
32.23
32.98
30.11
23.26
13.09
1.09
-10.85
-21.25
-29.60
-36.47
-43.12
-50.68
-59.56
-69.00
-77.42
-82.96
-84.10
-80.11
-71.04
-57.53
-40.60
-21.53
-1.86
16.66
32.26
43.53
49.86
51.64
50.23
47.48
45.12
44.21
44.89
46.61
48.48
49.75
50.10
49.64
48.66
47.44
46.05
44.31
41.84
38.30
33.43
27.21
19.98
12.38
5.24
-0.72
-5.29
-8.91
-12.52
-17.17
-23.50
-31.34
-39.70
-47.04
-51.63
-52.04
-47.38
-37.52
-23.11
-5.54
13.29
31.30
46.65
58.14
65.35
68.59
68.72
66.88
64.21
61.65
59.76
58.59
57.73
56.54
54.37
50.95
46.49
41.68
37.52
34.90
34.40
36.06
39.46
43.81
48.14
51.48
53.10
52.79
50.98
48.82
47.86
49.71
55.60
66.09
80.90
98.86
117.95
135.46
148.40
154.27
151.74
141.11
124.08
102.93
79.55
55.01
29.84
4.95
-17.74
-35.28
-44.60
-43.78
-32.82
-13.74
10.28
35.80
59.82
79.79
93.55
99.47
97.03
87.51
74.13
61.44
53.95
54.65
64.03
80.05
98.87
115.99
127.32
129.82
121.70
102.48
72.90
34.91
-8.34
-52.78
-94.01
-127.89
-151.22
-162.03
-159.73
-145.00
-119.57
-85.95
-47.28
-7.04
31.23
64.32
89.66
105.61
111.58
107.97
95.93
77.11
53.41
26.64
-1.80
-30.76
-59.07
-85.20
-107.24
-123.39
-132.75
-135.95
-135.01
-132.51
-130.35
-128.85
-126.73
-122.11
-113.78
-102.05
-88.73
-76.12
-65.72
-57.56
-50.16
-41.28
-28.69
-10.90
12.36
39.79
68.33
93.54
110.64
116.03
108.73
90.84
66.73
41.33
18.34
-0.75
-16.40
-29.95
-42.58
-54.77
-66.44
-77.44
-87.75
-97.25
-105.43
-111.37
-114.11
-113.16
-108.93
-102.60
-95.77
-89.88
-85.86
-83.98
-83.83
-84.46
-84.62
-82.87
-78.12
-70.01
-59.15
-47.03
-35.39
-25.56
-17.97
-12.19
-7.36
-2.85
1.52
5.59
9.47
13.82
19.96
29.36
42.98
60.49
79.89
97.61
109.20
110.80
100.52
79.51
51.85
23.19
-1.35
-18.97
-29.87
-36.45
-41.62
-47.30
-53.87
-60.69
-67.06
-72.94
-78.91
-85.58
-92.91
-100.07
-105.71
-108.55
-108.04
-104.54
-99.13
-93.03
-86.93
-80.68
-73.45
-64.43
-53.55
-41.82
-30.80
-21.69
-14.39
-7.42
1.28
13.03
27.48
42.73
56.34
66.65
73.37
77.24
79.20
79.52
77.87
73.94
68.14
61.77
56.53
53.64
53.22
54.25
54.95
53.56
48.80
40.07
27.29
10.80
-8.78
-30.49
-52.98
-74.62
-93.36
-106.71
-111.83
-106.10
-88.03
-58.35
-20.50
19.75
55.82
82.24
96.34
98.72
92.47
81.44
68.49
54.61
39.40
22.30
3.75
-14.59
-30.57
-42.69
-50.93
-56.42
-60.38
-63.01
-63.21
-59.26
-50.23
-36.81
-21.28
-6.34
6.27
16.43
25.10
33.02
39.48
42.26
38.60
26.91
8.15
-14.11
-34.68
-48.73
-53.40
-48.54
-36.44
-20.72
-5.12
7.21
14.19
14.72
8.64
-3.25
-19.40
-37.58
-55.33
-70.46
-81.55
-88.26
-91.38
-92.28
-92.34
-92.28
-91.98
-90.52
-86.88
-80.40
-71.24
-60.36
-49.04
-38.56
-29.75
-22.99
-18.23
-15.15
-13.26
-12.10
-11.53
-11.99
-14.58
-20.49
-30.36
-43.53
-58.05
-71.19
-80.59
-85.10
-85.10
-82.10
-77.97
-74.38
-72.58
-73.59
-78.15
-86.57
-98.35
-112.06
-125.78
-137.73
-147.04
-153.83
-158.77
-162.37
-164.60
-164.76
-161.76
-154.42
-141.82
-123.68
-100.79
-75.14
-49.81
-28.11
-12.48
-3.65
-0.50
-0.82
-2.39
-3.76
-4.49
-4.76
-4.93
-5.22
-5.73
-6.49
-7.27
-7.42
-5.74
-0.99
7.62
19.96
35.09
51.85
69.58
88.47
109.35
133.16
160.27
190.15
221.43
252.06
279.52
301.19
314.56
317.71
310.00
292.53
268.18
240.99
214.96
192.89
175.81
163.04
153.13
144.75
137.19
130.34
124.11
117.96
110.79
101.38
89.05
74.09
57.71
41.46
26.67
14.05
3.84
-3.89
-8.88
-10.74
-9.13
-4.09
3.69
13.06
22.48
30.45
35.77
37.74
36.36
32.29
26.62
20.59
15.08
10.35
6.02
1.45
-3.76
-9.41
-14.66
-18.44
-19.98
-19.13
-16.50
-13.05
-9.74
-7.18
-5.60
-5.00
-5.38
-6.83
-9.41
-13.02
-17.30
-21.74
-26.02
-30.19
-34.58
-39.47
-44.58
-48.85
-50.61
-48.16
-40.42
-27.32
-9.81
10.53
31.98
53.05
72.61
89.87
104.39
116.10
125.39
132.97
139.64
146.05
152.47
158.84
164.81
169.84
173.26
174.22
171.74
164.84
152.86
135.75
114.24
89.92
65.00
41.89
22.82
9.26
1.51
-1.50
-2.00
-2.59
-5.29
-10.67
-17.71
-24.34
-28.52
-29.31
-27.48
-25.33
-25.86
-31.79
-44.58
-64.01
-87.95
-112.58
-133.00
-144.51
-143.97
-131.08
-108.57
-81.44
-55.38
-35.09
-23.07
-19.08
-20.46
-23.06
-22.82
-17.47
-7.96
1.71
5.88
-0.02
-17.25
-42.91
-71.38
-96.98
-116.52
-129.97
-139.22
-146.04
-150.60
-151.75
-148.65
-142.27
-135.72
-132.79
-135.89
-144.29
-153.96
-159.28
-155.47
-140.80
-117.30
-89.87
-64.06
-43.90
-30.63
-22.87
-17.92
-13.31
-7.90
-2.00
3.23
6.81
8.54
9.04
9.45
10.69
13.22
16.95
21.55
26.63
31.90
37.07
41.66
45.05
46.60
45.92
43.01
38.31
32.58
26.71
21.53
17.63
15.22
14.13
14.00
14.52
15.72
18.09
22.32
29.01
38.11
49.04
60.77
72.26
82.67
91.09
96.16
95.87
88.09
71.43
46.28
15.09
-18.34
-50.06
-77.21
-98.58
-114.38
-125.71
-134.04
-141.07
-148.83
-159.27
-173.57
-191.35
-210.26
-226.63
-236.87
-238.89
-232.97
-221.41
-207.58
-194.45
-183.95
-176.67
-172.22
-169.82
-168.62
-167.86
-166.85
-165.14
-162.52
-159.30
-156.28
-154.61
-155.56
-160.07
-168.50
-180.41
-194.64
-209.61
-223.59
-235.01
-242.65
-245.68
-243.63
-236.34
-224.00
-207.04
-186.24
-162.64
-137.51
-112.16
-87.90
-65.75
-46.47
-30.39
-17.49
-7.42
0.50
7.13
13.56
20.95
30.55
43.70
61.84
86.19
117.35
154.74
196.36
239.14
279.82
315.92
346.09
370.02
387.59
398.43
401.98
398.07
387.63
372.66
355.55
337.98
320.45
302.49
283.68
264.43
246.08
230.20
217.79
208.92
203.05
199.62
198.58
200.19
204.49
211.00
218.74
226.70
234.36
241.94
250.18
259.73
270.08
279.01
282.59
276.28
256.58
222.79
178.06
128.87
83.31
48.67
29.41
26.36
37.19
57.60
82.60
107.37
127.89
141.44
147.06
145.64
139.41
130.77
121.34
111.47
100.36
86.93
70.51
51.12
29.25
5.37
-20.22
-47.07
-74.26
-100.29
-123.58
-143.16
-159.17
-172.65
-184.75
-195.74
-204.67
-209.76
-209.52
-203.73
-193.96
-183.12
-174.49
-170.74
-172.93
-180.04
-188.86
-194.49
-191.56
-175.87
-146.08
-104.46
-56.62
-9.80
29.28
56.26
69.91
71.79
64.97
52.82
38.10
22.74
8.09
-4.89
-15.48
-23.24
-28.16
-30.64
-31.50
-31.61
-31.74
-32.32
-33.45
-35.23
-37.98
-42.41
-49.45
-59.90
-73.91
-90.62
-108.11
-123.80
-135.14
-140.40
-139.30
-133.17
-124.53
-116.37
-111.36
-111.19
-116.02
-124.18
-132.13
-134.95
-127.57
-106.49
-71.44
-26.00
23.22
68.67
104.45
127.96
140.09
143.86
142.68
138.95
133.78
127.54
120.66
113.86
107.92
103.11
99.05
94.91
90.05
84.66
79.70
76.49
75.88
77.65
80.32
81.59
79.19
71.68
59.07
42.84
25.41
9.23
-4.07
-14.36
-23.02
-32.45
-45.04
-62.23
-83.58
-106.43
-126.25
-137.74
-136.52
-120.74
-92.04
-55.23
-16.79
17.24
43.02
59.58
68.31
71.55
71.39
68.98
64.77
59.11
52.68
46.40
41.18
37.34
34.61
32.41
30.19
27.86
25.79
24.63
24.91
26.66
29.22
31.31
31.47
28.57
22.33
13.52
3.71
-5.31
-12.27
-16.98
-20.43
-24.31
-30.41
-39.86
-52.78
-68.08
-83.48
-95.79
-101.55
-97.94
-83.71
-59.93
-29.73
2.60
33.02
58.87
79.27
94.53
105.17
111.15
111.78
106.41
95.08
79.10
60.69
42.41
26.23
13.25
3.57
-3.13
-7.22
-8.70
-7.32
-2.93
4.17
12.97
21.78
28.58
31.48
29.47
22.61
12.11
-0.27
-12.88
-24.86
-36.47
-48.73
-62.93
-79.97
-99.98
-122.17
-144.57
-164.00
-176.18
-176.53
-161.69
-131.20
-88.43
-40.18
5.44
41.62
64.98
75.99
77.78
74.15
67.98
60.73
53.04
45.56
39.33
35.51
34.59
35.96
38.04
38.96
37.48
33.62
28.58
24.10
21.56
21.13
21.70
21.13
17.32
9.07
-3.32
-18.22
-33.36
-46.76
-57.49
-65.91
-73.31
-81.39
-91.50
-103.92
-117.21
-128.19
-132.54
-126.28
-107.40
-77.12
-39.83
-1.69
31.44
55.95
71.08
78.41
80.34
78.97
75.45
70.27
63.65
56.05
48.04
40.17
32.85
26.24
20.48
15.69
12.04
9.67
8.64
8.78
9.63
10.42
10.15
7.89
3.15
-3.87
-12.30
-20.88
-28.56
-34.92
-40.43
-46.38
-54.30
-65.16
-78.49
-92.00
-101.82
-103.69
-94.57
-73.93
-44.28
-10.40
22.25
49.22
68.17
78.92
82.78
81.62
77.24
71.06
64.18
57.46
51.40
46.11
41.38
36.81
32.23
27.78
23.87
20.88
18.94
17.66
16.28
13.95
10.10
4.57
-2.30
-9.95
-17.78
-25.48
-33.07
-40.94
-49.72
-60.13
-72.48
-86.10
-98.92
-107.56
-108.24
-98.21
-77.12
-47.55
-14.32
17.14
42.59
60.06
69.86
73.69
73.48
70.70
66.21
60.53
54.16
47.69
41.63
36.16
31.25
26.77
22.67
19.18
16.64
15.23
14.76
14.54
13.58
10.91
6.01
-1.03
-9.59
-18.68
-27.45
-35.38
-42.47
-49.22
-56.46
-64.98
-74.93
-85.27
-93.63
-96.73
-91.54
-76.58
-52.75
-23.25
7.36
34.70
55.82
69.70
76.97
79.11
77.65
73.81
68.49
62.35
55.95
49.71
43.89
38.51
33.52
28.91
24.77
21.36
18.91
17.41
16.46
15.21
12.54
7.46
-0.45
-10.73
-22.17
-33.15
-42.24
-48.79
-53.11
-56.41
-60.32
-66.36
-75.39
-87.03
-99.31
-108.98
-112.13
-105.64
-88.31
-61.61
-29.34
3.58
32.71
55.23
70.30
78.64
81.67
80.84
77.28
71.88
65.36
58.35
51.38
44.73
38.56
32.96
28.10
24.24
21.63
20.39
20.28
20.61
20.43
18.78
15.04
9.20
1.88
-6.00
-13.54
-20.27
-26.22
-31.95
-38.35
-46.41
-56.74
-69.07
-81.70
-91.59
-95.07
-89.15
-72.93
-48.13
-18.76
10.21
34.55
51.83
61.66
65.15
63.99
59.78
53.76
46.92
40.11
34.00
29.05
25.30
22.51
20.27
18.21
16.27
14.63
13.60
13.31
13.45
13.27
11.70
7.82
1.23
-7.69
-17.85
-27.79
-36.24
-42.55
-46.90
-50.28
-54.17
-60.01
-68.67
-79.90
-91.96
-101.88
-106.12
-101.80
-87.74
-65.12
-37.14
-7.95
18.58
40.00
55.50
65.50
70.96
72.83
71.81
68.58
63.91
58.69
53.77
49.64
46.35
43.57
40.85
37.82
34.43
30.93
27.73
25.23
23.51
22.24
20.59
17.61
12.60
5.55
-2.77
-11.12
-18.29
-23.67
-27.60
-31.10
-35.42
-41.50
-49.66
-59.44
-69.73
-78.74
-84.29
-84.23
-77.02
-62.47
-41.98
-18.37
4.90
24.81
39.58
48.85
53.27
53.88
51.52
46.71
39.89
31.67
23.06
15.22
9.20
5.57
4.33
5.00
6.88
9.43
12.38
15.72
19.45
23.28
26.46
27.88
26.35
21.16
12.45
1.24
-10.82
-21.99
-30.96
-37.18
-40.93
-43.11
-44.92
-47.55
-51.75
-57.48
-63.69
-68.34
-69.00
-63.60
-51.25
-32.61
-9.79
14.40
37.18
56.42
70.89
80.17
84.50
84.56
81.37
76.14
70.13
64.45
59.81
56.47
54.26
52.75
51.50
50.18
48.72
47.33
46.34
46.02
46.43
47.25
47.85
47.45
45.41
41.46
35.80
29.11
22.31
16.26
11.46
7.81
4.60
0.71
-4.92
-12.65
-21.59
-29.53
-33.46
-30.78
-20.44
-3.61
16.59
36.29
52.22
62.83
68.44
70.71
71.60
72.52
73.76
74.34
72.10
64.20
48.04
22.34
-11.87
-50.96
-89.44
-121.65
-143.50
-153.64
-153.55
-146.57
-136.49
-126.24
-117.47
-110.48
-104.79
-99.50
-93.71
-86.61
-77.73
-67.10
-55.33
-43.75
-34.10
-28.13
-26.81
-29.54
-33.77
-35.46
-30.20
-14.99
10.51
43.45
78.74
110.79
135.36
150.68
157.39
157.64
153.83
147.75
140.40
132.21
123.51
114.67
105.98
97.50
88.88
79.60
69.22
57.67
45.28
32.53
19.55
5.80
-9.91
-28.89
-51.75
-77.86
-105.14
-130.64
-151.41
-165.53
-172.67
-174.14
-172.33
-170.10
-169.91
-173.05
-179.12
-185.64
-188.23
-181.53
-160.85
-124.15
-73.46
-15.04
42.26
89.60
120.93
134.44
132.53
119.98
101.88
82.00
62.39
43.90
27.08
12.75
1.92
-4.61
-6.75
-5.36
-2.04
1.35
3.09
2.02
-2.26
-9.43
-18.65
-28.84
-39.05
-48.72
-57.72
-66.28
-74.90
-84.19
-94.78
-106.75
-119.13
-129.25
-132.91
-125.48
-103.78
-68.00
-22.39
25.62
67.87
98.18
114.10
117.09
110.89
99.47
85.53
70.19
53.75
36.83
20.90
8.08
0.32
-1.61
1.43
7.16
12.73
15.70
14.86
10.47
3.85
-3.23
-9.44
-14.30
-18.13
-21.85
-26.35
-32.30
-40.03
-49.72
-61.22
-73.68
-85.07
-92.07
-90.90
-78.88
-55.80
-24.67
9.15
39.72
62.64
76.16
81.18
80.00
75.02
67.82
59.15
49.45
39.35
29.77
21.67
15.71
11.95
9.97
9.03
8.40
7.61
6.48
5.07
3.43
1.48
-1.17
-4.96
-10.26
-17.05
-24.92
-33.16
-41.19
-48.83
-56.41
-64.43
-72.91
-80.89
-86.29
-86.49
-79.31
-63.96
-41.56
-14.90
12.40
36.96
56.43
69.83
77.40
80.16
79.41
76.39
72.05
67.02
61.59
55.80
49.66
43.19
36.61
30.30
24.78
20.58
18.05
17.10
17.09
16.92
15.32
11.26
4.42
-4.78
-15.17
-25.39
-34.27
-41.37
-47.01
-52.24
-58.37
-66.31
-76.07
-86.38
-94.88
-98.70
-95.42
-83.93
-64.89
-40.56
-14.11
11.24
32.98
49.63
60.80
66.93
69.04
68.38
66.08
63.05
59.80
56.49
53.12
49.69
46.26
42.88
39.65
36.60
33.78
31.31
29.30
27.66
25.99
23.56
19.50
13.24
4.75
-5.32
-15.86
-25.77
-34.26
-41.18
-46.97
-52.48
-58.63
-66.05
-74.77
-83.90
-91.67
-95.61
-93.32
-83.25
-65.46
-41.83
-15.70
9.07
29.29
43.33
51.41
55.16
56.80
58.24
60.44
63.34
66.22
68.20
68.71
67.67
65.30
61.97
57.97
53.44
48.53
43.52
38.82
34.79
31.63
29.15
26.86
24.12
20.30
15.04
8.29
0.33
-8.30
-16.89
-24.76
-31.42
-36.75
-41.03
-44.87
-49.08
-54.50
-61.75
-70.99
-81.71
-92.54
-101.37
-105.78
-103.65
-93.82
-76.59
-53.68
-27.92
-2.46
19.97
37.73
50.35
58.45
63.21
65.81
67.11
67.47
66.98
65.68
63.75
61.51
59.31
57.34
55.65
54.20
52.89
51.66
50.36
48.75
46.49
43.28
39.02
33.85
28.08
22.00
15.76
9.30
2.48
-4.76
-12.27
-19.70
-26.67
-32.88
-38.26
-42.96
-47.34
-51.84
-56.97
-63.15
-70.48
-78.45
-85.69
-90.11
-89.47
-82.10
-67.64
-47.37
-23.82
-0.02
21.33
38.61
51.38
60.15
65.89
69.57
71.93
73.35
73.97
73.85
73.06
71.70
69.89
67.74
65.33
62.83
60.43
58.40
56.89
55.77
54.59
52.74
49.63
44.97
38.88
31.83
24.40
17.05
10.03
3.29
-3.36
-10.16
-17.18
-24.31
-31.28
-37.70
-43.30
-48.00
-52.06
-56.10
-60.98
-67.52
-76.06
-86.01
-95.70
-102.52
-103.69
-97.16
-82.42
-60.82
-35.19
-9.04
14.49
33.45
47.19
56.24
61.71
64.79
66.38
66.93
66.56
65.20
62.82
59.60
55.91
52.26
49.14
46.90
45.66
45.43
45.99
46.95
47.71
47.50
45.54
41.18
34.15
24.62
13.26
0.89
-11.55
-23.28
-33.67
-42.32
-49.14
-54.26
-58.08
-61.17
-64.11
-67.50
-71.82
-77.45
-84.32
-91.67
-97.94
-100.81
-97.94
-87.68
-69.96
-46.46
-20.24
5.19
26.90
43.28
54.22
60.60
63.76
64.77
64.22
62.26
58.96
54.58
49.68
45.00
41.20
38.64
37.28
36.79
36.74
36.70
36.30
35.25
33.34
30.43
26.57
21.97
16.96
11.81
6.65
1.38
-4.18
-10.17
-16.47
-22.69
-28.31
-32.86
-36.16
-38.46
-40.39
-42.92
-47.15
-54.05
-64.06
-76.47
-89.22
-99.05
-102.36
-96.47
-80.73
-57.00
-29.09
-1.54
21.93
39.28
50.39
56.36
58.77
58.98
57.84
55.83
53.14
49.86
46.03
41.68
36.95
32.12
27.65
24.05
21.74
20.82
21.01
21.66
22.02
21.40
19.42
15.98
11.24
5.47
-1.06
-8.07
-15.29
-22.43
-29.18
-35.32
-40.71
-45.34
-49.35
-52.97
-56.60
-60.83
-66.31
-73.60
-82.65
-92.39
-100.62
-104.44
-101.11
-89.20
-69.23
-43.68
-16.27
9.18
29.77
44.04
51.93
54.33
52.62
48.24
42.52
36.48
30.75
25.58
20.87
16.46
12.29
8.44
5.02
2.05
-0.72
-3.75
-7.53
-12.54
-19.01
-27.04
-36.56
-47.39
-59.24
-71.77
-84.58
-97.35
-109.88
-122.09
-134.04
-145.84
-157.57
-169.17
-180.47
-191.19
-201.13
-210.30
-218.85
-226.81
-233.66
-237.97
-237.60
-230.26
-214.46
-190.25
-159.47
-125.07
-90.16
-56.87
-25.80
3.84
33.49
64.16
95.67
126.40
153.82
175.31
189.01
194.31
191.81
182.99
169.73
153.82
136.70
119.25
101.56
82.82
61.37
35.23
2.92
-35.66
-78.70
-122.68
-163.27
-196.63
-220.44
-234.55
-240.68
-241.58
-239.81
-236.88
-232.84
-226.68
-217.09
-203.20
-185.06
-163.72
-141.13
-119.69
-101.74
-88.82
-81.10
-77.16
-74.32
-69.59
-60.69
-46.83
-28.78
-8.25
13.09
34.24
55.16
76.39
98.64
122.33
147.26
172.60
196.80
217.94
234.18
244.36
248.44
247.51
243.31
237.45
230.83
223.35
214.19
202.43
187.59
169.97
150.50
130.43
110.86
92.59
75.99
61.16
48.06
36.63
26.74
18.20
10.66
3.65
-3.25
-10.44
-18.27
-27.06
-37.16
-48.63
-60.95
-72.76
-81.92
-86.00
-83.05
-72.39
-54.87
-32.59
-8.26
15.67
37.50
56.36
71.84
83.74
91.79
95.92
96.47
94.33
90.81
87.28
84.72
83.47
83.31
83.69
84.11
84.30
84.25
84.13
84.08
84.23
84.53
84.85
84.90
84.27
82.51
79.23
74.26
67.77
60.20
52.10
43.98
36.14
28.65
21.41
14.12
6.32
-2.58
-13.14
-25.50
-39.07
-52.33
-62.96
-68.49
-67.01
-57.97
-42.39
-22.65
-1.70
17.81
34.19
46.90
56.26
62.93
67.51
70.34
71.58
71.46
70.40
69.00
67.84
67.27
67.39
68.06
69.06
70.25
71.53
72.81
73.91
74.48
74.07
72.23
68.63
63.12
55.75
46.80
36.79
26.44
16.44
7.37
-0.54
-7.42
-13.74
-20.08
-26.97
-34.79
-43.69
-53.47
-63.53
-72.76
-79.56
-82.17
-79.15
-69.98
-55.28
-36.69
-16.44
3.31
20.93
35.56
46.96
55.23
60.63
63.47
64.12
63.09
60.98
58.49
56.17
54.43
53.43
53.13
53.34
53.74
54.01
53.80
52.92
51.31
49.09
46.48
43.66
40.67
37.35
33.48
28.91
23.67
18.06
12.54
7.54
3.34
-0.08
-3.05
-6.09
-9.82
-14.64
-20.52
-26.78
-32.10
-34.65
-32.61
-24.68
-10.55
8.92
31.90
56.13
79.51
100.58
118.73
134.01
146.78
157.39
166.00
172.46
176.61
178.30
177.45
173.95
167.49
157.51
143.55
125.55
104.20
81.05
58.09
37.17
19.45
5.03
-6.87
-17.41
-27.56
-37.71
-47.69
-57.06
-65.51
-73.04
-79.83
-85.86
-90.71
-93.66
-94.16
-92.37
-89.21
-85.97
-83.25
-80.39
-75.42
-66.06
-51.09
-31.39
-9.92
9.30
22.73
28.69
27.77
22.30
15.35
9.51
6.34
6.31
9.12
14.18
20.87
28.58
36.58
43.91
49.44
52.14
51.43
47.38
40.75
32.59
23.96
15.47
7.30
-0.76
-8.98
-17.56
-26.51
-35.70
-44.87
-53.77
-62.10
-69.71
-76.61
-82.97
-88.97
-94.79
-100.37
-105.57
-110.26
-114.46
-118.31
-121.91
-125.08
-127.18
-127.20
-124.07
-117.09
-106.31
-92.55
-77.24
-61.96
-48.08
-36.38
-27.09
-19.94
-14.40
-9.96
-6.19
-2.80
0.45
3.70
7.00
10.31
13.45
16.20
18.35
19.83
20.74
21.30
21.71
22.03
22.05
21.31
19.22
15.33
9.53
2.22
-5.85
-13.75
-20.73
-26.45
-31.04
-35.04
-39.12
-43.88
-49.59
-56.11
-62.87
-68.94
-73.15
-74.33
-71.56
-64.55
-53.85
-40.75
-27.00
-14.31
-3.89
3.79
8.93
12.09
13.83
14.48
14.20
13.14
11.57
10.00
8.91
8.68
9.24
10.28
11.31
11.92
12.01
11.70
11.28
10.85
10.28
9.15
7.03
3.67
-0.77
-5.75
-10.61
-14.81
-18.22
-21.08
-23.95
-27.49
-32.28
-38.61
-46.29
-54.60
-62.29
-67.72
-69.31
-65.98
-57.61
-45.15
-30.36
-15.31
-1.78
9.12
17.09
22.46
25.89
28.10
29.61
30.67
31.30
31.40
30.93
29.98
28.76
27.48
26.21
24.91
23.44
21.74
19.92
18.20
16.78
15.65
14.53
12.95
10.49
6.93
2.46
-2.48
-7.32
-11.68
-15.42
-18.80
-22.31
-26.48
-31.73
-38.19
-45.55
-53.04
-59.48
-63.41
-63.44
-58.69
-49.15
-35.83
-20.57
-5.46
7.76
18.08
25.37
30.05
32.73
33.92
33.99
33.19
31.81
30.16
28.56
27.18
26.00
24.78
23.26
21.26
18.89
16.44
14.35
12.87
12.04
11.48
10.61
8.87
5.86
1.59
-3.62
-9.18
-14.51
-19.06
-22.57
-25.12
-27.14
-29.32
-32.47
-37.16
-43.40
-50.44
-56.78
-60.56
-60.09
-54.44
-43.86
-29.72
-14.14
0.70
13.12
22.32
28.27
31.41
32.34
31.55
29.45
26.45
23.03
19.65
16.70
14.35
12.54
11.11
9.88
8.82
8.02
7.61
7.60
7.83
7.91
7.34
5.64
2.53
-2.02
-7.62
-13.64
-19.31
-24.07
-27.70
-30.48
-33.18
-36.72
-41.84
-48.64
-56.39
-63.54
-68.11
-68.28
-63.02
-52.48
-37.97
-21.50
-5.26
8.98
20.27
28.39
33.66
36.66
37.93
37.91
37.00
35.46
33.56
31.41
29.03
26.42
23.57
20.63
17.82
15.38
13.41
11.88
10.61
9.29
7.65
5.46
2.54
-1.20
-5.79
-11.08
-16.72
-22.24
-27.11
-31.01
-33.92
-36.24
-38.64
-41.82
-46.22
-51.72
-57.50
-62.15
-64.03
-61.74
-54.65
-43.12
-28.47
-12.56
2.74
16.02
26.55
34.19
39.22
42.04
43.07
42.74
41.53
40.00
38.62
37.73
37.35
37.28
37.18
36.66
35.46
33.51
30.96
28.19
25.60
23.48
21.85
20.32
18.27
15.07
10.39
4.40
-2.27
-8.74
-14.23
-18.39
-21.40
-23.91
-26.79
-30.82
-36.47
-43.58
-51.32
-58.25
-62.61
-62.76
-57.76
-47.70
-33.78
-18.02
-2.62
10.61
20.71
27.59
31.85
34.35
35.84
36.81
37.42
37.62
37.25
36.28
34.77
32.95
31.06
29.26
27.58
25.95
24.31
22.71
21.29
20.25
19.55
18.89
17.77
15.59
11.99
7.02
1.10
-5.08
-10.88
-15.86
-19.95
-23.39
-26.60
-30.04
-34.09
-38.99
-44.67
-50.64
-55.93
-59.19
-58.98
-54.30
-44.98
-31.82
-16.54
-1.15
12.51
23.29
30.81
35.39
37.69
38.44
38.24
37.44
36.24
34.80
33.24
31.77
30.57
29.71
29.08
28.44
27.52
26.20
24.54
22.78
21.18
19.86
18.62
17.06
14.64
10.95
6.01
0.15
-5.98
-11.66
-16.40
-20.02
-22.73
-25.06
-27.72
-31.41
-36.59
-43.25
