1675148558.00
64.000000
-0.00
-0.00
-0.00
-0.00
-0.00
-0.00
-0.00
-0.00
-0.00
-0.00
0.00
0.01
0.01
-0.00
-0.03
-0.05
-0.05
0.00
0.13
0.36
0.66
1.01
1.37
1.72
2.06
2.40
2.79
3.24
3.80
4.42
5.06
5.66
6.20
6.68
7.15
7.68
8.31
9.14
10.09
11.04
11.88
12.56
13.14
13.76
14.65
15.96
17.91
20.32
22.90
25.38
27.58
29.57
31.68
34.32
37.81
42.54
48.15
54.10
59.83
64.97
69.58
74.14
79.34
85.71
93.76
103.00
112.62
121.73
129.77
136.75
143.30
150.75
157.77
166.64
177.95
191.79
206.97
220.57
228.25
225.36
208.53
176.87
132.76
80.05
23.07
-34.94
-92.44
-149.16
-205.23
-260.37
-313.74
-363.87
-409.83
-450.91
-486.50
-515.74
-537.23
-549.22
-549.96
-538.37
-514.21
-478.67
-433.88
-382.45
-327.02
-269.84
-212.63
-156.66
-102.95
-52.37
-5.90
35.58
71.43
101.35
125.50
144.38
158.69
169.15
176.37
180.75
182.57
182.07
179.51
175.23
169.65
163.18
156.15
148.81
141.30
133.69
126.02
118.33
110.69
103.16
95.80
88.68
81.83
75.25
68.95
62.95
57.25
51.86
46.78
42.03
37.59
33.45
29.61
26.07
22.81
19.83
17.11
14.67
12.48
10.54
8.83
7.35
6.07
4.97
4.05
3.27
2.62
2.09
1.65
1.30
1.01
0.79
0.61
0.47
0.37
0.28
0.22
0.18
0.15
0.13
0.12
0.12
0.13
0.15
0.17
0.19
0.23
0.26
0.30
0.34
0.39
0.44
0.48
0.53
0.58
0.63
0.68
0.75
0.83
0.92
1.00
1.06
1.09
1.10
1.10
1.12
1.19
1.32
1.50
1.72
1.94
2.13
2.31
2.49
2.71
3.00
3.39
3.84
4.33
4.80
5.19
5.52
5.84
6.24
6.80
7.54
8.43
9.32
10.09
10.61
10.93
11.16
11.53
12.24
13.37
14.78
16.15
17.11
17.34
16.76
15.50
13.90
12.21
10.55
8.66
6.11
2.37
-2.86
-9.42
-16.71
-23.87
-30.15
-35.09
-38.70
-41.40
-43.72
-46.18
-49.18
-53.00
-57.57
-62.18
-65.32
-64.92
-59.14
-47.34
-30.72
-12.11
5.00
17.84
25.29
28.01
27.68
26.01
23.99
21.91
19.71
17.51
15.72
14.81
14.97
15.93
17.01
17.53
16.95
15.22
12.82
10.47
8.94
8.70
9.66
11.26
12.54
12.64
11.05
7.97
4.12
0.49
-1.97
-2.68
-1.54
1.08
4.65
8.67
12.92
17.30
21.71
25.89
29.40
31.83
33.06
33.47
33.50
33.98
35.49
37.95
40.61
42.31
42.15
39.75
35.37
29.56
22.89
15.50
7.12
-2.71
-14.55
-29.01
-46.81
-68.61
-94.64
-123.98
-154.18
-181.49
-201.72
-211.65
-210.20
-198.92
-181.46
-162.24
-145.11
-132.32
-124.31
-120.13
-118.24
-117.19
-116.00
-114.09
-111.19
-107.27
-102.59
-97.81
-93.77
-91.17
-89.93
-88.91
-86.18
-79.86
-69.19
-55.37
-41.62
-32.29
-31.22
-40.13
-57.62
-79.29
-99.01
-110.66
-110.00
-95.64
-68.90
-33.07
7.90
50.28
91.19
129.04
163.83
197.19
231.80
270.08
312.56
356.73
397.03
426.68
439.97
434.38
411.35
375.12
330.73
281.99
230.85
178.14
125.24
75.17
32.55
2.18
-13.00
-13.30
-2.37
14.28
31.32
45.34
55.26
61.48
64.67
64.68
60.69
52.10
39.49
24.98
11.68
2.38
-1.49
-0.30
3.99
8.99
12.85
14.91
15.70
16.47
18.44
22.25
27.79
34.30
40.81
46.56
51.14
54.60
57.25
59.45
61.49
63.64
65.98
68.27
69.59
68.54
63.69
54.50
42.01
28.73
17.79
11.66
11.14
15.27
22.12
29.91
37.87
46.11
55.03
64.57
74.02
82.38
89.05
94.21
98.75
103.73
109.73
116.57
123.34
128.98
132.82
135.01
136.48
138.47
141.80
146.20
150.09
150.83
145.47
131.68
108.52
76.77
38.58
-3.27
-46.29
-88.97
-131.06
-173.20
-216.48
-261.95
-310.29
-361.69
-415.66
-470.72
-523.94
-570.84
-605.89
-623.84
-621.48
-598.94
-560.03
-510.84
-457.56
-404.37
-352.67
-302.07
-252.30
-204.86
-163.05
-130.23
-107.56
-92.82
-81.41
-69.06
-54.54
-40.12
-29.51
-24.53
-23.15
-20.27
-11.06
5.63
26.24
44.64
55.96
59.63
59.48
61.09
68.31
81.25
96.87
111.25
121.73
127.69
129.73
128.60
124.89
119.50
114.34
111.99
114.39
121.30
129.55
133.94
129.68
114.91
91.73
65.35
41.89
26.06
20.32
25.58
42.71
73.27
118.36
176.38
241.01
301.46
345.40
363.36
352.39
316.85
266.20
210.94
158.93
114.13
77.26
47.86
25.91
12.09
6.97
9.83
18.09
27.89
35.21
37.18
32.78
23.04
10.23
-3.03
-14.77
-24.15
-31.40
-37.26
-42.33
-46.64
-49.64
-50.70
-49.58
-46.81
-43.53
-41.07
-40.38
-41.72
-44.74
-48.66
-52.77
-56.48
-59.49
-61.64
-62.96
-63.60
-63.90
-64.18
-64.66
-65.22
-65.52
-65.13
-63.83
-61.88
-59.96
-58.99
-59.76
-62.61
-67.21
-72.61
-77.44
-80.30
-80.11
-76.41
-69.43
-60.06
-49.50
-38.95
-29.40
-21.40
-15.14
-10.58
-7.59
-5.97
-5.47
-5.72
-6.20
-6.36
-5.73
-4.10
-1.57
1.53
4.82
8.00
10.94
13.59
15.84
17.53
18.43
18.38
17.43
15.81
13.82
11.75
9.77
7.89
6.08
4.26
2.39
0.40
-1.77
-4.16
-6.75
-9.44
-12.08
-14.58
-17.00
-19.68
-23.03
-27.39
-32.75
-38.60
-43.93
-47.43
-47.92
-44.69
-37.87
-28.38
-17.70
-7.34
1.51
8.32
13.07
16.12
17.89
18.67
18.75
18.36
17.85
17.59
17.86
18.72
20.03
21.47
22.79
23.80
24.46
24.80
24.90
24.76
24.32
23.52
22.32
20.83
19.18
17.53
15.89
14.13
12.01
9.36
6.14
2.56
-1.10
-4.63
-8.00
-11.36
-14.97
-19.03
-23.52
-28.21
-32.66
-36.28
-38.39
-38.37
-35.81
-30.63
-23.29
-14.65
-5.81
2.17
8.53
12.98
15.58
16.66
16.52
15.48
13.84
11.96
10.32
9.39
9.49
10.59
12.33
14.15
15.57
16.39
16.79
17.14
17.78
18.74
19.69
20.13
19.68
18.18
15.89
13.25
10.64
8.32
6.26
4.28
2.21
-0.04
-2.45
-4.96
-7.54
-10.34
-13.60
-17.54
-22.18
-27.14
-31.64
-34.67
-35.29
-33.01
-28.07
-21.29
-13.89
-6.98
-1.32
2.87
5.74
7.59
8.63
8.95
8.53
7.55
6.31
5.31
5.03
5.71
7.24
9.19
10.97
12.07
12.26
11.58
10.28
8.63
6.82
4.93
2.92
0.75
-1.69
-4.57
-8.04
-12.26
-17.25
-22.72
-28.25
-33.36
-37.63
-40.95
-43.48
-45.59
-47.81
-50.69
-54.56
-59.38
-64.65
-69.36
-72.34
-72.69
-70.25
-65.80
-60.90
-57.26
-56.11
-57.77
-61.67
-66.71
-71.80
-76.21
-79.60
-81.95
-83.29
-83.65
-83.02
-81.43
-79.00
-75.84
-72.04
-67.56
-62.19
-55.63
-47.71
-38.59
-28.91
-19.83
-12.66
-8.32
-7.03
-8.11
-10.31
-12.28
-13.10
-12.56
-11.13
-9.65
-9.01
-9.84
-12.43
-16.68
-22.26
-28.72
-35.62
-42.56
-49.06
-54.34
-57.34
-56.95
-52.52
-44.22
-33.19
-21.14
-9.75
-0.03
7.82
14.25
19.91
25.18
30.12
34.52
38.20
41.17
43.61
45.80
47.88
49.80
51.27
51.90
51.37
49.59
46.81
43.50
40.22
37.34
34.93
32.72
30.42
27.82
25.00
22.27
20.06
18.68
18.09
17.99
17.82
17.06
15.36
12.70
9.37
5.85
2.74
0.67
0.33
2.32
7.04
14.46
24.00
34.53
44.64
53.00
58.80
61.98
63.08
62.93
62.22
61.25
59.99
58.29
56.08
53.63
51.36
49.60
48.44
47.59
46.52
44.79
42.27
39.18
35.90
32.76
29.80
26.86
23.65
20.06
16.20
12.38
8.96
6.06
3.68
1.67
-0.12
-1.71
-3.06
-4.17
-5.11
-6.19
-7.75
-10.01
-12.94
-16.10
-18.74
-20.00
-19.21
-16.09
-10.89
-4.33
2.64
9.13
14.44
18.19
20.38
21.22
21.12
20.57
20.10
20.11
20.85
22.33
24.36
26.58
28.65
30.31
31.44
32.04
32.23
32.13
31.86
31.49
30.98
30.24
29.16
27.69
25.89
23.94
22.03
20.27
18.63
16.99
15.18
13.13
10.85
8.41
5.80
2.90
-0.53
-4.67
-9.41
-14.32
-18.66
-21.59
-22.39
-20.75
-16.82
-11.23
-4.80
1.69
7.60
12.60
16.52
19.32
21.02
21.70
21.59
21.07
20.61
20.70
21.63
23.41
25.74
28.13
30.12
31.39
31.87
31.72
31.19
30.46
29.58
28.41
26.74
24.48
21.69
18.64
15.64
12.98
10.75
8.86
7.08
5.17
3.00
0.56
-2.18
-5.20
-8.54
-12.11
-15.57
-18.31
-19.57
-18.76
-15.70
-10.79
-4.85
1.15
6.43
10.65
13.88
16.35
18.31
19.90
21.12
22.02
22.70
23.36
24.14
25.10
26.15
27.10
27.74
27.91
27.52
26.56
25.15
23.47
21.78
20.30
19.10
18.09
17.05
15.70
13.94
11.85
9.59
7.33
5.14
2.97
0.75
-1.51
-3.72
-5.80
-7.76
-9.77
-11.99
-14.43
-16.82
-18.68
-19.39
-18.50
-15.87
-11.68
-6.44
-0.81
4.53
9.03
12.33
14.39
15.37
15.64
15.63
15.70
16.12
16.98
18.22
19.70
21.25
22.67
23.81
24.57
24.82
24.51
23.65
22.33
20.75
19.10
17.49
15.84
14.00
11.79
9.21
6.42
3.67
1.19
-0.94
-2.74
-4.36
-5.84
-7.26
-8.67
-10.25
-12.24
-14.92
-18.29
-22.01
-25.40
-27.63
-28.00
-26.21
-22.46
-17.35
-11.62
-5.99
-0.88
3.57
7.38
10.71
13.60
16.01
17.79
18.86
19.19
18.97
18.47
18.04
17.88
18.01
18.24
18.28
17.88
16.96
15.68
14.28
13.07
12.18
11.55
11.02
10.35
9.36
7.93
6.13
4.08
2.02
0.15
-1.40
-2.66
-3.83
-5.25
-7.29
-10.13
-13.66
-17.47
-20.92
-23.32
-24.17
-23.24
-20.67
-16.86
-12.42
-7.98
-4.02
-0.79
1.67
3.52
4.95
6.12
7.15
8.10
9.03
9.96
10.87
11.66
12.18
12.38
12.30
12.10
11.98
12.04
12.22
12.33
12.17
11.66
10.78
9.67
8.39
6.99
5.48
3.88
2.22
0.56
-1.05
-2.58
-4.03
-5.43
-6.80
-8.23
-9.82
-11.67
-13.85
-16.38
-19.15
-21.98
-24.56
-26.48
-27.25
-26.41
-23.74
-19.40
-13.99
-8.38
-3.44
0.31
2.77
4.27
5.23
5.99
6.70
7.34
7.84
8.24
8.66
9.15
9.70
10.17
10.38
10.21
9.67
8.82
7.76
6.52
5.14
3.67
2.23
0.93
-0.15
-1.07
-1.95
-2.95
-4.19
-5.62
-7.12
-8.54
-9.78
-10.89
-11.99
-13.18
-14.49
-15.83
-17.13
-18.36
-19.61
-20.91
-22.13
-22.92
-22.76
-21.29
-18.45
-14.59
-10.33
-6.29
-2.80
0.02
2.23
3.84
4.76
4.85
4.14
2.93
1.68
0.89
0.79
1.32
2.14
2.85
3.12
2.90
2.35
1.71
1.18
0.82
0.57
0.29
-0.14
-0.74
-1.49
-2.39
-3.45
-4.66
-5.98
-7.26
-8.29
-8.94
-9.19
-9.20
-9.22
-9.51
-10.23
-11.41
-12.90
-14.43
-15.68
-16.28
-15.99
-14.68
-12.51
-9.78
-6.87
-4.14
-1.77
0.19
1.75
2.99
3.91
4.52
4.83
4.91
4.85
4.75
4.63
4.49
4.23
3.75
3.02
2.10
1.14
0.30
-0.30
-0.63
-0.77
-0.84
-0.97
-1.18
-1.52
-1.96
-2.53
-3.25
-4.18
-5.31
-6.58
-7.91
-9.18
-10.37
-11.53
-12.77
-14.22
-15.99
-18.17
-20.71
-23.42
-25.97
-27.94
-28.90
-28.67
-27.31
-25.17
-22.76
-20.51
-18.71
-17.44
-16.68
-16.38
-16.51
-16.99
-17.72
-18.55
-19.34
-20.06
-20.82
-21.81
-23.21
-25.06
-27.23
-29.55
-31.83
-33.97
-35.98
-37.88
-39.67
-41.22
-42.27
-42.39
-41.16
-38.20
-33.36
-26.72
-18.54
-9.28
0.57
10.51
20.08
28.84
36.40
42.44
46.70
49.09
49.62
48.46
45.91
42.37
38.34
34.36
30.92
28.35
26.83
26.28
26.43
26.85
27.07
26.77
25.87
24.49
22.92
21.47
20.33
19.54
18.95
18.41
17.76
16.97
16.08
15.16
14.32
13.59
12.96
12.37
11.72
10.91
9.91
8.73
7.45
6.20
5.07
4.11
3.36
2.81
2.47
2.33
2.28
2.18
1.92
1.43
0.75
-0.01
-0.76
-1.51
-2.35
-3.46
-4.95
-6.80
-8.84
-10.79
-12.31
-13.09
-12.87
-11.52
-9.10
-5.88
-2.37
0.80
3.05
4.05
3.89
2.96
1.87
1.10
0.91
1.26
1.89
2.62
3.34
4.08
4.88
5.68
6.33
6.64
6.57
6.26
5.96
5.82
5.87
5.92
5.73
5.17
4.30
3.34
2.51
1.93
1.57
1.32
1.03
0.63
0.13
-0.45
-1.08
-1.80
-2.65
-3.62
-4.64
-5.51
-5.95
-5.71
-4.60
-2.65
-0.10
2.78
5.69
8.47
11.10
13.67
16.17
18.45
20.25
21.28
21.61
21.54
21.60
22.32
24.08
26.92
30.50
34.31
37.82
40.88
43.56
46.12
48.93
52.39
56.70
61.68
66.81
71.47
75.63
79.37
82.92
86.76
91.47
97.29
103.61
109.07
111.76
110.80
105.59
96.30
84.28
71.98
61.93
55.71
53.70
55.34
61.02
70.11
80.86
91.20
100.12
107.94
115.99
126.52
141.22
161.34
183.95
202.57
210.45
204.62
186.26
158.92
127.67
85.89
35.37
-16.00
-58.73
-86.69
-97.82
-94.53
-83.82
-72.47
-64.80
-60.68
-59.17
-60.64
-66.32
-73.61
-82.19
-94.88
-114.16
-140.75
-171.90
-204.42
-237.26
-270.32
-302.36
-316.61
-302.84
-261.04
-201.52
-136.26
-73.09
-16.18
23.91
52.19
71.90
81.74
80.02
66.23
41.36
14.76
-9.72
-30.82
-47.65
-62.39
-79.41
-101.60
-129.16
-159.74
-189.95
-218.59
-245.68
-271.18
-297.27
-327.70
-365.79
-413.25
-469.27
-529.75
-588.43
-636.51
-664.36
-666.37
-642.85
-599.46
-544.95
-487.78
-433.47
-384.58
-340.80
-300.66
-263.72
-230.66
-202.20
-177.96
-156.30
-134.96
-112.52
-88.84
-64.82
-42.38
-23.13
-7.69
4.52
14.97
25.23
36.26
48.09
59.93
70.67
79.48
86.21
91.47
96.32
101.67
107.96
114.94
121.84
127.84
132.46
135.84
138.61
141.60
145.44
150.32
155.98
161.96
167.94
174.04
180.77
188.86
198.84
210.78
224.18
238.29
252.39
266.14
279.73
293.65
308.62
325.34
344.71
367.58
394.26
423.79
453.39
478.72
495.18
499.61
491.48
473.02
448.00
420.04
391.50
363.48
336.53
311.50
289.69
272.16
259.03
249.00
239.79
229.07
215.41
198.68
179.89
160.76
142.98
127.63
114.89
104.03
93.86
83.25
71.61
58.99
45.78
32.39
19.15
6.43
-4.93
-13.57
-17.84
-16.36
-8.51
5.31
23.83
45.26
67.61
88.81
106.87
120.01
127.07
127.97
123.81
116.59
108.50
101.06
94.64
88.48
81.10
71.13
57.90
41.74
23.77
5.48
-11.76
-26.95
-39.45
-48.92
-55.12
-57.97
-57.52
-54.13
-48.24
-40.05
-29.28
-15.33
2.08
22.10
42.34
59.31
69.64
71.65
66.13
56.00
44.97
35.80
29.35
24.60
19.78
13.54
5.66
-3.23
-12.48
-22.34
-34.14
-49.89
-71.42
-99.51
-133.45
-171.30
-210.74
-249.83
-287.71
-324.65
-361.46
-399.10
-438.36
-480.11
-525.36
-574.60
-626.53
-676.94
-718.68
-743.31
-744.04
-718.37
-669.17
-603.42
-529.43
-453.84
-380.29
-309.72
-241.75
-176.01
-112.25
-49.42
15.04
84.78
162.42
246.77
331.26
404.98
455.99
476.18
464.68
428.27
378.44
326.71
280.58
241.89
208.20
175.38
139.99
99.93
54.01
1.70
-56.36
-117.16
-174.80
-221.53
-250.25
-257.03
-242.65
-211.86
-171.18
-126.36
-80.81
-35.70
9.13
54.07
99.30
145.08
192.26
242.51
297.71
358.56
423.20
486.62
540.97
577.89
591.29
579.67
546.81
500.38
449.07
399.71
355.77
317.59
284.03
254.04
227.49
204.77
186.05
170.59
156.88
143.25
128.57
112.66
96.25
80.29
64.90
49.75
34.55
19.27
4.19
-10.25
-23.49
-35.16
-45.35
-55.19
-65.92
-78.08
-91.30
-104.55
-116.76
-127.21
-135.96
-143.88
-153.83
-168.35
-188.39
-213.00
-239.73
-265.25
-285.80
-297.94
-299.83
-296.08
-292.54
-293.30
-299.36
-309.46
-321.08
-330.89
-335.41
-332.35
-329.32
-333.05
-345.01
-361.71
-379.37
-397.10
-415.92
-436.38
-457.03
-487.45
-532.02
-585.99
-638.54
-681.15
-712.43
-735.97
-756.36
-777.26
-818.07
-891.58
-995.91
-1115.46
-1230.34
-1324.74
-1388.94
-1419.48
-1315.05
-1038.13
-634.70
-208.23
153.60
418.31
595.04
707.75
778.53
822.43
831.91
801.07
739.72
667.46
603.01
555.68
525.99
509.83
502.42
487.59
456.07
411.37
363.72
324.51
299.01
286.68
284.33
288.86
290.29
282.81
268.02
252.64
243.49
243.23
250.93
264.32
281.47
297.24
308.37
314.80
318.52
321.72
324.93
327.76
329.98
332.11
333.92
336.17
340.80
350.16
365.43
384.87
403.56
414.38
409.94
385.07
338.59
273.94
198.07
119.45
45.65
-18.11
-69.07
-106.27
-129.49
-138.91
-135.31
-121.02
-100.18
-78.22
-60.17
-48.60
-42.50
-37.76
-29.56
-15.17
4.31
24.40
39.44
45.49
42.06
31.96
19.50
8.24
-0.41
-7.21
-13.98
-22.40
-33.10
-45.54
-58.48
-70.31
-79.53
-84.97
-85.96
-82.63
-76.01
-67.88
-60.36
-55.20
-53.25
-54.12
-56.49
-58.46
-58.33
-55.07
-48.43
-38.93
-27.60
-15.66
-4.30
5.48
13.00
17.87
20.06
19.82
17.66
14.24
10.33
6.61
3.40
0.71
-1.80
-4.48
-7.55
-10.93
-14.32
-17.32
-19.63
-21.11
-21.75
-21.62
-20.83
-19.51
-17.85
-16.02
-14.04
-11.76
-8.80
-4.74
0.60
6.97
13.69
19.81
24.34
26.67
26.71
24.87
21.91
18.65
15.83
13.91
13.06
13.11
13.63
14.11
14.09
13.37
11.95
9.95
7.48
4.66
1.56
-1.65
-4.72
-7.40
-9.54
-11.18
-12.47
-13.58
-14.46
-14.82
-14.31
-12.63
-9.84
-6.35
-2.77
0.18
2.01
2.56
2.03
0.84
-0.41
-1.32
-1.71
-1.67
-1.42
-1.17
-1.01
-0.85
-0.50
0.20
1.20
2.24
2.96
3.00
2.26
0.96
-0.51
-1.72
-2.39
-2.54
-2.45
-2.43
-2.79
-3.65
-4.89
-6.30
-7.65
-8.78
-9.61
-10.05
-9.91
-8.98
-7.05
-4.08
-0.32
3.70
7.34
9.99
11.41
11.73
11.41
11.03
10.99
11.47
12.34
13.45
14.64
15.85
17.06
18.15
18.81
18.69
17.54
15.43
12.86
10.47
8.85
8.25
8.51
9.16
9.69
9.73
9.21
8.23
6.98
5.67
4.37
3.11
1.81
0.33
-1.49
-3.72
-6.29
-8.93
-11.29
-12.94
-13.55
-12.99
-11.32
-8.76
-5.69
-2.45
0.64
3.36
5.61
7.33
8.56
9.33
9.70
9.79
9.79
9.92
10.42
11.43
12.91
14.65
16.26
17.30
17.42
16.51
14.73
12.52
10.35
8.59
7.38
6.58
5.96
5.26
4.33
3.25
2.16
1.30
0.80
0.64
0.64
0.44
-0.37
-2.14
-5.01
-8.82
-13.12
-17.22
-20.37
-22.02
-21.88
-20.02
-16.83
-12.87
-8.67
-4.66
-1.07
2.06
4.70
6.87
8.53
9.64
10.19
10.34
10.35
10.49
10.87
11.35
11.56
11.13
9.92
8.05
5.94
4.04
2.64
1.76
1.24
0.88
0.58
0.35
0.22
0.13
-0.11
-0.80
-2.16
-4.28
-7.01
-10.02
-12.89
-15.25
-16.87
-17.72
-17.89
-17.50
-16.60
-15.21
-13.31
-10.88
-7.99
-4.81
-1.56
1.48
4.13
6.25
7.82
8.87
9.50
9.86
10.10
10.37
10.72
11.15
11.56
11.83
11.86
11.61
11.10
10.42
9.65
8.86
8.07
7.27
6.50
5.80
5.23
4.79
4.39
3.90
3.10
1.84
0.01
-2.40
-5.30
-8.60
-12.17
-15.88
-19.45
-22.56
-24.78
-25.75
-25.27
-23.37
-20.31
-16.55
-12.56
-8.73
-5.33
-2.41
0.00
1.89
3.17
3.70
3.37
2.18
0.29
-1.96
-4.12
-5.80
-6.75
-6.93
-6.52
-5.80
-5.08
-4.58
-4.43
-4.60
-4.98
-5.40
-5.64
-5.54
-5.01
-4.00
-2.61
-0.94
0.79
2.39
3.65
4.41
4.55
4.12
3.27
2.31
1.63
1.58
2.35
3.95
6.21
8.81
11.48
14.02
16.32
18.32
19.97
21.22
21.94
21.99
21.24
19.67
17.38
14.68
12.05
9.97
8.82
8.70
9.46
10.74
12.16
13.43
14.38
14.88
14.80
13.94
12.13
9.38
5.91
2.21
-1.25
-4.15
-6.44
-8.40
-10.44
-12.94
-15.97
-19.40
-22.92
-26.17
-28.80
-30.51
-31.03
-30.12
-27.73
-24.02
-19.43
-14.55
-10.00
-6.22
-3.39
-1.52
-0.50
-0.17
-0.40
-1.03
-1.85
-2.62
-3.10
-3.12
-2.64
-1.75
-0.64
0.42
1.23
1.69
1.86
1.81
1.61
1.28
0.74
-0.07
-1.18
-2.53
-3.97
-5.37
-6.65
-7.78
-8.81
-9.86
-11.06
-12.52
-14.34
-16.43
-18.49
-20.05
-20.58
-19.66
-17.19
-13.50
-9.19
-5.00
-1.52
0.94
2.36
2.94
2.93
2.52
1.94
1.32
0.79
0.48
0.42
0.51
0.65
0.74
0.79
0.98
1.52
2.53
3.93
5.44
6.61
7.03
6.49
4.97
2.67
-0.09
-2.95
-5.54
-7.59
-8.94
-9.64
-9.97
-10.34
-11.11
-12.49
-14.31
-16.13
-17.41
-17.70
-16.82
-14.90
-12.30
-9.33
-6.25
-3.16
-0.02
3.08
5.92
8.23
9.77
10.43
10.38
9.99
9.63
9.59
9.94
10.61
11.43
12.34
13.32
14.42
15.60
16.73
17.58
17.87
17.46
16.36
14.74
12.94
11.26
9.98
9.24
9.00
9.10
9.28
9.36
9.30
9.30
9.71
10.99
13.39
16.91
21.27
26.07
31.06
36.14
41.47
47.30
53.64
60.06
65.88
70.54
74.10
77.43
81.72
87.74
95.19
102.60
107.88
109.34
106.17
98.08
84.61
64.26
35.28
-2.59
-46.59
-90.89
-128.02
-151.64
-159.19
-152.56
-137.50
-120.66
-106.63
-96.81
-90.67
-86.87
-84.38
-82.43
-79.13
-72.33
-59.17
-37.16
-6.07
30.07
64.40
89.89
102.66
104.36
99.08
91.88
86.58
84.06
81.52
75.12
62.39
43.62
22.48
1.25
-19.14
-38.62
-50.39
-47.82
-28.07
5.15
36.57
63.02
83.77
97.36
104.37
103.33
92.47
71.55
42.41
8.70
-24.47
-55.10
-83.59
-111.59
-141.56
-176.24
-217.53
-265.20
-315.93
-362.52
-397.28
-413.00
-404.62
-371.37
-317.54
-251.31
-182.11
-117.89
-63.11
-20.42
8.59
22.48
19.65
-0.37
-34.95
-77.07
-116.06
-140.28
-141.83
-119.30
-78.22
-28.69
18.47
55.23
78.06
87.50
86.48
78.19
65.02
48.29
28.87
7.69
-13.64
-32.83
-47.04
-53.56
-50.41
-37.11
-15.04
12.53
40.93
65.09
80.89
86.27
81.72
69.99
54.89
39.82
26.74
16.14
7.86
2.08
-0.12
2.86
12.12
27.24
46.00
65.04
80.53
89.24
89.33
80.80
66.00
49.62
37.41
34.45
43.07
61.42
84.10
104.32
116.90
120.51
117.66
112.69
109.01
106.82
103.09
93.45
75.05
48.42
17.63
-11.13
-32.04
-41.57
-39.54
-28.93
-14.63
-1.64
6.56
9.25
8.13
5.87
4.20
2.69
-0.94
-9.09
-22.29
-38.34
-52.90
-61.51
-61.52
-52.93
-37.79
-18.86
1.46
21.29
38.79
51.35
55.56
48.03
27.16
-5.32
-44.01
-81.00
-108.51
-121.50
-118.98
-103.31
-78.09
-46.20
-9.53
29.73
67.52
97.79
114.94
117.10
108.13
96.20
89.62
92.27
101.50
110.00
110.04
97.66
74.23
44.88
15.16
-11.78
-35.93
-59.01
-82.17
-104.47
-122.71
-132.63
-130.59
-115.13
-87.69
-52.29
-14.44
20.27
47.52
65.10
72.79
72.00
65.08
54.64
43.20
32.73
24.58
19.36
17.03
17.12
19.06
22.28
26.40
31.15
36.26
41.30
45.62
48.34
48.44
45.15
38.29
28.58
17.65
7.66
0.64
-2.22
-0.99
2.78
6.72
8.46
6.54
1.17
-5.85
-11.81
-14.25
-11.97
-5.60
2.75
10.45
15.46
17.07
15.90
13.40
10.86
8.91
7.32
5.41
2.63
-0.94
-4.40
-6.34
-5.46
-1.08
6.59
16.65
28.01
39.98
52.29
64.81
76.89
86.78
91.86
89.45
78.02
58.15
32.60
5.29
-19.88
-40.17
-54.27
-61.81
-62.77
-57.46
-46.82
-33.02
-19.40
-9.63
-6.21
-9.40
-17.07
-25.55
-31.22
-31.71
-26.54
-16.83
-4.66
7.69
18.14
25.15
27.87
26.35
21.50
14.92
8.43
3.54
1.14
1.28
3.52
7.19
11.68
16.57
21.50
26.02
29.41
30.75
29.20
24.35
16.55
6.92
-2.89
-11.13
-16.51
-18.61
-17.92
-15.83
-14.29
-15.22
-19.91
-28.43
-39.43
-50.53
-59.26
-63.99
-64.68
-62.69
-59.94
-57.98
-57.27
-57.31
-57.07
-55.53
-52.04
-46.23
-37.95
-27.36
-15.17
-2.86
7.56
14.14
15.96
13.79
9.93
7.38
8.62
14.64
24.85
37.50
50.56
62.31
71.57
77.50
79.46
77.19
71.10
62.56
53.67
46.40
41.77
39.25
37.25
33.95
28.41
20.97
13.05
6.42
2.58
2.41
6.25
13.98
25.01
38.10
51.37
62.64
70.14
73.16
72.16
68.45
63.42
57.87
51.98
45.57
38.65
31.71
25.48
20.57
17.01
14.13
10.91
6.52
0.86
-5.47
-11.39
-15.96
-18.86
-20.51
-21.68
-22.99
-24.43
-25.32
-24.84
-22.55
-18.86
-14.92
-12.13
-11.41
-12.78
-15.38
-17.87
-19.13
-18.67
-16.78
-14.32
-12.32
-11.50
-11.96
-13.17
-14.19
-13.99
-11.87
-7.74
-2.18
3.59
8.03
9.62
7.38
1.25
-7.58
-16.96
-24.32
-27.55
-25.71
-19.48
-10.78
-2.13
4.33
7.52
7.59
5.75
3.64
2.67
3.47
5.69
8.15
9.50
8.89
6.49
3.41
1.10
0.53
1.67
3.59
5.02
5.06
3.59
1.11
-1.65
-4.20
-6.28
-7.85
-8.70
-8.58
-7.32
-5.11
-2.63
-0.82
-0.57
-2.32
-5.89
-10.48
-15.11
-18.79
-20.89
-21.23
-20.11
-18.12
-15.99
-14.34
-13.41
-13.01
-12.54
-11.35
-9.06
-5.76
-2.01
1.55
4.35
6.12
6.72
5.92
3.41
-1.00
-7.03
-13.70
-19.59
-23.40
-24.51
-23.33
-21.02
-19.05
-18.66
-20.51
-24.60
-30.25
-36.23
-40.87
-42.50
-39.94
-32.90
-22.19
-9.58
2.59
12.06
17.02
16.61
11.08
1.84
-8.70
-17.73
-22.78
-22.49
-16.92
-7.46
3.73
14.56
23.61
30.31
34.82
37.71
39.66
41.27
42.98
45.14
47.90
51.25
54.93
58.50
61.44
63.33
63.89
63.06
60.91
57.61
53.31
48.04
41.64
33.87
24.53
13.79
2.48
-7.80
-14.83
-16.52
-11.85
-1.81
10.29
19.32
19.88
8.25
-16.08
-49.81
-86.73
-119.76
-143.19
-154.35
-153.77
-144.18
-128.92
-110.78
-91.51
-72.25
-54.11
-38.28
-25.78
-16.90
-10.97
-6.82
-3.52
-0.98
-0.01
-1.49
-5.63
-11.36
-16.57
-18.91
-16.79
-10.04
0.09
11.32
21.05
27.04
27.97
23.74
15.65
6.09
-2.18
-6.93
-7.34
-4.23
0.46
4.58
6.83
7.17
6.52
5.98
6.01
6.21
5.67
3.67
0.27
-3.60
-6.64
-7.82
-6.82
-4.09
-0.41
3.50
7.25
10.53
12.83
13.19
10.62
4.70
-3.71
-12.35
-18.21
-18.82
-13.42
-3.58
7.38
15.68
18.51
14.96
6.11
-5.63
-17.45
-26.97
-32.74
-34.26
-31.96
-26.86
-20.32
-13.71
-8.15
-4.34
-2.46
-2.36
-3.71
-6.21
-9.62
-13.67
-17.81
-21.25
-22.99
-22.22
-18.76
-13.33
-7.38
-2.67
-0.57
-1.59
-5.27
-10.42
-15.68
-19.79
-21.81
-21.03
-17.01
-9.67
0.57
12.62
24.79
35.06
41.56
43.02
38.96
29.82
16.86
1.93
-12.80
-25.24
-33.63
-36.88
-34.76
-27.85
-17.52
-5.60
5.94
15.33
21.30
23.32
21.64
17.20
11.43
5.92
2.15
1.22
3.52
8.63
15.21
21.42
25.29
25.53
21.95
15.67
8.71
3.22
0.66
1.25
4.07
7.64
10.75
12.88
14.23
15.19
15.87
15.84
14.42
11.26
6.70
1.82
-2.22
-4.73
-5.82
-6.21
-6.62
-7.31
-8.04
-8.35
-8.03
-7.31
-6.71
-6.64
-7.08
-7.55
-7.46
-6.46
-4.59
-2.32
-0.18
1.44
2.45
2.93
2.98
2.55
1.48
-0.37
-2.91
-5.68
-7.92
-8.85
-8.16
-6.19
-4.02
-3.00
-4.22
-7.83
-12.94
-17.82
-20.56
-19.76
-15.07
-7.14
2.79
13.39
23.60
32.65
39.86
44.41
45.52
42.81
36.71
28.54
19.99
12.46
6.58
2.18
-1.27
-4.05
-6.05
-6.97
-6.65
-5.37
-3.69
-2.05
-0.62
0.68
1.81
2.42
2.09
0.95
0.18
1.83
8.10
20.22
37.60
57.95
78.08
95.12
107.38
114.78
118.47
120.31
122.45
127.02
135.88
150.09
169.23
190.87
210.75
223.86
226.14
215.92
194.42
165.02
131.73
97.78
64.86
33.50
3.79
-24.07
-49.59
-72.64
-94.00
-115.35
-139.02
-167.41
-202.50
-245.36
-295.36
-349.42
-401.66
-444.15
-468.98
-471.00
-449.78
-409.70
-358.01
-301.84
-245.67
-190.70
-135.93
-80.12
-23.07
34.42
91.53
148.41
206.23
266.03
327.01
385.47
435.08
468.40
479.62
466.68
432.21
382.70
326.48
271.13
221.67
179.92
145.19
115.47
88.76
63.71
39.73
16.80
-5.14
-26.33
-47.34
-69.20
-93.20
-120.85
-153.95
-194.56
-244.81
-305.66
-375.56
-449.24
-518.00
-571.73
-602.16
-605.85
-585.32
-547.72
-501.64
-453.94
-407.94
-363.83
-320.46
-277.14
-234.40
-193.48
-155.14
-118.94
-83.27
-46.10
-5.85
37.99
84.46
131.31
175.47
213.65
243.16
262.34
270.74
268.86
257.81
239.19
215.13
188.51
162.53
140.15
123.06
111.08
102.45
94.84
86.63
77.69
69.06
62.11
57.55
55.43
55.47
57.68
62.36
69.34
77.38
83.95
86.27
82.69
73.71
61.83
50.35
41.67
36.40
33.58
31.79
30.26
29.28
29.77
32.39
37.11
43.18
49.60
55.55
60.45
63.72
64.67
62.60
57.23
49.07
39.48
30.33
23.33
19.42
18.52
19.71
21.63
22.92
22.49
19.66
14.16
6.39
-2.58
-10.93
-16.65
-18.12
-14.86
-7.68
1.38
9.91
15.87
18.26
17.23
13.75
9.03
4.14
-0.14
-3.28
-4.90
-4.85
-3.24
-0.44
3.09
6.88
10.55
13.56
15.10
14.21
10.21
3.23
-5.41
-13.66
-19.64
-22.58
-23.29
-23.58
-25.18
-28.53
-32.56
-35.38
-35.44
-32.54
-27.87
-23.29
-20.40
-19.79
-20.89
-22.43
-22.92
-21.20
-16.65
-9.21
0.65
12.07
24.00
35.31
44.94
52.08
56.17
56.98
54.55
49.25
41.83
33.45
25.51
19.40
16.17
16.15
18.81
22.96
26.94
29.20
28.78
25.51
20.09
13.92
8.68
5.87
6.39
10.22
16.43
23.28
28.67
30.66
28.03
20.67
9.73
-2.65
-13.98
-22.22
-26.45
-27.20
-25.96
-24.38
-23.40
-22.82
-21.68
-19.05
-14.82
-9.79
-5.18
-1.71
0.76
3.00
5.59
8.20
9.55
8.23
3.87
-2.38
-8.01
-10.36
-7.87
-0.67
9.60
20.63
30.29
37.04
39.95
38.58
33.04
24.21
13.87
4.43
-1.80
-3.55
-1.13
3.58
7.93
9.44
6.67
-0.24
-9.72
-19.26
-26.24
-28.72
-26.10
-19.34
-10.64
-2.81
1.79
2.00
-1.70
-7.45
-12.78
-15.64
-15.17
-11.91
-7.46
-3.72
-2.11
-3.10
-6.09
-9.79
-12.69
-13.58
-11.95
-8.19
-3.44
0.75
2.91
2.27
-0.82
-4.91
-7.94
-8.01
-4.36
2.36
10.08
16.17
18.31
15.35
7.72
-2.85
-13.94
-23.42
-30.14
-34.38
-37.44
-41.03
-46.47
-54.21
-63.62
-73.43
-82.05
-88.06
-90.41
-88.44
-81.89
-71.15
-57.34
-42.39
-28.70
-18.43
-12.92
-12.26
-15.46
-20.85
-26.65
-31.51
-34.67
-35.97
-35.61
-33.86
-30.84
-26.54
-20.98
-14.51
-7.92
-2.11
2.26
5.21
7.54
10.39
14.50
19.77
25.31
30.06
33.58
36.43
39.72
44.27
49.94
55.54
59.57
61.11
60.57
59.41
59.42
61.67
66.10
71.59
76.57
79.79
80.57
78.89
75.20
70.28
64.98
60.19
56.52
54.16
52.76
51.57
49.81
46.98
43.22
39.15
35.76
33.86
33.79
35.26
37.31
38.51
37.44
33.15
25.60
15.79
5.43
-3.63
-10.04
-13.38
-14.20
-13.69
-13.26
-13.99
-16.33
-20.01
-24.22
-27.83
-29.77
-29.36
-26.60
-22.21
-17.49
-13.93
-12.66
-14.06
-17.55
-21.92
-25.68
-27.77
-27.78
-26.05
-23.27
-20.07
-16.82
-13.60
-10.45
-7.52
-5.13
-3.52
-2.73
-2.42
-2.07
-1.24
0.05
1.26
1.43
-0.25
-3.93
-8.86
-13.46
-16.01
-15.32
-11.27
-4.90
2.02
7.64
10.79
11.22
9.59
7.00
4.54
2.93
2.40
2.61
3.00
3.08
2.65
1.86
1.00
0.23
-0.69
-2.36
-5.40
-10.11
-16.09
-22.44
-28.06
-32.15
-34.38
-34.83
-33.81
-31.65
-28.72
-25.49
-22.64
-20.84
-20.45
-21.25
-22.41
-22.80
-21.55
-18.50
-14.31
-10.26
-7.61
-7.10
-8.59
-11.06
-13.01
-13.09
-10.65
-6.00
-0.44
4.36
6.88
6.29
2.71
-2.94
-9.26
-14.87
-18.70
-20.23
-19.54
-17.26
-14.30
-11.54
-9.42
-7.73
-5.68
-2.35
2.79
9.52
16.92
23.69
28.75
31.44
31.75
30.13
27.22
23.78
20.52
17.92
16.03
14.38
12.14
8.48
3.17
-3.25
-9.51
-14.17
-16.18
-15.30
-12.08
-7.49
-2.60
1.68
4.67
5.82
4.94
2.27
-1.38
-4.73
-6.55
-6.19
-3.99
-1.14
0.83
0.88
-1.09
-4.20
-7.17
-9.12
-9.99
-10.57
-11.98
-15.10
-19.97
-25.85
-31.43
-35.40
-36.86
-35.47
-31.39
-25.03
-17.01
-8.06
0.84
8.54
13.91
16.14
15.18
11.80
7.45
3.78
2.01
2.49
4.58
7.10
8.85
9.30
8.72
7.97
7.93
8.97
10.78
12.56
13.43
12.86
10.76
7.29
2.72
-2.70
-8.63
-14.32
-18.71
-20.63
-19.36
-15.18
-9.50
-4.48
-2.28
-4.15
-9.99
-18.36
-26.99
-33.61
-36.57
-35.21
-29.82
-21.43
-11.48
-1.63
6.57
11.92
13.90
12.84
9.78
6.24
3.62
2.81
4.01
6.85
10.64
14.61
18.10
20.57
21.66
21.17
19.12
15.72
11.43
6.87
2.77
-0.04
-0.93
0.41
3.65
7.86
11.66
13.72
13.18
9.93
4.63
-1.57
-7.41
-11.83
-14.24
-14.59
-13.42
-11.68
-10.51
-10.73
-12.65
-15.71
-18.73
-20.17
-18.73
-13.89
-6.19
2.76
10.79
15.89
16.96
14.24
9.07
3.38
-1.16
-3.61
-3.76
-1.80
2.05
7.64
14.66
22.24
28.97
33.26
34.17
31.96
28.21
25.13
24.57
27.24
32.46
38.70
44.54
49.35
53.50
57.90
63.41
70.29
78.11
86.05
93.13
98.63
102.12
103.68
104.01
104.55
107.26
114.00
125.70
141.80
160.23
177.97
191.91
199.61
199.67
191.60
175.58
152.26
122.66
88.36
51.40
14.09
-21.25
-52.86
-79.73
-101.71
-119.40
-133.95
-146.74
-159.43
-174.04
-192.88
-217.88
-249.30
-284.29
-316.54
-337.48
-339.06
-316.61
-270.61
-205.98
-129.70
-48.21
33.88
113.33
186.83
250.39
299.89
332.57
348.25
349.17
338.65
319.50
293.36
261.14
223.97
183.87
143.33
104.51
68.23
33.98
0.46
-33.29
-67.33
-100.76
-132.20
-160.34
-184.44
-204.64
-221.96
-238.17
-255.92
-278.54
-309.54
-351.10
-402.55
-459.12
-512.49
-553.03
-573.30
-570.79
-548.87
-515.00
-477.54
-442.62
-412.70
-387.15
-364.04
-341.80
-319.91
-298.55
-277.78
-257.17
-235.98
-213.56
-189.72
-164.60
-138.60
-111.93
-84.69
-56.98
-28.92
-0.83
27.00
54.41
81.49
108.59
136.29
165.34
196.52
230.38
266.36
302.07
333.13
353.96
359.83
349.11
324.61
292.97
262.23
238.54
223.97
216.47
211.74
205.96
197.66
187.77
178.25
170.23
163.18
155.33
145.13
132.46
119.14
108.02
101.53
100.22
102.28
104.14
101.97
93.39
78.47
59.77
41.18
26.27
16.89
12.84
12.39
13.47
14.79
16.06
17.83
20.57
24.21
28.11
31.52
34.14
36.16
37.93
39.38
39.77
37.98
33.39
26.54
19.25
14.04
13.03
16.97
24.98
35.00
44.72
52.27
56.52
56.96
53.48
46.48
36.97
26.50
16.97
10.03
6.55
6.40
8.68
12.15
15.70
18.54
20.19
20.40
18.95
15.88
11.46
6.33
1.40
-2.54
-5.08
-6.43
-7.32
-8.69
-11.08
-14.32
-17.44
-19.15
-18.64
-16.03
-12.53
-9.79
-9.02
-10.29
-12.46
-13.75
-12.71
-8.83
-2.64
4.71
12.05
18.60
24.10
28.50
31.85
34.19
35.60
36.29
36.52
36.48
36.13
35.15
33.08
29.45
24.07
17.07
9.09
1.14
-5.51
-9.76
-10.90
-8.97
-4.71
0.87
6.94
13.35
20.66
29.72
41.03
54.17
67.76
79.84
88.81
94.18
97.06
99.91
105.77
117.04
134.30
155.62
176.65
191.83
196.18
187.28
166.41
138.13
108.88
84.48
68.07
59.47
55.67
51.97
43.50
26.50
-0.45
-35.16
-71.12
-98.22
-105.63
-86.31
-40.99
20.65
82.77
129.26
149.86
143.46
117.07
81.39
45.64
14.54
-11.66
-34.79
-56.10
-74.98
-89.70
-99.13
-103.93
-107.05
-112.27
-122.69
-139.76
-163.51
-193.60
-230.41
-274.93
-327.26
-385.00
-442.39
-491.39
-524.44
-537.38
-531.05
-510.58
-482.96
-454.27
-428.00
-405.00
-384.52
-365.37
-346.51
-326.97
-305.61
-281.34
-253.66
-223.12
-191.35
-160.33
-131.66
-105.67
-81.46
-57.37
-31.86
-4.32
24.70
53.82
81.45
106.66
129.53
151.21
173.60
198.78
228.28
262.16
298.38
332.64
359.42
373.89
373.91
361.27
341.13
319.89
302.52
290.61
282.26
273.77
262.09
246.50
228.73
211.58
197.09
185.44
175.15
164.26
151.49
136.81
121.05
105.10
89.53
74.55
60.41
47.61
36.59
27.31
19.11
11.06
2.71
-5.38
-11.90
-15.65
-16.51
-15.76
-15.42
-17.12
-21.13
-26.34
-30.98
-33.55
-33.48
-31.01
-26.81
-21.55
-15.65
-9.45
-3.25
2.66
7.95
12.32
15.45
16.92
16.28
13.32
8.31
2.07
-4.20
-9.50
-13.25
-15.40
-16.13
-15.37
-12.71
-7.71
-0.53
7.67
14.83
18.75
18.02
12.73
4.47
-4.41
-11.72
-16.18
-17.58
-16.56
-14.05
-10.98
-8.11
-6.12
-5.70
-7.39
-11.47
-17.58
-24.74
-31.39
-35.86
-36.96
-34.32
-28.53
-20.85
-12.63
-4.88
1.91
7.70
12.46
15.92
17.62
17.16
14.62
10.64
6.28
2.47
-0.34
-2.36
-4.30
-6.76
-9.88
-13.02
-15.01
-14.75
-11.79
-6.65
-0.68
4.40
7.42
8.10
7.15
5.83
5.25
5.75
6.76
7.08
5.53
1.69
-3.99
-10.32
-15.96
-19.98
-21.98
-21.97
-20.05
-16.35
-11.18
-5.29
-0.00
3.22
3.28
-0.07
-6.01
-12.97
-19.13
-22.96
-23.45
-20.33
-13.95
-5.40
3.57
10.88
14.67
13.90
8.88
1.17
-6.90
-12.88
-15.00
-12.43
-5.34
5.58
19.33
34.89
51.03
66.31
79.20
88.42
93.38
94.52
93.14
90.96
89.50
89.66
91.60
95.04
99.67
105.34
112.12
119.93
128.20
135.73
140.79
141.66
137.38
128.36
116.56
104.90
95.98
90.79
88.01
84.42
76.14
60.05
34.73
0.53
-40.84
-86.77
-133.96
-178.29
-214.96
-239.00
-246.52
-236.26
-210.73
-176.25
-141.64
-115.47
-103.26
-105.64
-118.28
-134.00
-146.16
-151.74
-152.43
-153.30
-159.87
-175.20
-198.77
-227.37
-257.15
-285.21
-309.96
-330.14
-343.61
-347.18
-337.46
-312.58
-273.47
-223.94
-169.57
-115.90
-66.96
-24.57
11.40
42.25
69.47
94.14
116.53
136.16
152.18
163.74
170.37
172.28
170.32
165.83
160.18
154.43
148.86
142.95
135.55
125.47
112.17
96.30
79.78
65.06
54.12
47.43
43.69
40.55
36.00
29.54
22.62
17.92
17.87
23.48
33.73
46.09
57.53
65.44
68.21
65.30
57.07
44.66
30.01
15.72
4.64
-0.91
0.06
6.73
16.74
26.88
34.10
36.35
32.94
24.56
12.85
0.08
-11.39
-19.43
-22.49
-19.89
-12.03
-0.49
12.20
23.15
29.76
30.58
25.72
16.79
6.24
-3.47
-10.80
-15.40
-17.89
-19.15
-19.59
-18.83
-15.94
-10.04
-0.94
10.46
22.36
32.45
38.73
40.10
36.70
29.96
21.90
14.47
8.85
5.20
2.95
1.36
0.18
-0.16
1.01
3.92
7.81
11.02
11.78
9.29
4.24
-1.37
-5.22
-5.95
-3.85
-0.85
0.55
-1.53
-7.47
-16.13
-25.42
-33.19
-37.87
-38.64
-35.31
-28.16
-18.00
-6.26
4.95
13.24
16.59
14.20
6.92
-3.07
-12.87
-19.87
-22.37
-19.83
-12.70
-2.25
9.61
20.42
27.60
29.03
23.95
13.45
0.45
-11.29
-18.50
-19.47
-14.60
-5.95
3.74
11.89
16.76
17.54
14.31
8.00
0.35
-6.24
-9.33
-7.27
0.12
11.28
23.58
34.55
42.91
48.84
53.23
56.22
56.52
51.87
40.48
22.34
-0.56
-25.42
-50.24
-74.50
-98.35
-120.56
-137.05
-141.22
-126.47
-89.53
-32.62
36.92
109.47
176.47
232.41
274.85
303.21
317.74
319.55
311.23
297.14
282.52
271.40
264.84
260.50
253.77
240.31
218.04
187.77
152.22
114.40
76.27
38.63
1.78
-33.68
-66.80
-96.60
-122.94
-146.91
-170.55
-196.24
-226.19
-262.23
-305.68
-356.73
-413.24
-469.86
-518.38
-549.87
-557.82
-540.92
-503.61
-454.24
-401.41
-350.89
-304.35
-260.54
-217.57
-174.82
-133.14
-93.66
-56.22
-18.74
21.56
65.83
111.73
153.25
182.61
193.94
186.44
165.39
140.26
120.58
111.90
113.90
121.72
129.52
133.99
135.48
136.55
138.91
141.26
139.47
129.07
108.39
80.24
51.35
29.46
19.82
23.09
35.49
50.80
63.33
69.84
70.06
65.73
58.94
50.84
41.45
30.46
18.22
6.38
-2.60
-6.58
-4.94
1.00
8.67
15.36
19.47
20.87
20.60
19.92
19.61
19.79
20.16
20.46
20.73
21.41
23.04
25.99
30.13
34.46
37.23
36.27
29.93
18.11
2.77
-12.31
-22.90
-25.86
-20.69
-9.72
2.66
11.95
15.23
12.21
5.06
-2.97
-9.14
-12.60
-14.44
-16.77
-21.13
-27.37
-33.68
-37.60
-37.60
-33.98
-28.68
-24.04
-21.29
-19.84
-17.93
-13.95
-7.73
-0.86
4.21
5.63
3.32
-0.87
-4.18
-4.44
-1.27
3.79
8.27
10.47
10.51
10.33
12.36
17.74
25.27
31.81
34.20
31.15
24.24
17.12
13.46
14.95
20.53
27.18
31.68
32.04
28.13
21.14
12.56
3.54
-5.28
-13.49
-20.60
-25.93
-28.65
-28.00
-23.70
-16.35
-7.68
-0.45
2.33
-1.41
-11.76
-26.67
-42.70
-56.43
-65.75
-70.25
-70.59
-67.41
-60.67
-49.81
-34.81
-17.15
0.14
13.45
20.26
20.46
16.46
12.08
10.55
12.94
17.77
22.00
22.85
19.27
12.44
4.85
-1.08
-4.10
-4.32
-2.55
0.61
5.14
11.31
18.99
27.07
33.72
37.07
36.19
31.52
24.72
17.88
12.62
9.46
7.74
6.31
4.33
2.01
0.70
2.28
8.10
18.22
31.21
44.98
57.59
67.89
75.48
80.01
80.80
76.99
68.30
55.83
41.98
29.51
20.15
13.83
8.92
3.52
-3.21
-10.63
-17.14
-21.23
-22.34
-20.89
-17.73
-13.64
-9.31
-5.48
-3.27
-3.77
-7.54
-14.02
-21.56
-28.06
-31.87
-32.23
-29.27
-23.65
-16.11
-7.51
1.00
8.09
12.59
14.14
13.56
12.57
12.96
15.62
20.02
24.64
27.76
28.39
26.61
23.22
19.18
15.22
11.80
9.41
8.51
9.33
11.41
13.40
13.55
10.53
4.37
-3.36
-10.20
-14.14
-14.66
-12.97
-11.40
-11.99
-15.59
-21.46
-27.87
-32.87
-35.13
-34.24
-30.54
-24.80
-17.97
-11.01
-4.95
-0.90
0.28
-1.87
-7.04
-14.16
-21.61
-27.59
-30.63
-29.98
-26.00
-20.14
-14.66
-11.88
-13.25
-18.60
-25.97
-32.40
-35.22
-33.41
-27.97
-21.30
-15.65
-11.88
-9.27
-6.54
-3.29
-0.66
-0.80
-5.04
-12.55
-20.09
-23.61
-20.53
-11.28
0.84
11.47
17.32
17.59
13.80
8.51
3.98
1.24
0.20
0.14
0.47
1.01
2.08
4.24
7.94
13.15
19.26
25.12
29.48
31.43
30.59
27.03
20.97
12.62
2.45
-8.51
-18.53
-25.70
-28.77
-27.85
-24.39
-20.49
-17.83
-16.89
-17.05
-17.04
-15.73
-12.55
-7.59
-1.42
5.09
10.91
15.05
16.93
16.66
15.10
13.46
12.68
12.88
13.36
12.94
10.78
6.81
1.90
-2.52
-5.03
-4.83
-1.90
2.84
7.89
11.55
12.48
10.22
5.52
0.05
-4.15
-5.52
-3.49
1.26
7.25
12.69
16.00
16.12
12.56
5.52
-4.04
-14.45
-23.69
-30.37
-34.46
-37.51
-41.72
-48.39
-56.51
-62.87
-63.60
-56.49
-42.54
-25.79
-11.23
-2.33
0.63
0.43
1.17
6.20
16.78
31.82
48.66
64.26
76.13
82.90
84.46
81.64
75.70
67.87
59.05
49.90
41.10
33.23
26.51
20.28
12.94
2.62
-11.57
-28.67
-45.82
-59.31
-66.15
-65.24
-57.54
-45.39
-31.51
-18.19
-7.06
0.82
4.78
4.68
0.94
-5.39
-12.76
-19.47
-23.98
-25.28
-23.11
-18.11
-11.74
-5.88
-2.29
-1.98
-4.96
-10.23
-16.31
-21.82
-25.97
-28.64
-29.99
-30.05
-28.59
-25.21
-19.85
-13.11
-6.21
-0.63
2.51
2.74
0.37
-3.77
-8.73
-13.72
-18.14
-21.49
-23.18
-22.48
-18.75
-11.85
-2.35
8.32
18.00
24.45
26.12
22.83
16.05
8.37
2.15
-1.53
-3.47
-5.71
-10.38
-18.35
-28.93
-40.44
-51.09
-59.69
-65.52
-67.91
-65.86
-58.22
-44.47
-25.52
-3.99
16.30
31.49
38.96
38.17
30.91
20.69
11.64
7.10
8.47
14.67
22.53
28.06
27.83
20.16
5.68
-13.10
-32.64
-49.39
-60.69
-65.27
-63.16
-55.24
-42.63
-26.23
-6.97
13.88
34.10
50.51
59.78
59.79
50.59
34.83
16.96
1.57
-8.11
-11.13
-8.83
-4.11
-0.19
0.33
-3.63
-11.26
-20.12
-26.81
-28.06
-22.11
-9.39
7.51
24.80
39.05
48.47
53.29
55.23
56.34
57.94
60.15
62.09
62.44
60.21
55.06
47.45
38.49
29.52
21.62
15.36
10.67
7.12
4.32
2.18
0.82
0.29
0.21
-0.09
-1.13
-2.78
-4.17
-4.09
-1.79
2.54
7.84
12.75
16.12
17.31
15.99
12.16
6.35
0.03
-4.62
-5.51
-2.07
3.84
8.48
7.99
0.51
-12.52
-27.14
-38.90
-45.11
-45.85
-43.38
-40.44
-38.87
-39.04
-40.32
-41.83
-42.89
-43.01
-41.78
-38.72
-33.39
-25.64
-15.80
-4.84
5.45
12.76
14.86
10.50
0.16
-13.77
-27.71
-38.12
-42.72
-40.95
-33.70
-22.38
-8.42
6.77
21.45
33.43
40.44
40.91
34.71
23.22
8.99
-5.25
-17.16
-25.22
-28.81
-28.16
-24.15
-18.03
-11.15
-4.77
-0.04
2.02
0.56
-4.62
-12.60
-21.30
-28.20
-31.54
-31.43
-29.77
-29.05
-30.44
-32.73
-32.75
-27.23
-15.01
2.04
19.89
34.43
43.40
46.88
46.47
43.92
40.30
36.31
32.95
32.01
35.36
43.77
56.03
69.00
78.86
82.80
80.24
72.94
64.00
56.44
52.01
50.74
51.34
51.88
50.79
47.45
42.41
37.19
33.67
33.53
37.74
46.30
58.12
71.09
82.44
89.26
89.36
82.24
69.38
54.09
40.27
30.99
27.44
28.54
31.63
33.61
32.18
26.32
16.47
3.96
-9.58
-22.78
-34.56
-44.02
-50.24
-52.38
-50.18
-44.44
-36.93
-29.90
-25.11
-23.18
-23.55
-25.10
-26.82
-28.26
-29.34
-29.96
-29.80
-28.56
-26.37
-23.91
-22.11
-21.33
-20.94
-19.68
-16.36
-10.84
-4.23
1.53
4.53
3.66
-1.08
-8.73
-17.77
-26.51
-33.45
-37.41
-37.76
-34.54
-28.49
-20.92
-13.53
-7.91
-5.09
-5.34
-7.98
-11.63
-14.60
-15.46
-13.48
-8.81
-2.40
4.51
10.90
16.35
21.04
25.47
29.80
33.64
36.06
36.13
33.54
28.81
23.22
18.06
13.99
10.84
7.84
4.35
0.39
-3.20
-5.33
-5.25
-3.25
-0.60
0.99
0.32
-2.52
-6.11
-8.29
-7.24
-2.52
4.70
12.08
17.27
18.86
16.97
12.97
8.68
5.45
3.71
3.14
3.24
3.94
5.63
8.98
14.41
21.66
29.68
36.88
41.82
43.71
42.73
39.71
36.03
33.27
32.78
35.15
39.97
45.89
51.25
54.77
55.75
54.83
53.65
54.11
57.18
62.45
68.61
74.44
79.53
83.44
86.26
88.51
90.89
93.87
97.45
101.43
105.45
108.62
107.81
99.58
81.72
54.40
19.61
-19.60
-60.07
-98.97
-134.61
-168.18
-201.20
-234.05
-265.39
-293.79
-318.54
-339.67
-357.38
-358.16
-331.91
-277.20
-203.63
-125.23
-53.71
4.93
49.22
80.35
98.15
103.70
98.58
85.29
67.48
46.85
23.47
-4.15
-38.95
-83.07
-138.61
-203.76
-271.58
-330.61
-370.91
-386.07
-375.28
-330.35
-257.64
-174.98
-101.33
-52.38
-22.21
-2.35
13.61
30.26
49.61
70.70
92.70
115.90
141.06
169.11
198.47
227.24
254.55
281.07
307.54
336.28
370.07
409.69
452.31
489.54
511.42
510.60
485.26
438.97
380.35
319.72
265.33
221.47
187.58
161.09
139.72
122.25
107.86
96.13
86.67
79.04
73.03
68.06
63.45
58.47
51.93
42.13
27.50
7.13
-19.20
-50.96
-87.47
-128.15
-172.58
-220.79
-273.26
-331.09
-395.41
-466.32
-541.36
-614.62
-677.28
-719.85
-735.42
-722.19
-684.12
-629.22
-566.42
-502.78
-442.09
-385.32
-331.99
-281.51
-233.49
-187.50
-142.63
-97.54
-50.96
-2.12
48.83
100.63
150.72
195.80
232.48
258.17
271.51
272.49
261.87
240.78
210.56
172.97
131.03
89.51
54.70
32.99
28.51
41.03
64.97
90.50
106.50
104.65
82.81
46.24
6.07
-24.91
-37.19
-27.86
-0.76
36.33
75.35
110.73
139.63
160.72
173.07
175.76
168.58
152.61
129.95
102.99
73.23
41.35
8.10
-24.64
-53.79
-76.03
-89.35
-93.89
-91.46
-84.12
-73.06
-58.65
-41.71
-24.59
-11.09
-5.03
-8.27
-19.59
-35.11
-49.92
-60.21
-64.54
-63.81
-60.07
-55.12
-49.65
-43.41
-36.09
-28.15
-20.88
-15.73
-13.14
-12.14
-10.70
-6.95
-0.30
8.29
17.12
25.25
33.63
44.94
61.99
85.64
113.30
139.28
157.06
162.37
155.37
140.67
124.96
113.56
107.80
104.61
98.73
85.92
65.42
40.19
15.28
-4.55
-16.51
-20.16
-17.22
-11.00
-6.09
-7.50
-19.04
-41.17
-69.74
-96.86
-114.35
-118.11
-110.77
-100.86
-98.47
-109.96
-134.41
-163.98
-187.67
-196.09
-184.94
-155.95
-115.38
-71.62
-32.76
-4.98
8.62
8.58
-1.30
-15.06
-26.36
-30.29
-24.36
-8.79
13.92
39.33
61.55
73.93
70.66
49.08
11.84
-32.60
-72.17
-95.55
-96.88
-78.00
-47.29
-15.48
9.17
23.88
31.28
36.94
46.23
62.05
84.35
110.88
138.53
164.36
186.07
202.20
212.02
215.37
212.61
204.49
192.22
177.51
162.51
149.26
138.91
131.10
124.03
115.18
102.37
84.59
62.18
36.46
9.13
-17.95
-42.76
-63.24
-77.66
-85.25
-86.50
-82.84
-75.77
-66.18
-54.23
-40.06
-24.70
-10.59
-0.97
1.41
-4.43
-17.05
-33.16
-48.71
-60.17
-65.31
-63.32
-54.64
-40.75
-23.94
-6.77
8.64
21.30
31.47
40.16
48.38
56.38
63.85
70.42
76.29
82.15
88.49
94.81
99.45
100.21
95.51
85.37
71.54
56.76
43.66
33.76
27.29
23.50
21.29
19.72
18.18
16.36
14.05
11.15
7.54
3.24
-1.54
-6.34
-10.44
-12.96
-13.20
-10.88
-6.35
-0.61
5.06
9.58
12.47
14.04
15.10
16.48
18.54
21.06
23.28
24.34
23.63
21.07
17.10
12.46
7.84
3.58
-0.37
-4.27
-8.24
-12.08
-15.26
-17.40
-18.58
-19.51
-21.12
-23.91
-27.48
-30.53
-31.55
-29.57
-24.66
-17.76
-10.14
-2.75
3.95
9.76
14.38
17.35
18.24
17.09
14.59
11.78
9.57
8.18
7.11
5.54
2.96
-0.54
-4.23
-7.21
-8.84
-9.01
-8.11
-6.78
-5.62
-5.04
-5.22
-6.12
-7.62
-9.59
-11.83
-14.21
-16.60
-18.84
-20.65
-21.68
-21.51
-19.93
-17.10
-13.54
-10.04
-7.30
-5.63
-4.90
-4.58
-4.07
-3.00
-1.43
0.32
1.79
2.68
2.92
2.64
2.00
1.12
0.16
-0.65
-0.99
-0.70
0.13
1.03
1.41
0.94
-0.25
-1.60
-2.51
-2.75
-2.54
-2.45
-2.90
-3.96
-5.40
-7.00
-8.90
-11.54
-15.31
-20.02
-24.73
-28.05
-28.73
-26.40
-21.72
-16.02
-10.59
-6.10
-2.40
1.05
4.58
7.90
10.18
10.52
8.62
5.03
0.96
-2.30
-4.09
-4.48
-4.11
-3.67
-3.45
-3.37
-3.23
-3.09
-3.29
-4.19
-5.74
-7.40
-8.26
-7.64
-5.45
-2.36
0.74
3.26
5.32
7.68
11.30
16.70
23.70
31.51
39.07
45.50
50.24
53.00
53.58
51.77
47.35
40.31
30.85
19.48
6.91
-5.91
-17.85
-27.71
-34.59
-38.22
-39.26
-39.01
-38.81
-39.26
-39.86
-39.41
-36.89
-32.20
-26.27
-20.19
-14.26
-7.41
2.29
16.42
35.06
56.35
77.21
94.70
107.10
114.28
117.16
116.91
114.44
110.48
105.92
102.22
101.21
104.65
113.61
127.98
146.41
166.68
186.30
203.27
216.70
227.03
235.89
245.34
256.83
270.34
284.07
295.07
300.63
299.55
292.63
282.09
270.18
257.97
244.97
229.91
211.90
191.40
170.09
149.89
131.79
115.36
99.13
81.66
62.53
42.48
23.01
5.56
-8.96
-20.26
-28.30
-33.04
-34.31
-31.88
-25.78
-16.45
-4.83
7.70
19.44
28.64
33.77
33.90
28.83
19.13
5.76
-10.30
-28.34
-47.85
-68.26
-88.66
-107.76
-124.36
-137.81
-148.57
-158.10
-168.45
-181.33
-197.49
-216.45
-236.87
-257.19
-276.09
-292.75
-306.66
-317.50
-325.07
-329.50
-331.53
-332.43
-333.75
-336.81
-342.23
-349.82
-358.83
-368.23
-377.10
-384.54
-389.57
-390.89
-387.07
-377.01
-360.79
-340.05
-317.81
-297.41
-281.06
-268.71
-257.89
-244.59
-224.81
-195.98
-157.53
-110.70
-57.73
-1.24
56.07
111.29
161.38
203.52
235.62
256.75
267.01
267.10
257.84
240.20
215.58
186.25
155.28
125.86
100.26
78.98
60.74
43.29
24.73
4.48
-16.40
-35.87
-51.85
-63.14
-69.41
-70.69
-66.62
-56.22
-38.56
-14.27
13.46
38.70
54.28
54.10
35.32
-1.02
-51.05
-109.95
-173.38
-237.33
-297.13
-346.56
-378.39
-386.69
-369.39
-329.65
-274.89
-213.77
-152.74
-94.27
-37.48
19.30
75.82
128.82
173.07
203.76
218.84
219.90
211.37
198.67
186.29
176.53
169.48
163.74
157.43
148.98
137.46
122.45
103.85
81.63
55.74
26.14
-6.90
-42.56
-79.25
-114.85
-147.19
-174.75
-197.15
-215.29
-230.92
-245.75
-260.53
-274.35
-284.72
-288.33
-282.30
-265.34
-238.39
-204.16
-166.16
-127.47
-89.83
-53.51
-17.66
19.19
58.59
101.72
148.61
197.30
243.51
281.35
305.15
311.64
301.27
277.71
245.97
210.15
172.24
132.30
89.68
44.18
-3.08
-49.70
-92.32
-127.15
-150.63
-160.23
-155.25
-137.08
-109.11
-75.80
-41.43
-9.24
19.18
43.91
66.30
88.25
111.35
135.86
160.15
180.85
194.05
196.89
188.61
170.39
144.34
112.36
75.77
35.89
-5.12
-43.88
-76.45
-99.64
-112.32
-115.85
-113.48
-108.98
-105.07
-102.43
-99.99
-95.67
-87.85
-76.39
-62.77
-49.51
-39.09
-32.90
-30.80
-31.17
-31.43
-28.72
-20.53
-4.97
18.98
51.43
91.33
136.29
182.72
226.35
263.02
289.46
303.86
305.71
295.50
274.31
243.65
205.59
162.89
118.76
76.16
36.92
1.14
-32.62
-66.35
-101.33
-137.09
-171.33
-200.76
-222.38
-234.59
-237.64
-233.08
-222.64
-207.20
-186.36
-158.90
-123.68
-80.48
-30.22
25.49
84.89
146.15
206.93
263.70
311.60
345.32
360.72
356.49
335.00
301.68
263.39
226.47
195.23
171.54
155.27
145.05
138.92
134.52
128.91
118.60
100.00
70.41
29.22
-21.36
-76.49
-129.99
-176.10
-211.15
-234.45
-247.96
-255.10
-259.16
-262.11
-264.14
-264.16
-260.77
-253.17
-241.58
-226.80
-209.53
-189.59
-165.88
-136.86
-101.33
-58.85
-9.67
45.53
105.58
168.16
228.94
281.41
318.10
332.96
323.80
293.60
249.63
200.78
154.40
114.13
79.61
48.17
16.96
-15.18
-47.19
-76.32
-99.24
-113.09
-116.12
-107.97
-89.67
-63.21
-31.42
2.56
35.46
64.40
87.25
103.07
112.26
116.38
117.57
117.73
117.87
117.75
116.33
112.37
105.12
94.49
80.81
64.19
44.24
20.30
-7.91
-39.38
-71.71
-101.51
-125.63
-142.20
-151.35
-155.00
-156.11
-157.57
-161.49
-168.90
-179.83
-193.49
-208.50
-223.09
-235.48
-244.35
-249.18
-250.26
-248.08
-242.63
-232.87
-216.93
-192.90
-159.78
-117.98
-69.10
-15.47
40.38
95.72
147.50
192.52
228.08
252.95
267.99
275.91
279.98
282.30
282.58
278.12
265.32
241.91
208.72
170.06
132.44
101.97
82.09
72.43
69.60
69.22
68.03
65.01
60.84
56.55
52.39
47.73
41.96
35.41
29.47
25.69
24.66
25.34
25.57
23.36
18.18
11.49
6.17
5.07
10.09
21.75
39.37
61.86
87.92
115.94
143.74
168.67
188.14
200.63
206.32
207.06
205.30
202.65
198.71
191.08
176.36
152.17
118.31
76.94
31.54
-14.83
-60.96
-107.67
-156.69
-209.06
-263.84
-318.05
-367.70
-409.17
-439.97
-458.96
-465.45
-458.45
-436.79
-399.55
-347.23
-282.34
-209.09
-132.19
-55.63
18.14
87.96
153.24
213.40
267.80
316.34
359.97
400.24
438.62
475.08
507.38
531.50
543.35
540.58
523.82
496.48
463.27
428.45
394.59
362.46
331.78
302.17
273.66
246.67
221.52
198.05
175.59
153.23
130.31
106.72
82.85
59.43
37.06
15.98
-4.07
-23.62
-43.31
-63.56
-84.39
-105.71
-126.78
-147.19
-166.89
-186.36
-206.52
-228.29
-251.94
-276.55
-300.15
-319.61
-332.25
-336.56
-332.77
-322.69
-308.99
-294.24
-280.18
-268.02
-257.35
-248.12
-240.52
-234.97
-231.78
-230.90
-231.87
-234.03
-238.10
-242.03
-244.92
-245.29
-241.36
-231.84
-217.05
-199.46
-183.24
-175.19
-174.67
-180.66
-188.99
-193.87
-190.57
-177.68
-158.15
-138.56
-131.16
-138.35
-164.01
-207.40
-262.96
-321.32
-371.45
-403.19
-409.73
-394.62
-354.97
-297.64
-230.71
-161.05
-92.60
-25.98
40.30
141.40
232.25
315.56
384.80
433.26
456.75
455.35
433.37
397.74
355.54
306.89
261.29
220.57
185.80
157.68
136.18
119.92
106.09
91.09
67.42
37.68
1.38
-40.70
-87.07
-136.36
-187.65
-240.45
-294.18
-350.00
-401.98
-445.45
-474.77
-485.05
-473.73
-441.72
-393.20
-334.37
-272.91
-212.42
-155.79
-103.89
-56.31
-12.20
29.18
68.39
105.93
142.08
178.54
216.53
256.89
299.32
341.71
380.29
410.29
427.41
429.14
415.64
389.47
354.50
314.54
272.69
231.51
193.82
163.00
142.35
133.49
134.88
141.73
147.47
146.26
135.24
115.16
89.48
62.45
37.45
16.61
1.29
-6.96
-6.35
4.59
25.76
55.07
88.80
122.65
153.06
177.74
195.75
207.05
212.21
212.21
208.39
202.18
194.67
186.28
176.62
164.91
150.55
133.74
115.52
97.25
79.91
63.67
48.01
32.21
15.94
-0.52
-16.49
-31.40
-45.14
-58.16
-71.15
-84.63
-98.74
-113.15
-127.41
-141.16
-154.37
-167.36
-180.70
-194.85
-209.76
-224.60
-237.73
-247.05
-250.66
-247.60
-238.36
-224.80
-209.58
-195.20
-183.18
-173.73
-166.06
-158.94
-151.09
-141.51
-129.28
-113.66
-94.16
-71.00
-45.36
-19.27
4.84
24.88
39.69
49.24
54.36
56.22
55.95
54.45
52.36
50.14
48.11
46.35
44.79
43.20
41.36
39.18
36.78
34.43
32.40
30.86
29.76
28.95
28.36
28.09
28.47
29.80
32.05
34.69
36.71
37.01
34.84
30.12
23.37
15.47
7.26
-0.68
-8.07
-14.75
-20.60
-25.41
-28.97
-31.16
-32.01
-31.69
-30.46
-28.54
-26.09
-23.17
-19.85
-16.40
-13.29
-11.11
-10.30
-10.88
-12.30
-13.74
-14.38
-13.86
-12.35
-10.42
-8.64
-7.25
-6.15
-5.16
-4.22
-3.55
-3.51
-4.31
-5.69
-7.04
-7.60
-6.92
-5.08
-2.77
-0.94
-0.42
-1.50
-3.73
-6.14
-7.57
-7.27
-5.31
-2.78
-1.32
-2.61
-7.59
-16.08
-26.84
-38.02
-47.67
-54.22
-56.57
-54.33
-48.21
-40.24
-33.69
-32.28
-38.87
-54.34
-77.00
-102.97
-127.30
-145.31
-153.46
-149.92
-134.57
-108.82
-75.40
-38.10
-1.17
31.26
56.01
71.28
76.73
73.35
63.10
48.68
33.13
19.31
9.21
3.60
1.93
2.71
4.06
4.30
2.23
-2.71
-10.37
-19.68
-28.70
-34.82
-35.46
-29.05
-15.84
1.75
19.80
33.99
40.96
39.15
29.00
12.49
-7.56
-28.08
-46.11
-59.07
-65.04
-63.02
-53.18
-36.88
-16.32
5.91
27.48
46.63
62.28
73.89
81.27
84.50
84.01
80.73
76.16
72.10
70.25
71.60
76.17
82.96
90.27
96.30
99.61
99.45
95.82
89.16
80.14
69.49
57.96
46.35
35.57
26.56
20.03
16.24
14.78
14.60
14.27
12.51
8.60
2.72
-4.07
-10.21
-14.24
-15.37
-13.78
-10.48
-6.88
-4.22
-3.18
-3.90
-6.16
-9.74
-14.58
-20.60
-27.61
-35.31
-43.65
-53.05
-64.15
-76.99
-90.10
-100.15
-102.86
-95.04
-76.59
-51.49
-26.70
-9.50
-4.37
-11.17
-25.45
-40.75
-51.54
-55.19
-52.49
-46.54
-41.21
-40.06
-46.19
-62.42
-90.87
-131.81
-182.02
-234.15
-277.95
-303.34
-303.98
-279.45
-234.86
-178.24
-117.24
-57.07
-0.56
50.37
93.21
124.67
142.00
144.84
136.14
121.56
107.35
97.98
94.73
95.45
95.90
91.67
79.86
60.22
35.16
9.22
-12.11
-23.65
-21.63
-4.56
26.38
67.37
112.63
155.54
190.14
212.49
221.33
218.01
205.64
188.06
168.77
150.40
134.60
122.16
113.23
107.53
104.36
102.77
101.63
99.96
97.20
93.52
89.84
87.51
87.74
90.80
95.73
100.63
103.58
103.64
101.38
98.40
95.99
94.07
90.84
83.45
69.50
48.14
20.11
-13.21
-50.75
-91.87
-135.13
-176.83
-210.54
-228.42
-224.04
-195.09
-144.30
-77.79
-1.95
79.22
164.31
252.32
339.78
419.41
481.70
518.70
527.79
513.12
483.64
449.05
415.85
385.80
356.79
325.79
291.40
254.79
218.71
185.48
155.36
126.35
95.27
59.47
18.25
-26.60
-71.67
-113.42
-149.81
-181.12
-209.72
-238.92
-271.46
-308.50
-349.38
-392.15
-434.22
-473.03
-506.41
-532.73
-551.21
-561.86
-565.15
-561.39
-550.34
-531.03
-502.34
-464.10
-418.14
-368.92
-323.12
-288.34
-271.01
-274.12
-295.51
-327.65
-359.22
-378.34
-376.37
-350.57
-304.39
-245.21
-180.85
-116.59
-54.36
5.77
63.17
114.93
156.20
182.15
190.30
182.03
162.05
136.65
111.49
90.22
74.00
62.33
54.33
49.64
48.69
52.13
60.13
71.77
85.06
97.52
107.04
112.55
114.24
113.41
111.63
110.20
109.81
110.46
111.69
112.72
112.59
110.34
105.32
97.60
88.20
78.80
71.21
66.52
64.66
64.42
64.12
62.34
58.54
53.10
46.87
40.65
34.74
28.99
23.20
17.38
11.98
7.57
4.59
2.95
2.11
1.26
-0.34
-3.03
-6.72
-11.04
-15.51
-19.71
-23.31
-26.02
-27.51
-27.52
-25.95
-23.00
-19.08
-14.62
-9.85
-4.79
0.62
6.32
12.17
18.01
23.85
29.78
35.76
41.36
45.89
48.81
50.28
51.32
53.45
57.73
64.07
71.10
76.78
79.37
78.16
73.49
66.30
57.50
47.72
37.56
27.94
20.15
15.48
14.63
17.25
21.99
27.06
30.83
32.33
31.28
27.86
22.47
15.47
7.39
-1.16
-9.40
-16.64
-22.51
-27.21
-31.44
-36.09
-41.69
-48.10
-54.38
-59.09
-60.96
-59.48
-55.27
-49.76
-44.56
-40.68
-38.08
-35.90
-33.19
-29.67
-26.10
-23.90
-24.31
-27.53
-32.51
-37.34
-40.31
-40.82
-39.59
-38.28
-38.51
-41.06
-45.63
-51.29
-57.09
-62.58
-67.71
-72.51
-76.74
-80.10
-82.69
-85.44
-90.03
-98.17
-110.70
-126.91
-144.45
-159.95
-170.10
-172.54
-166.57
-153.18
-134.78
-114.36
-94.65
-77.25
-62.15
-47.73
-31.36
-10.54
16.05
47.86
82.50
116.39
146.00
168.75
183.69
191.32
193.10
190.68
185.44
178.42
170.50
162.61
155.66
150.21
146.24
143.05
139.50
134.68
128.31
121.03
114.12
108.91
106.08
105.14
104.36
101.40
94.18
81.77
64.60
44.20
22.36
0.49
-20.59
-40.27
-57.61
-71.07
-78.92
-80.08
-74.99
-65.62
-54.96
-45.82
-40.01
-38.08
-39.69
-44.26
-51.16
-59.61
-68.27
-75.18
-78.08
-75.07
-65.25
-48.71
-26.21
1.41
33.32
68.40
104.75
139.54
169.53
191.98
205.46
210.20
207.83
200.56
190.48
179.10
167.30
155.39
143.44
131.40
119.32
107.39
95.95
85.28
75.42
66.06
56.66
46.78
36.35
25.74
15.55
6.22
-2.19
-9.99
-17.52
-24.83
-31.62
-37.46
-42.22
-46.31
-50.66
-56.24
-63.58
-72.40
-81.69
-89.99
-95.96
-98.71
-97.89
-93.63
-86.38
-76.79
-65.77
-54.38
-43.73
-34.68
-27.64
-22.45
-18.59
-15.51
-12.84
-10.53
-8.62
-7.12
-5.84
-4.53
-3.10
-1.71
-0.75
-0.61
-1.41
-2.86
-4.39
-5.48
-6.03
-6.45
-7.50
-9.90
-13.95
-19.34
-25.18
-30.48
-34.52
-37.02
-38.23
-38.67
-38.88
-39.26
-40.07
-41.56
-43.88
-46.99
-50.51
-53.70
-55.62
-55.54
-53.25
-49.16
-44.12
-39.05
-34.58
-30.95
-28.04
-25.71
-23.88
-22.61
-21.98
-21.99
-22.54
-23.52
-24.89
-26.75
-29.25
-32.43
-36.08
-39.62
-42.22
-43.01
-41.38
-37.33
-31.58
-25.41
-20.26
-17.25
-16.85
-18.76
-22.14
-25.90
-29.12
-31.19
-31.96
-31.62
-30.71
-29.84
-29.54
-30.03
-31.11
-32.25
-32.89
-32.73
-31.75
-30.13
-27.88
-24.82
-20.66
-15.33
-9.27
-3.25
1.92
5.88
8.84
11.34
13.83
16.43
18.98
21.43
24.06
27.52
32.48
39.22
47.46
56.42
65.11
72.69
78.62
82.77
85.31
86.64
87.20
87.41
87.51
87.60
87.80
88.42
89.92
92.72
96.86
101.78
106.53
110.15
112.13
112.55
111.86
110.45
108.37
105.31
100.94
95.18
88.35
81.04
73.85
67.18
61.30
56.48
53.05
51.49
52.18
55.31
60.78
68.26
77.16
86.73
96.02
104.02
109.93
113.34
114.41
113.76
112.14
110.14
108.01
105.67
102.89
99.45
95.29
90.41
84.89
78.80
72.23
65.30
58.10
50.67
43.03
35.16
27.09
18.97
10.99
3.43
-3.35
-8.90
-12.67
-14.13
-12.99
-9.39
-3.98
2.20
8.09
12.92
16.37
18.52
19.58
19.68
18.69
16.40
12.61
7.36
0.97
-6.06
-13.14
-19.82
-25.82
-31.05
-35.52
-39.32
-42.61
-45.71
-49.02
-53.10
-58.51
-65.70
-74.87
-85.91
-98.37
-111.52
-124.43
-136.13
-145.74
-152.60
-156.41
-157.16
-155.20
-151.17
-145.99
-140.76
-136.57
-134.22
-133.95
-135.44
-137.91
-140.55
-142.76
-144.26
-144.96
-144.72
-143.31
-140.42
-135.97
-130.10
-123.15
-115.39
-106.88
-97.55
-87.59
-77.72
-69.23
-63.45
-60.94
-60.76
-60.38
-56.51
-46.32
-28.71
-4.84
22.30
48.96
71.92
89.28
100.42
105.49
104.68
97.88
84.72
64.94
38.52
5.35
-34.77
-81.58
-133.17
-184.64
-227.81
-252.81
-251.57
-221.67
-168.74
-105.46
-47.42
-7.52
8.28
1.90
-19.02
-44.98
-68.09
-83.44
-88.62
-82.64
-65.12
-36.43
1.64
45.93
92.48
138.16
181.60
223.06
263.09
300.97
334.24
359.17
372.20
371.30
356.54
329.49
292.53
247.95
198.01
145.11
91.91
40.80
-6.93
-51.66
-95.11
-139.14
-184.47
-229.55
-270.66
-302.72
-320.60
-320.52
-301.11
-263.69
-211.81
-150.25
-83.65
-15.57
51.84
117.32
179.55
236.37
284.83
321.84
345.27
354.67
351.33
337.68
316.52
290.41
261.54
231.77
202.75
175.92
152.23
132.03
114.93
99.91
85.85
72.12
58.56
45.46
33.46
23.25
15.13
8.86
3.59
-1.67
-7.45
-13.93
-20.96
-28.11
-35.11
-42.02
-49.28
-57.74
-67.91
-79.24
-90.87
-102.04
-112.09
-120.83
-128.68
-136.39
-145.55
-156.95
-169.20
-181.02
-191.95
-201.58
-209.56
-215.46
-218.54
-219.61
-218.71
-212.78
-200.33
-182.25
-159.96
-135.73
-112.71
-94.63
-88.01
-97.50
-121.00
-156.28
-201.54
-252.30
-301.84
-342.31
-366.49
-373.58
-365.52
-341.47
-305.51
-265.11
-224.89
-185.42
-144.11
-75.66
29.31
133.01
216.26
278.25
315.62
329.13
323.97
307.83
287.97
265.31
239.62
216.81
201.72
197.68
208.51
235.55
275.41
320.18
357.52
378.48
384.34
379.32
367.43
351.94
333.42
309.87
278.58
236.65
184.63
128.66
74.48
25.16
-18.06
-55.74
-89.35
-120.27
-150.12
-179.30
-206.28
-230.25
-251.69
-271.85
-292.54
-315.77
-342.96
-374.71
-410.29
-447.33
-483.03
-514.41
-538.16
-550.87
-549.64
-533.02
-501.79
-459.17
-410.10
-359.84
-312.53
-270.45
-234.16
-203.25
-177.20
-155.69
-138.39
-124.54
-112.72
-101.15
-88.29
-73.06
-55.05
-34.60
-12.33
11.02
34.94
59.13
83.60
108.50
134.18
161.24
190.25
221.46
254.11
286.12
314.09
334.22
343.44
340.52
326.48
304.22
277.61
250.33
225.26
204.08
187.44
175.18
166.62
160.78
156.63
153.26
149.85
145.69
140.05
132.25
122.11
110.14
97.64
86.29
77.64
72.53
70.90
71.98
74.55
77.29
78.98
78.63
75.82
70.95
65.25
60.27
56.87
54.34
50.34
41.79
26.43
4.08
-23.09
-51.36
-76.98
-97.39
-111.75
-120.60
-125.23
-126.95
-126.69
-124.69
-120.34
-112.28
-98.88
-79.12
-53.43
-24.11
4.98
29.61
46.52
54.42
54.16
48.24
39.76
31.31
24.43
19.52
16.32
14.65
14.95
18.28
25.47
36.19
48.31
58.45
63.42
61.96
55.62
48.21
43.98
45.49
52.48
62.05
70.17
73.61
71.20
63.84
53.94
43.90
35.14
27.67
20.36
11.61
0.05
-14.93
-32.90
-52.28
-70.49
-84.38
-91.13
-89.40
-80.37
-67.55
-55.60
-48.39
-47.23
-50.65
-55.47
-59.03
-60.86
-63.02
-68.77
-80.33
-97.00
-114.59
-126.55
-126.10
-108.76
-74.63
-28.67
20.37
62.63
90.55
101.57
98.43
87.81
76.95
70.69
70.18
73.22
75.65
73.38
63.54
45.22
19.90
-8.52
-34.35
-51.47
-55.76
-47.26
-30.73
-13.77
-3.58
-3.40
-11.36
-22.01
-29.33
-29.89
-24.23
-16.20
-10.70
-11.23
-18.04
-27.87
-34.95
-33.18
-19.18
6.17
37.51
67.20
88.99
100.86
105.61
108.66
114.44
123.37
131.78
134.13
126.46
108.49
83.75
57.81
36.26
23.46
21.64
30.71
47.81
67.64
83.47
89.62
83.69
67.45
45.67
23.28
3.03
-15.39
-34.09
-54.55
-75.78
-94.12
-104.51
-102.45
-85.23
-52.53
-6.53
48.10
104.67
155.90
195.80
221.74
234.98
239.50
239.91
239.54
240.02
242.12
246.87
255.60
268.60
284.10
297.68
303.94
298.88
282.23
257.92
232.46
212.20
200.94
198.72
202.36
206.95
207.57
200.67
184.67
159.84
127.58
89.64
47.38
1.39
-48.26
-101.88
-160.11
-223.87
-294.12
-370.95
-452.18
-532.64
-604.59
-659.76
-692.19
-700.52
-688.48
-663.33
-633.03
-603.71
-578.39
-557.16
-538.36
-519.69
-498.85
-473.89
-443.52
-407.63
-367.42
-325.46
-284.65
-247.13
-213.51
-182.41
-150.73
-114.51
-70.38
-17.29
41.70
98.70
142.17
160.19
145.19
97.85
28.23
-47.09
-110.64
-150.11
-161.79
-150.09
-123.78
-91.49
-58.58
-26.87
3.70
33.08
60.29
83.96
103.40
119.26
133.43
147.98
164.36
182.90
202.68
221.80
237.90
248.98
254.17
254.10
250.54
245.48
239.97
233.64
225.06
212.94
197.28
179.78
163.36
151.06
144.86
145.10
150.66
159.31
168.43
175.75
179.91
181.01
180.64
181.37
185.89
196.28
213.39
236.58
263.69
291.16
314.46
328.98
331.31
320.71
299.56
272.47
244.37
218.71
196.70
177.95
161.45
146.51
132.55
118.54
102.65
82.81
57.72
27.74
-5.26
-39.15
-73.15
-108.56
-147.87
-192.80
-242.02
-290.53
-330.48
-353.92
-355.57
-334.71
-295.56
-246.10
-195.34
-150.61
-115.84
-91.35
-75.25
-65.31
-59.98
-58.25
-58.67
-58.64
-54.91
-45.06
-29.04
-9.37
10.11
26.28
38.45
48.28
58.42
70.56
84.15
96.68
104.64
104.91
96.00
78.20
53.66
25.90
-1.25
-24.69
-42.34
-53.43
-57.82
-55.33
-46.08
-31.62
-15.83
-4.77
-4.69
-18.86
-45.56
-78.12
-107.66
-126.73
-132.30
-125.83
-111.33
-93.14
-73.76
-54.26
-35.37
-18.41
-5.44
2.01
4.17
3.11
1.62
1.47
2.19
1.63
-2.21
-9.60
-17.93
-22.96
-20.95
-10.64
6.14
25.56
43.63
57.67
66.43
69.40
66.18
56.51
41.16
22.73
5.48
-6.04
-8.55
-1.78
11.51
26.84
39.54
46.76
48.23
45.93
42.66
40.54
39.81
38.75
34.60
24.96
9.37
-10.25
-30.08
-46.16
-55.61
-57.67
-53.53
-44.88
-33.26
-19.42
-3.77
12.49
26.81
36.02
37.46
30.53
17.21
1.22
-13.25
-23.07
-26.90
-24.57
-16.53
-3.95
11.75
28.68
44.74
58.69
70.61
81.62
92.93
104.71
115.66
123.56
126.48
123.88
116.94
107.93
99.18
92.96
91.39
96.74
111.45
137.06
172.76
214.68
256.09
289.44
308.91
312.54
302.79
285.16
265.63
248.23
234.17
221.98
209.55
195.54
179.75
162.72
144.72
124.87
101.31
72.13
36.39
-5.03
-49.65
-94.33
-136.42
-174.82
-210.33
-245.14
-282.04
-323.72
-372.34
-429.07
-493.38
-562.08
-629.00
-685.76
-723.99
-738.20
-727.87
-697.58
-655.07
-608.09
-561.96
-518.76
-478.30
-439.87
-403.56
-370.24
-340.65
-314.34
-289.54
-263.79
-235.17
-203.21
-169.02
-134.86
-102.97
-74.64
-49.70
-26.68
-3.53
21.44
48.85
78.05
107.44
135.41
161.00
184.34
206.58
229.29
253.89
281.46
312.78
348.37
388.16
430.70
472.64
508.99
534.41
545.20
540.68
523.33
497.45
467.12
434.56
399.92
362.13
320.43
275.12
227.59
179.44
131.90
85.97
43.25
6.86
-18.64
-28.41
-19.16
9.01
52.10
102.98
153.36
195.81
225.11
238.67
236.10
218.57
188.30
148.36
102.27
53.54
4.94
-42.14
-87.84
-133.25
-179.37
-226.16
-272.26
-315.38
-353.02
-383.07
-403.84
-414.08
-412.87
-399.96
-376.15
-343.34
-304.07
-260.74
-215.08
-168.19
-121.00
-74.72
-30.75
9.85
46.82
80.58
111.44
138.68
160.24
173.81
178.06
173.72
163.50
150.92
139.01
129.45
122.62
118.13
115.42
113.87
112.50
109.95
104.61
95.11
80.91
62.65
42.03
21.41
3.24
-10.37
-17.99
-18.93
-13.24
-1.55
15.02
35.09
57.13
79.64
101.32
121.14
138.38
152.61
163.62
171.55
177.06
181.42
186.35
193.40
203.22
215.01
226.37
234.07
235.13
228.03
213.14
192.48
168.71
144.16
120.26
97.54
76.15
56.26
38.23
22.42
8.84
-2.94
-13.59
-23.65
-33.24
-42.06
-49.75
-56.23
-61.94
-67.73
-74.47
-82.62
-92.07
-102.11
-111.77
-120.19
-126.92
-132.08
-136.38
-140.61
-145.16
-149.71
-153.37
-155.14
-154.48
-151.80
-148.41
-146.15
-146.50
-149.85
-155.27
-160.77
-164.19
-163.97
-159.92
-153.23
-146.43
-142.19
-142.20
-146.75
-154.72
-164.19
-172.91
-179.06
-181.61
-181.98
-183.19
-189.19
-203.54
-228.16
-262.21
-301.11
-337.85
-364.06
-374.78
-368.69
-348.32
-319.02
-287.13
-257.94
-232.82
-210.37
-186.37
-159.58
-130.37
-100.18
-70.17
-40.70
-12.09
16.02
40.98
58.95
61.40
41.45
-2.53
-65.26
-136.72
-206.57
-265.58
-310.88
-315.03
-262.35
-155.91
-19.08
118.72
237.93
322.36
382.42
426.93
460.39
479.87
481.93
467.03
439.17
404.81
369.32
336.56
305.08
272.62
234.86
190.10
140.39
90.27
43.82
1.77
-36.97
-75.96
-116.19
-156.82
-193.97
-222.52
-238.29
-239.70
-228.19
-206.00
-176.31
-141.22
-103.12
-64.56
-28.30
3.27
28.72
47.60
60.91
69.77
75.73
79.93
83.18
85.74
87.41
87.90
87.02
85.21
83.35
82.49
82.94
83.50
81.31
72.77
55.05
27.37
-8.47
-48.72
-88.83
-124.84
-153.98
-174.68
-186.08
-187.54
-178.54
-158.93
-129.15
-90.32
-43.93
8.36
64.75
122.76
178.67
227.51
264.09
284.68
288.54
278.50
259.57
236.66
212.29
185.63
153.33
111.61
58.66
-3.95
-71.38
-136.81
-193.26
-235.42
-261.00
-271.41
-271.53
-267.95
-266.71
-270.94
-279.88
-289.68
-295.65
-294.66
-286.26
-272.22
-254.80
-235.21
-213.08
-187.31
-157.28
-123.71
-88.53
-53.74
-20.61
10.65
40.27
68.30
94.24
117.22
136.56
152.25
165.04
176.13
186.77
197.80
209.60
222.03
234.32
245.16
252.76
255.37
251.87
242.40
228.39
212.00
195.20
179.05
163.38
147.32
130.08
111.59
92.75
74.94
59.39
46.67
36.43
27.62
18.94
9.42
-1.19
-12.14
-21.98
-29.12
-32.51
-32.16
-29.15
-25.18
-21.79
-19.70
-18.66
-17.77
-16.14
-13.37
-9.73
-5.81
-2.23
0.52
1.96
1.66
-0.77
-5.31
-11.13
-16.83
-20.93
-22.45
-21.68
-19.94
-19.20
-21.17
-26.56
-34.69
-43.93
-52.20
-57.59
-58.85
-55.56
-48.30
-38.56
-28.16
-18.61
-10.55
-3.83
2.18
7.75
12.80
16.86
19.59
21.27
22.93
25.86
30.85
37.69
45.00
52.02
58.20
63.45
68.32
73.51
79.46
85.67
91.26
94.90
97.77
101.56
107.87
117.65
130.80
146.20
161.55
175.15
185.95
196.67
209.54
224.55
239.26
250.53
256.93
259.46
262.73
271.55
291.87
324.18
362.73
398.00
421.41
429.55
423.89
410.98
374.64
309.01
219.93
123.73
37.46
-29.28
-69.01
-89.26
-96.74
-96.88
-90.60
-79.24
-65.03
-50.70
-38.57
-29.62
-24.68
-23.11
-25.03
-28.55
-32.85
-38.40
-46.48
-57.94
-72.36
-89.08
-106.32
-123.22
-138.23
-150.96
-162.08
-172.76
-183.73
-194.78
-205.48
-214.98
-223.38
-231.04
-239.11
-249.00
-261.72
-277.27
-294.70
-312.81
-330.50
-347.73
-365.15
-384.23
-407.01
-435.85
-472.80
-518.43
-570.55
-623.30
-668.02
-695.53
-699.35
-678.18
-636.31
-581.74
-522.93
-465.91
-413.18
-364.63
-319.29
-276.98
-238.49
-204.84
-176.21
-151.62
-129.42
-108.29
-87.93
-69.11
-53.28
-41.56
-34.14
-30.06
-27.55
-24.79
-20.51
-14.46
-7.31
-0.28
5.51
9.49
11.77
13.00
13.99
15.29
16.99
18.79
20.12
20.55
19.92
18.44
16.56
14.79
13.54
12.99
13.14
13.86
15.00
16.44
18.13
20.05
22.26
24.84
27.95
31.77
36.49
42.19
48.77
55.94
63.33
70.60
77.61
84.51
91.65
99.39
107.93
117.09
126.33
135.01
142.60
149.06
154.90
161.03
168.41
177.62
188.63
200.78
213.26
225.46
237.32
249.39
262.46
277.27
294.36
314.15
336.93
362.69
390.38
417.30
439.49
452.60
453.72
442.70
422.25
396.51
369.07
341.43
313.05
282.58
249.55
215.34
182.95
155.58
135.35
122.60
116.11
113.96
114.27
115.76
117.64
119.37
120.17
118.71
113.36
102.65
86.37
66.16
45.21
26.84
12.68
1.36
-10.57
-26.36
-46.77
-68.74
-86.51
-94.32
-89.54
-73.63
-51.41
-28.45
-8.50
7.23
19.36
28.56
34.32
35.16
29.63
17.37
-0.50
-21.54
-42.93
-61.83
-76.10
-84.62
-87.16
-84.62
-78.24
-69.13
-57.74
-43.74
-26.66
-6.55
15.92
39.85
64.65
90.17
115.83
139.59
157.40
164.82
159.34
142.48
120.51
102.25
95.49
103.75
124.77
151.64
176.05
191.41
194.98
187.88
173.38
154.88
134.40
112.31
88.13
61.57
33.33
4.87
-22.64
-49.38
-77.72
-112.04
-157.30
-216.71
-289.22
-368.34
-442.99
-500.61
-531.50
-532.18
-506.14
-461.74
-408.79
-355.55
-307.67
-268.51
-239.88
-222.12
-213.44
-209.58
-204.51
-192.48
-170.25
-138.03
-98.83
-56.25
-12.47
32.60
80.71
133.38
189.85
246.17
295.93
332.26
350.31
349.06
332.04
305.84
277.67
252.91
233.64
218.83
205.68
191.33
173.92
152.85
128.30
100.47
69.38
34.89
-3.06
-44.00
-86.97
-131.11
-176.46
-224.28
-276.16
-332.06
-388.60
-438.86
-474.24
-487.69
-476.84
-445.00
-399.63
-349.32
-300.45
-255.82
-215.20
-177.07
-140.24
-104.35
-69.40
-34.79
1.07
40.36
84.67
134.06
186.56
238.25
284.35
320.38
343.23
351.75
346.87
331.15
307.93
280.45
251.10
221.25
191.58
162.80
136.28
114.02
97.94
88.77
85.34
84.85
84.04
80.71
74.59
66.99
59.66
53.50
48.10
42.13
34.37
24.51
13.14
1.26
-10.32
-21.33
-31.70
-41.24
-49.33
-55.26
-58.57
-59.54
-59.19
-58.95
-60.11
-63.28
-68.23
-74.05
-79.47
-83.34
-85.04
-84.83
-83.74
-83.21
-84.19
-86.39
-87.86
-85.40
-75.71
-56.86
-29.30
4.07
38.93
71.03
97.47
117.05
129.92
136.63
137.72
133.69
125.52
114.96
104.28
95.57
89.83
86.63
84.36
81.14
75.60
67.44
57.21
45.87
34.44
23.78
14.60
7.54
2.86
0.35
-0.75
-1.33
-2.06
-2.83
-2.93
-1.49
1.91
6.78
11.73
14.86
14.18
8.09
-4.30
-22.83
-45.95
-70.53
-92.38
-107.42
-113.08
-109.37
-98.87
-85.52
-72.76
-62.33
-53.88
-46.15
-38.42
-31.22
-26.12
-24.39
-25.89
-29.07
-32.12
-34.27
-36.59
-40.90
-48.13
-57.00
-64.12
-65.69
-59.76
-47.62
-32.90
-19.61
-9.98
-3.75
0.77
4.51
6.31
3.35
-6.90
-24.55
-46.78
-68.93
-86.57
-97.34
-101.05
-98.84
-91.86
-80.52
-64.70
-44.91
-22.56
-0.01
20.05
35.77
46.57
53.01
56.26
57.48
57.46
56.66
55.27
53.28
51.25
50.72
54.00
63.52
80.83
105.85
136.99
171.86
208.00
243.30
275.60
302.30
320.37
327.18
321.62
305.06
281.08
254.38
229.20
207.90
191.01
177.96
167.75
159.42
151.84
143.41
132.14
116.15
94.23
66.58
34.39
-0.66
-37.23
-75.13
-115.52
-160.73
-213.25
-274.54
-343.44
-415.36
-482.50
-535.44
-565.66
-568.16
-543.07
-495.65
-434.66
-369.68
-308.81
-257.14
-216.65
-186.73
-165.03
-148.69
-135.12
-122.60
-110.19
-97.44
-83.99
-69.52
-54.19
-38.76
-24.71
-13.35
-4.97
1.57
8.51
18.00
30.84
45.90
60.42
70.75
73.11
63.99
41.02
4.30
-42.24
-90.43
-129.92
-151.73
-152.04
-133.76
-104.96
-74.80
-49.43
-30.07
-14.25
1.11
17.10
32.40
45.24
55.61
65.99
79.45
96.52
113.04
120.92
111.75
81.29
32.06
-28.09
-90.01
-147.37
-198.20
-243.25
-282.87
-315.06
-335.91
-342.25
-334.07
-314.94
-290.21
-264.17
-238.42
-212.15
-183.85
-153.05
-120.85
-89.13
-59.31
-31.80
-6.02
18.97
44.03
69.76
96.41
124.07
152.84
183.31
216.49
253.25
293.38
334.57
372.10
399.92
412.75
408.09
387.05
353.38
311.60
265.37
217.06
168.78
123.39
84.90
57.32
42.84
40.63
47.05
57.26
67.17
74.65
79.22
81.09
80.07
75.45
66.69
54.35
40.50
27.93
18.86
13.61
10.25
5.57
-3.20
-16.78
-33.28
-49.03
-60.07
-63.62
-58.76
-46.16
-27.60
-5.51
17.10
36.77
50.25
55.73
53.91
48.05
42.61
41.04
44.20
50.37
56.67
60.79
61.97
60.78
57.84
53.35
47.08
38.94
29.70
20.94
13.94
8.89
4.79
0.20
-5.75
-12.97
-20.88
-29.02
-37.33
-45.74
-53.40
-58.51
-59.01
-53.63
-42.70
-28.01
-12.12
2.88
15.73
26.07
34.02
39.82
43.79
46.52
48.93
52.27
57.50
65.35
76.40
90.86
108.34
127.40
145.05
157.02
158.96
148.03
124.12
90.38
52.03
14.58
-18.12
-45.30
-69.55
-96.09
-130.82
-177.70
-236.21
-300.17
-359.06
-401.08
-417.77
-407.30
-374.96
-330.74
-284.91
-243.95
-208.90
-176.57
-141.87
-100.56
-50.56
7.63
70.71
132.40
183.74
214.71
217.63
191.16
142.30
85.45
37.83
13.03
16.18
42.55
80.26
115.16
135.83
136.70
118.75
88.22
54.08
25.34
8.76
7.61
21.74
48.36
83.27
121.76
159.13
190.69
212.43
221.93
219.43
208.21
193.68
181.35
174.82
174.67
178.78
183.66
185.84
182.80
173.50
158.21
138.42
116.33
94.33
74.24
56.81
41.62
27.51
13.25
-1.81
-17.56
-33.28
-48.01
-61.10
-72.55
-83.10
-94.09
-106.93
-122.79
-142.18
-164.71
-188.79
-211.52
-228.79
-235.90
-228.61
-204.50
-164.17
-111.56
-53.17
3.73
53.17
92.08
120.69
141.66
158.38
173.23
186.65
197.22
202.50
200.25
189.16
168.95
139.93
102.61
57.97
8.19
-42.67
-88.77
-123.64
-142.12
-142.25
-126.04
-98.84
-67.26
-36.94
-10.96
10.30
27.96
42.85
54.36
60.47
58.96
48.97
31.92
11.19
-9.10
-25.62
-36.89
-43.21
-45.89
-46.33
-45.52
-44.06
-42.60
-42.05
-43.53
-47.97
-55.56
-65.55
-76.31
-85.86
-92.54
-95.65
-95.77
-94.55
-94.13
-96.15
-101.12
-108.06
-114.70
-118.25
-116.18
-107.07
-91.08
-69.92
-46.42
-23.71
-4.45
9.76
18.48
22.16
21.58
17.56
10.71
1.63
-8.95
-20.08
-30.71
-39.91
-47.11
-52.15
-55.19
-56.56
-56.58
-55.54
-53.83
-52.03
-51.13
-52.11
-55.54
-61.24
-68.27
-75.26
-80.82
-84.25
-85.73
-86.50
-88.16
-91.88
-97.69
-104.17
-108.76
-108.19
-99.64
-81.34
-53.73
-18.92
19.80
58.52
93.18
120.08
136.65
141.49
134.56
115.42
84.57
44.09
-1.94
-47.91
-87.95
-116.98
-132.79
-135.80
-131.83
-127.56
-127.75
-133.54
-143.03
-152.79
-158.19
-156.54
-146.01
-131.10
-117.40
-108.94
-106.49
-108.27
-112.32
-116.37
-122.15
-132.25
-155.22
-197.31
-258.69
-332.52
-408.04
-475.54
-527.28
-563.01
-547.03
-459.97
-308.29
-125.58
48.15
188.74
279.51
338.23
379.05
408.90
422.43
411.90
375.50
316.35
242.17
161.75
85.74
21.84
-21.79
-42.85
-43.02
-28.79
-11.10
-3.08
-15.97
-52.01
-105.29
-160.92
-204.45
-226.17
-224.19
-203.45
-171.83
-136.32
-99.51
-62.00
-23.04
15.71
50.48
77.31
94.30
103.12
108.35
115.90
129.65
150.47
175.70
200.88
222.47
239.65
254.59
270.48
288.76
306.91
319.21
319.56
304.80
276.50
239.83
200.07
159.38
116.20
67.63
13.14
-43.53
-95.59
-136.83
-164.89
-182.08
-193.00
-201.04
-206.21
-205.67
-196.41
-177.98
-153.38
-127.50
-104.77
-87.10
-73.53
-61.39
-47.88
-31.14
-10.47
14.01
42.05
73.65
108.94
147.26
186.55
223.48
254.37
276.69
290.04
296.22
298.13
298.42
298.35
297.56
294.70
288.15
276.78
259.89
237.22
209.32
178.24
147.98
123.48
108.84
105.19
110.39
120.59
132.51
144.75
157.44
170.74
183.25
191.89
193.29
185.73
170.06
148.99
125.05
98.66
68.05
31.39
-10.42
-52.41
-86.93
-107.23
-110.65
-99.58
-79.79
-57.16
-35.12
-14.25
6.00
24.83
38.68
41.81
29.02
-1.86
-48.39
-103.85
-158.93
-204.39
-233.44
-243.74
-238.33
-225.00
-213.95
-214.58
-232.59
-268.71
-319.10
-376.89
-433.96
-482.46
-515.91
-530.41
-525.38
-503.76
-471.17
-434.07
-397.92
-366.00
-339.44
-317.87
-300.09
-284.23
-267.76
-247.72
-221.47
-187.89
-148.08
-105.11
-62.71
-23.80
10.76
42.41
73.81
107.66
145.72
188.50
235.65
285.92
336.55
382.54
416.89
432.80
426.74
400.80
362.20
320.25
282.09
250.40
224.25
202.41
186.57
181.21
190.27
212.89
241.67
265.02
272.66
260.20
230.12
188.72
141.96
93.17
43.71
-4.83
-49.90
-88.94
-121.49
-149.90
-177.46
-205.26
-230.04
-245.04
-243.77
-224.22
-190.69
-152.21
-118.52
-95.90
-85.48
-84.18
-87.37
-91.48
-94.84
-96.93
-97.05
-93.19
-82.12
-61.06
-29.82
7.85
44.85
73.35
88.22
89.46
82.11
74.09
72.78
82.18
101.49
125.79
148.05
161.71
162.73
150.55
127.28
96.00
59.25
18.55
-24.57
-66.84
-102.43
-124.04
-125.91
-106.94
-71.90
-29.88
9.56
40.16
60.77
74.52
85.98
98.19
111.23
122.63
129.38
129.91
125.06
117.33
109.41
102.57
96.16
88.48
78.30
65.99
53.66
44.18
39.71
40.59
45.24
50.80
54.19
53.00
46.22
34.55
20.46
7.55
-0.60
-1.81
3.78
13.98
25.69
36.45
45.15
51.73
56.11
57.33
53.64
43.52
26.87
5.62
-16.66
-35.80
-48.39
-52.76
-49.50
-41.41
-32.68
-27.37
-27.74
-33.18
-40.50
-45.59
-45.70
-40.76
-33.07
-25.67
-20.36
-16.80
-13.42
-8.79
-2.85
3.23
8.05
11.02
12.54
13.27
13.36
12.24
9.30
4.63
-0.65
-4.88
-6.84
-6.38
-4.39
-2.16
-0.47
0.92
3.08
7.39
14.65
24.53
35.34
44.38
48.70
46.22
36.62
21.92
6.09
-6.15
-11.03
-7.15
4.00
18.62
31.78
38.91
36.99
25.11
4.59
-21.34
-48.10
-70.69
-84.92
-88.58
-82.09
-68.34
-51.60
-36.00
-24.20
-16.89
-13.14
-11.30
-9.95
-8.20
-5.71
-2.45
1.52
6.08
11.03
16.17
21.52
27.53
35.04
44.83
57.02
70.60
83.48
93.35
98.68
99.41
97.06
93.84
91.70
91.77
94.27
98.72
104.17
109.08
111.20
107.83
96.76
77.35
51.31
22.31
-5.18
-27.64
-43.77
-54.65
-62.89
-71.26
-81.31
-92.87
-104.21
-112.98
-117.42
-116.98
-112.58
-105.89
-98.47
-90.88
-82.64
-72.81
-60.81
-47.13
-33.16
-20.65
-10.75
-3.52
2.09
7.61
14.23
22.15
30.35
37.15
40.98
41.12
37.91
32.35
25.18
16.44
5.45
-8.31
-24.24
-40.20
-53.11
-60.36
-61.29
-57.34
-51.23
-45.29
-40.32
-35.56
-29.75
-22.40
-14.34
-7.27
-2.55
-0.45
-0.12
-0.49
-1.30
-3.41
-8.21
-16.54
-27.90
-40.41
-51.77
-60.34
-65.86
-69.23
-71.85
-74.55
-77.09
-78.33
-77.01
-72.56
-65.53
-57.34
-49.34
-41.91
-34.19
-24.61
-12.09
3.04
18.87
32.84
43.01
49.17
52.67
55.37
58.36
61.24
62.71
61.79
58.92
56.06
55.65
59.23
66.53
75.67
84.16
90.18
93.29
94.35
94.89
96.23
99.05
103.27
108.09
112.08
113.36
110.00
100.71
85.75
67.26
48.72
33.65
24.11
19.81
18.40
16.81
12.74
5.53
-4.02
-14.70
-25.85
-37.59
-50.18
-63.13
-74.95
-83.84
-88.80
-90.41
-90.58
-91.46
-94.18
-98.37
-102.66
-105.64
-106.65
-105.91
-103.88
-100.63
-95.72
-88.62
-79.33
-68.70
-58.18
-49.19
-42.53
-38.11
-35.25
-32.99
-30.46
-27.05
-22.35
-16.27
-9.09
-1.52
5.36
10.40
12.92
12.99
11.48
9.72
8.85
9.43
11.23
13.46
15.24
16.03
15.92
15.57
16.02
18.26
22.83
29.43
36.84
43.23
46.80
46.58
42.89
37.15
31.21
26.47
23.30
21.20
19.27
16.79
13.55
9.67
5.43
1.22
-2.45
-4.90
-5.32
-3.26
1.16
7.16
13.47
18.79
22.19
23.18
21.72
18.16
13.12
7.48
2.27
-1.63
-3.74
-4.17
-3.53
-2.62
-2.08
-2.10
-2.46
-2.67
-2.15
-0.49
2.42
6.27
10.34
13.62
15.19
14.51
11.73
7.59
3.14
-0.70
-3.43
-5.01
-5.72
-5.99
-6.24
-6.82
-7.96
-9.70
-11.81
-13.80
-15.08
-15.20
-14.06
-12.03
-9.76
-7.97
-7.10
-7.27
-8.25
-9.66
-11.20
-12.76
-14.43
-16.30
-18.34
-20.23
-21.45
-21.50
-20.18
-17.62
-14.30
-10.74
-7.37
-4.44
-2.12
-0.60
-0.12
-0.86
-2.73
-5.29
-7.89
-9.85
-10.70
-10.13
-7.97
-3.91
2.42
11.13
21.66
32.48
41.33
46.09
45.61
40.36
32.32
24.07
17.80
14.46
13.66
14.25
15.08
15.50
15.51
15.40
15.40
15.42
15.22
14.65
13.83
13.13
12.93
13.42
14.50
15.88
17.27
18.63
20.12
22.11
24.81
28.13
31.65
34.77
37.10
38.68
40.05
42.04
45.39
50.42
57.04
64.85
73.38
82.17
90.74
98.51
104.96
109.87
113.54
116.86
121.00
126.94
135.07
145.08
156.15
167.13
176.62
183.00
184.59
180.06
168.89
151.46
128.95
102.61
73.25
41.23
6.69
-30.00
-68.09
-106.73
-145.09
-182.42
-217.75
-249.70
-276.73
-297.94
-313.69
-325.34
-334.27
-340.29
-341.15
-333.39
-314.49
-285.01
-249.27
-213.82
-184.51
-163.76
-149.68
-137.77
-124.13
-108.07
-92.51
-82.05
-79.51
-83.80
-90.05
-92.19
-86.40
-73.26
-57.12
-43.59
-36.46
-36.02
-39.64
-43.84
-46.33
-47.18
-48.20
-51.69
-59.07
-70.20
-83.54
-96.67
-107.19
-113.21
-113.74
-108.55
-97.93
-82.43
-62.79
-40.23
-16.78
4.93
22.16
33.00
37.25
36.40
33.10
30.03
28.80
29.52
31.21
32.66
33.41
34.13
36.26
41.19
49.53
60.79
73.80
87.25
100.31
112.57
123.64
132.71
138.57
140.22
137.68
132.32
126.50
122.55
121.72
123.72
126.90
129.18
129.01
125.79
119.89
112.23
103.70
94.91
86.09
77.26
68.44
59.68
51.15
42.97
35.23
27.94
21.11
14.77
8.96
3.79
-0.68
-4.46
-7.63
-10.27
-12.45
-14.12
-15.16
-15.55
-15.48
-15.41
-16.00
-17.80
-21.00
-25.17
-29.27
-32.05
-32.40
-29.85
-24.78
-18.35
-12.10
-7.53
-5.65
-6.65
-10.01
-14.57
-18.92
-21.78
-22.26
-20.12
-15.74
-9.82
-3.16
3.70
10.45
16.90
22.68
27.30
30.31
31.64
31.78
31.55
31.71
32.49
33.50
34.04
33.70
32.71
31.84
31.94
33.22
35.14
36.56
36.38
34.13
30.20
25.61
21.59
19.08
18.49
19.67
22.01
24.78
27.30
29.19
30.34
30.99
31.42
31.82
32.16
32.24
31.80
30.74
29.23
27.70
26.77
27.05
28.88
32.16
36.31
40.40
43.60
45.58
46.76
48.12
50.71
55.11
61.01
67.39
72.93
76.67
78.46
78.97
79.47
81.33
85.53
92.37
101.14
110.21
117.30
120.20
117.56
109.64
98.29
86.24
75.58
66.42
56.31
40.99
16.02
-21.22
-70.03
-125.98
-181.64
-228.27
-258.08
-266.60
-254.41
-227.67
-196.89
-174.22
-169.55
-187.06
-223.66
-270.09
-314.30
-345.59
-357.71
-349.89
-325.70
-290.80
-250.62
-209.12
-168.69
-130.81
-96.70
-67.32
-43.04
-23.16
-5.96
10.63
27.95
45.87
62.77
76.28
84.27
85.96
82.30
75.60
68.56
63.29
60.71
60.50
61.49
62.39
62.32
61.21
59.72
58.92
59.68
62.33
66.31
70.55
73.81
75.28
74.89
73.17
70.97
68.94
67.25
65.55
63.33
60.28
56.66
53.16
50.51
49.13
48.80
48.89
48.63
47.62
46.04
44.42
43.36
43.05
43.18
43.00
41.74
38.96
34.77
29.72
24.57
19.96
16.20
13.21
10.74
8.60
6.83
5.68
5.46
6.33
8.11
10.34
12.56
14.55
16.50
18.98
22.55
27.52
33.76
40.78
48.05
55.12
61.81
68.05
73.83
79.14
84.05
88.70
93.32
97.94
102.37
106.18
108.93
110.38
110.49
109.22
106.25
100.98
92.97
82.34
70.10
57.71
46.51
37.10
29.36
22.75
16.78
10.96
4.52
-3.82
-15.68
-32.40
-54.46
-81.25
-111.66
-144.85
-180.50
-218.47
-257.89
-296.77
-332.26
-361.72
-383.58
-397.68
-404.90
-406.51
-403.64
-396.98
-386.78
-372.57
-353.10
-326.47
-290.91
-245.80
-192.51
-134.61
-77.16
-25.56
15.96
45.38
63.32
72.60
77.07
80.10
83.42
87.13
90.76
94.81
101.40
113.51
132.77
157.61
182.87
201.57
207.98
200.30
181.31
156.96
133.78
116.55
107.26
105.43
109.02
115.32
121.58
125.15
123.91
116.69
103.79
86.99
69.11
53.21
41.62
35.42
34.11
35.90
38.30
38.85
35.87
28.88
18.67
6.94
-4.22
-12.94
-18.01
-19.05
-16.48
-11.27
-4.76
1.66
6.72
9.55
9.86
8.06
5.00
1.61
-1.41
-3.78
-5.41
-6.25
-5.99
-4.24
-0.71
4.33
9.88
14.36
15.93
13.21
5.79
-5.60
-19.16
-32.72
-44.23
-52.30
-56.21
-55.68
-50.57
-40.79
-26.50
-8.51
11.52
31.04
47.14
57.18
59.46
53.62
40.77
23.24
3.93
-14.45
-30.11
-42.66
-53.08
-62.97
-73.52
-84.59
-94.42
-100.11
-98.82
-88.81
-70.04
-44.10
-13.81
17.12
44.38
63.59
71.19
65.78
49.28
26.99
6.18
-6.24
-6.00
7.39
31.15
60.95
92.82
124.04
152.92
177.95
197.03
207.63
207.57
195.93
173.41
142.22
105.16
64.80
22.77
-20.52
-65.89
-115.03
-169.51
-229.15
-290.81
-347.99
-392.23
-415.91
-415.15
-391.16
-349.29
-296.37
-238.07
-178.16
-119.74
-67.03
-25.77
-1.52
3.31
-8.48
-29.45
-50.62
-65.06
-69.93
-66.07
-55.88
-41.50
-24.12
-4.87
14.40
31.08
42.93
49.31
51.62
52.43
54.17
57.85
62.80
67.25
69.34
68.22
64.63
60.79
59.47
62.72
70.82
81.87
92.67
100.29
103.45
102.90
100.74
98.91
98.13
97.73
96.40
93.16
87.88
81.17
73.87
66.42
58.74
50.54
41.56
32.07
23.03
15.93
12.28
12.86
17.04
22.77
27.32
28.57
26.05
21.10
15.93
12.29
10.55
9.67
8.11
4.92
0.21
-5.01
-9.65
-13.19
-15.71
-17.56
-18.86
-19.29
-18.50
-16.49
-13.80
-11.30
-9.74
-9.28
-9.48
-9.58
-8.82
-6.83
-3.57
0.83
6.11
11.95
17.85
23.10
26.97
28.92
28.93
27.56
25.83
24.69
24.65
25.51
26.53
26.85
26.00
24.16
21.96
20.03
18.50
16.94
14.61
11.05
6.51
1.92
-1.48
-2.83
-2.03
0.21
2.79
4.76
5.66
5.56
4.80
3.68
2.16
0.02
-3.08
-7.09
-11.54
-15.55
-18.16
-18.69
-17.04
-13.66
-9.24
-4.44
0.36
5.09
9.85
14.79
19.97
25.28
30.54
35.46
39.80
43.48
46.68
49.79
53.24
57.16
61.28
65.16
68.49
71.44
74.67
78.78
83.75
88.64
91.82
91.78
87.92
80.93
72.49
64.52
58.37
54.37
51.94
49.99
47.37
43.38
37.92
31.69
25.96
22.14
21.02
22.15
23.70
22.87
16.93
4.33
-14.62
-37.70
-61.46
-82.18
-96.77
-103.61
-103.08
-97.71
-91.79
-90.14
-96.42
-111.50
-132.93
-155.56
-173.60
-182.78
-181.78
-172.26
-157.72
-141.73
-126.77
-113.50
-101.09
-87.96
-72.72
-55.06
-36.18
-18.63
-5.22
2.22
3.86
1.75
-1.26
-2.97
-2.60
-0.60
2.35
6.10
11.02
17.21
23.76
28.85
30.88
29.77
27.51
27.23
31.40
40.25
51.50
61.45
66.96
66.78
61.67
53.64
44.76
36.41
29.40
24.29
21.57
21.40
23.17
25.36
26.13
24.14
19.30
12.82
6.54
1.96
-0.44
-1.29
-1.69
-2.61
-4.49
-7.38
-11.38
-16.89
-24.59
-35.15
-48.80
-65.03
-82.62
-99.70
-114.14
-124.09
-128.65
-128.43
-125.56
-122.88
-122.70
-125.39
-128.96
-130.04
-125.54
-114.13
-96.62
-75.19
-52.03
-28.63
-5.87
15.34
33.70
47.94
57.68
63.98
68.99
74.63
81.24
87.29
90.18
87.92
80.41
69.42
57.71
47.64
40.39
35.94
33.76
33.43
34.88
38.35
43.73
50.40
57.19
62.70
65.92
66.44
64.51
60.86
56.43
52.08
48.45
45.75
43.69
41.63
38.82
34.95
30.43
26.32
23.83
23.60
25.43
28.47
32.05
36.12
41.23
47.69
54.68
60.05
61.12
56.28
46.23
33.95
23.24
16.60
13.47
10.16
1.38
-17.71
-49.81
-95.25
-152.41
-218.16
-287.76
-354.50
-410.04
-445.86
-455.95
-438.94
-398.93
-343.99
-283.17
-223.60
-168.80
-118.99
-72.53
-27.48
17.83
64.87
115.12
169.71
228.36
288.43
344.92
391.67
423.47
438.13
437.27
425.51
408.48
390.56
373.59
356.93
338.64
316.95
291.28
262.34
231.73
201.39
173.14
148.48
128.42
113.44
103.47
98.14
96.92
99.37
105.02
113.07
122.27
131.01
137.75
141.66
142.94
142.69
142.30
142.57
143.22
142.78
139.09
130.17
115.14
94.55
70.28
44.78
20.06
-3.08
-25.19
-47.55
-71.15
-95.70
-119.47
-140.00
-155.28
-164.87
-170.22
-174.32
-180.57
-192.10
-211.14
-238.41
-272.31
-308.27
-338.50
-353.27
-344.10
-307.64
-248.14
-176.66
-106.86
-49.52
-8.84
17.23
33.53
43.12
45.00
35.38
11.30
-26.35
-72.47
-120.30
-165.00
-205.36
-242.90
-278.88
-311.80
-337.22
-350.05
-347.67
-331.54
-306.58
-278.98
-253.79
-233.53
-218.94
-210.30
-208.45
-214.52
-228.42
-247.47
-266.26
-278.15
-277.85
-263.46
-237.03
-202.98
-165.74
-127.77
-89.31
-49.66
-9.12
30.08
64.60
92.12
113.27
132.05
154.06
183.32
219.52
257.54
289.41
307.92
309.87
297.25
276.09
253.69
235.70
224.33
218.10
212.83
203.19
184.04
151.69
104.88
45.41
-21.63
-88.62
-147.14
-190.33
-214.93
-221.87
-215.20
-199.84
-179.25
-154.35
-124.12
-87.50
-45.24
-0.62
41.57
76.76
102.21
117.46
123.70
122.70
116.22
105.80
93.01
79.69
67.69
58.36
52.40
50.02
51.27
56.25
64.83
76.17
88.31
98.46
104.05
103.86
98.66
90.81
82.93
76.64
71.79
67.06
61.30
54.78
49.48
48.12
52.69
63.02
76.32
88.12
94.02
91.31
79.85
61.73
40.07
17.59
-4.22
-25.10
-45.33
-64.71
-81.99
-95.27
-102.85
-104.11
-99.90
-91.95
-81.89
-70.56
-58.12
-44.82
-31.96
-21.93
-17.14
-18.53
-24.42
-30.84
-33.39
-29.54
-19.86
-7.74
2.27
6.53
3.30
-7.35
-24.39
-46.47
-71.78
-97.38
-118.85
-130.96
-129.35
-112.31
-81.79
-43.39
-5.04
25.01
40.28
37.95
19.89
-7.57
-35.53
-55.39
-61.71
-53.67
-34.51
-9.63
15.93
38.71
56.92
69.59
76.07
76.39
72.06
66.33
63.26
65.92
74.79
87.46
99.83
108.26
111.22
109.66
105.70
101.00
95.71
88.50
77.76
62.99
45.57
28.47
15.06
7.64
6.72
11.01
18.25
26.20
33.33
38.79
42.23
43.27
41.66
37.38
30.95
23.46
16.12
9.37
2.39
-6.77
-20.02
-37.70
-57.63
-75.26
-85.47
-84.72
-72.70
-52.35
-28.34
-5.06
14.71
29.80
39.72
43.72
40.99
31.73
18.36
5.42
-2.17
-1.38
7.36
20.70
34.30
45.32
53.53
60.84
69.45
80.11
91.37
100.36
104.35
102.21
95.16
86.42
79.95
79.24
85.87
98.77
114.22
126.65
129.67
117.68
87.23
38.33
-24.52
-92.05
-151.39
-189.13
-195.78
-169.86
-119.76
-61.72
-14.62
6.09
-7.37
-53.97
-125.78
-210.97
-296.53
-370.03
-421.07
-442.91
-434.08
-398.97
-346.60
-287.48
-230.25
-179.14
-133.78
-90.69
-45.56
4.98
61.69
121.90
179.47
226.02
253.83
259.16
244.42
217.19
186.79
159.53
136.01
111.99
82.29
45.65
6.92
-24.48
-38.89
-30.74
-0.42
46.97
104.45
165.44
224.31
275.93
314.79
335.46
333.99
309.13
262.59
198.26
121.15
37.32
-45.59
-118.11
-169.91
-192.15
-180.26
-135.91
-67.02
14.02
93.15
157.37
196.96
207.35
189.77
151.13
102.25
54.74
17.60
-5.01
-13.64
-11.61
-2.30
12.12
30.40
50.80
69.96
83.03
85.20
73.63
48.87
15.22
-20.44
-50.30
-67.40
-67.32
-49.47
-17.61
20.89
56.88
82.19
92.15
86.61
69.29
45.67
20.47
-3.75
-26.93
-51.02
-78.69
-111.66
-149.62
-189.70
-227.27
-257.55
-277.14
-284.58
-279.59
-262.30
-233.02
-193.45
-147.77
-102.54
-64.65
-38.14
-22.26
-12.03
-1.48
12.64
29.03
43.29
51.24
51.95
48.11
43.68
41.20
40.40
38.86
34.20
25.96
15.83
6.54
0.57
-0.90
2.00
8.38
17.16
27.33
37.75
47.14
54.04
57.20
56.20
51.72
45.48
39.41
34.90
32.05
29.82
26.67
21.66
15.07
8.47
3.99
3.34
7.26
15.48
27.20
41.35
56.60
70.95
81.59
85.52
80.71
67.18
47.42
25.81
6.96
-5.93
-12.09
-13.30
-13.22
-16.39
-27.10
-48.40
-80.99
-122.44
-166.98
-206.58
-232.95
-240.18
-226.77
-196.43
-156.91
-117.47
-85.82
-65.73
-56.59
-54.50
-54.70
-53.68
-50.19
-44.81
-38.55
-31.75
-23.71
-13.45
-0.92
12.42
24.14
32.25
36.48
38.51
40.93
45.73
53.22
62.05
69.94
74.77
75.24
71.03
62.75
51.80
40.16
30.18
24.00
22.89
26.96
35.26
46.28
58.53
70.63
81.18
88.70
92.01
91.04
87.16
82.90
80.71
81.65
84.68
87.36
87.35
83.65
76.69
67.41
55.76
39.96
17.08
-15.41
-58.01
-108.76
-163.96
-219.56
-271.98
-318.11
-354.60
-377.48
-382.80
-368.17
-334.20
-285.17
-227.89
-169.38
-114.85
-66.38
-23.03
17.93
59.77
105.47
157.49
217.42
285.17
357.65
428.28
487.85
526.82
538.72
522.64
483.85
431.82
376.75
326.12
282.96
246.43
213.85
183.03
153.47
126.10
102.16
82.06
64.98
49.40
33.93
17.98
2.06
-13.02
-26.90
-40.30
-54.92
-72.66
-94.48
-119.33
-143.87
-163.23
-173.00
-171.19
-159.40
-142.32
-125.59
-113.27
-106.01
-101.26
-95.02
-84.36
-68.97
-51.22
-34.60
-21.84
-13.74
-9.17
-6.14
-3.08
0.50
4.18
7.14
8.82
9.25
8.79
7.81
6.40
4.45
2.04
-0.25
-1.37
-0.30
3.34
8.82
14.56
18.67
19.80
17.52
12.21
4.62
-4.52
-14.58
-24.90
-34.57
-42.48
-47.64
-49.54
-48.32
-44.60
-39.14
-32.49
-24.86
-16.28
-6.92
2.66
11.47
18.36
22.37
23.18
21.09
16.81
10.88
3.32
-6.37
-18.70
-33.51
-49.59
-64.85
-77.07
-84.85
-88.30
-89.02
-89.48
-92.14
-98.61
-109.33
-123.59
-139.87
-156.21
-170.62
-181.41
-187.51
-188.68
-185.43
-178.70
-169.54
-158.82
-147.14
-134.91
-122.43
-110.05
-98.23
-87.55
-78.77
-72.59
-69.11
-67.04
-63.48
-54.35
-35.86
-6.32
32.50
75.11
113.55
139.63
147.31
134.33
102.43
56.42
2.65
-52.23
-102.20
-142.73
-171.82
-190.93
-204.77
-219.59
-240.01
-266.06
-292.26
-309.25
-307.71
-282.41
-234.50
-171.10
-102.79
-40.55
6.80
34.23
41.19
31.70
13.55
-3.64
-10.96
-2.47
23.65
65.57
118.86
177.58
234.89
283.73
317.80
333.12
329.21
309.05
277.61
239.83
199.31
157.94
116.66
75.94
35.30
-7.26
-55.26
-111.99
-177.83
-248.04
-312.90
-360.71
-382.30
-374.74
-342.21
-293.70
-238.84
-184.31
-132.34
-81.72
-29.99
24.37
80.98
137.67
191.41
239.13
278.25
306.88
324.06
329.90
325.31
311.96
291.98
267.84
242.20
217.71
196.50
179.69
167.06
157.32
148.91
140.86
133.37
127.61
125.13
127.08
133.63
143.79
155.61
166.72
174.88
178.47
176.79
170.02
158.77
143.62
124.70
101.71
74.41
43.15
9.11
-25.93
-60.15
-92.19
-120.99
-145.38
-163.92
-175.38
-179.98
-180.21
-180.55
-185.72
-198.53
-218.22
-240.55
-259.37
-268.63
-263.83
-242.53
-204.27
-150.61
-85.66
-16.19
49.06
101.59
135.80
150.90
150.90
142.65
132.95
126.22
123.85
124.81
126.99
128.40
127.79
124.59
118.65
110.05
99.09
86.37
72.83
59.69
48.23
39.34
33.13
28.78
24.83
19.69
12.37
2.88
-7.68
-17.55
-25.13
-29.55
-30.94
-30.21
-28.54
-26.85
-25.50
-24.37
-23.05
-21.20
-18.74
-15.92
-13.10
-10.68
-8.88
-7.72
-7.16
-7.13
-7.71
-9.10
-11.63
-15.62
-21.25
-28.41
-36.58
-44.98
-52.67
-58.83
-62.94
-64.83
-64.71
-62.97
-60.06
-56.37
-52.27
-48.15
-44.51
-41.93
-40.92
-41.71
-44.03
-47.09
-49.77
-50.93
-49.76
-46.07
-40.14
-32.50
-23.66
-13.97
-3.82
6.14
14.88
21.09
23.59
21.82
16.22
8.07
-0.86
-9.12
-16.09
-22.28
-28.96
-37.55
-48.88
-62.74
-77.97
-93.05
-106.73
-118.52
-128.72
-138.30
-148.58
-161.06
-177.11
-197.43
-221.37
-246.44
-268.43
-282.34
-283.91
-271.01
-244.27
-206.62
-162.01
-114.08
-65.31
-17.20
29.11
72.09
109.64
139.54
160.26
171.53
174.59
171.69
165.32
157.53
149.50
141.56
133.55
125.19
116.36
107.25
98.28
89.92
82.52
76.09
70.25
64.34
57.87
50.76
43.54
37.01
31.84
28.10
25.32
22.92
20.71
19.17
19.12
21.10
24.81
28.99
31.99
32.57
30.59
26.97
23.25
20.69
19.79
20.21
21.15
21.89
22.12
21.95
21.73
21.80
22.38
23.53
25.24
27.43
29.94
32.57
35.01
37.00
38.34
39.03
39.22
39.16
39.19
39.62
40.77
42.98
46.70
52.45
60.72
71.79
85.45
100.93
116.89
131.77
144.10
152.89
157.65
158.31
154.94
147.46
135.72
119.57
99.20
75.33
49.14
22.11
-4.22
-28.38
-49.01
-64.98
-75.46
-80.31
-80.34
-77.42
-74.12
-73.05
-75.94
-83.15
-93.40
-104.20
-112.58
-115.92
-112.64
-102.63
-87.29
-69.07
-50.87
-35.25
-23.76
-16.77
-13.60
-13.01
-13.69
-14.55
-14.79
-13.84
-11.30
-7.09
-1.52
4.68
10.66
15.71
19.60
22.51
24.83
26.78
28.16
28.42
26.92
23.23
17.44
10.13
2.13
-5.81
-13.18
-19.88
-26.04
-31.86
-37.49
-42.92
-48.05
-52.79
-57.12
-61.11
-64.84
-68.36
-71.61
-74.36
-76.31
-77.22
-76.92
-75.39
-72.63
-68.62
-63.36
-56.98
-49.78
-42.27
-35.05
-28.61
-23.20
-18.72
-14.79
-10.90
-6.61
-1.65
3.91
9.70
15.04
19.21
21.68
22.40
21.83
20.72
19.72
19.03
18.34
17.07
14.73
11.23
6.86
2.10
-2.59
-6.87
-10.59
-13.63
-15.94
-17.54
-18.57
-19.25
-19.81
-20.44
-21.23
-22.29
-23.74
-25.74
-28.35
-31.46
-34.79
-38.00
-40.85
-43.30
-45.39
-47.24
-48.87
-50.33
-51.88
-54.00
-57.08
-61.01
-64.72
-66.38
-64.05
-56.57
-44.19
-28.65
-12.38
2.40
14.49
23.91
31.46
37.97
43.76
48.50
51.51
52.13
50.11
45.69
39.52
32.40
25.04
17.87
11.06
4.76
-0.61
-4.31
-5.43
-3.41
1.49
7.99
14.08
17.80
17.98
14.80
9.60
4.26
0.32
-1.61
-1.91
-1.53
-1.33
-1.59
-1.87
-1.33
0.73
4.36
8.94
13.38
16.66
18.24
18.22
17.23
16.00
15.01
14.31
13.60
12.52
10.98
9.25
7.92
7.58
8.51
10.47
12.79
14.64
15.40
14.96
13.65
12.12
10.92
10.37
10.46
11.02
11.89
12.90
13.98
15.02
15.89
16.46
16.66
16.45
15.88
15.02
14.07
13.34
13.17
13.80
15.12
16.65
17.68
17.55
16.05
13.46
10.40
7.45
4.89
2.59
0.19
-2.60
-5.81
-9.23
-12.54
-15.55
-18.33
-21.16
-24.42
-28.48
-33.62
-39.97
-47.48
-55.83
-64.36
-72.24
-78.57
-82.74
-84.61
-84.61
-83.62
-82.73
-83.02
-85.30
-90.02
-97.20
-106.46
-117.07
-128.04
-138.15
-146.07
-150.47
-150.17
-144.43
-133.08
-116.67
-96.26
-73.16
-48.59
-23.44
1.72
26.46
50.24
72.35
91.95
108.46
121.74
132.26
140.96
148.89
156.88
165.36
174.28
183.26
191.83
199.57
206.09
210.95
213.57
213.30
209.77
203.24
194.66
185.37
176.47
168.26
160.11
150.73
138.89
123.91
105.99
85.94
64.69
42.90
20.76
-1.79
-24.84
-48.25
-71.62
-94.41
-116.09
-136.34
-155.03
-172.09
-187.24
-199.79
-208.61
-212.39
-210.06
-201.24
-186.51
-167.30
-145.68
-123.78
-103.48
-85.95
-71.66
-60.45
-51.77
-45.01
-39.73
-35.73
-32.80
-30.54
-28.24
-25.09
-20.52
-14.56
-7.87
-1.36
4.28
8.99
13.11
16.94
20.15
21.62
19.85
13.66
2.95
-11.12
-26.54
-41.17
-53.59
-63.30
-70.60
-76.02
-79.82
-81.76
-81.29
-77.98
-71.94
-63.85
-54.75
-45.50
-36.47
-27.54
-18.34
-8.79
0.56
8.61
14.12
16.41
15.85
13.88
12.49
13.36
17.05
22.66
28.12
31.11
29.94
24.31
15.27
4.65
-5.68
-14.23
-19.71
-20.70
-15.45
-2.38
19.15
48.09
81.77
116.83
150.62
182.18
212.43
243.16
275.52
308.86
340.45
366.22
382.21
385.89
376.81
356.63
328.40
295.64
261.53
228.29
197.07
168.24
141.80
117.70
96.07
77.03
60.43
45.83
32.45
19.65
7.15
-4.69
-15.11
-23.40
-29.31
-33.27
-36.22
-39.25
-43.02
-47.58
-52.43
-56.80
-60.10
-62.14
-63.23
-63.95
-64.93
-66.61
-69.13
-72.30
-75.61
-78.41
-79.97
-79.81
-77.87
-74.72
-71.45
-69.23
-68.71
-69.56
-70.48
-69.78
-66.28
-60.24
-53.40
-48.36
-47.34
-50.99
-57.88
-65.14
-69.74
-69.94
-66.04
-60.20
-55.41
-54.27
-58.33
-67.80
-81.79
-98.32
-114.30
-125.64
-128.01
-118.31
-96.54
-66.79
-36.47
-13.74
-4.34
-9.44
-26.00
-49.38
-76.65
-108.48
-148.17
-198.10
-256.18
-314.26
-359.97
-381.18
-371.31
-332.76
-276.57
-218.34
-172.02
-144.79
-134.87
-133.54
-129.99
-116.35
-90.57
-55.65
-16.61
22.90
61.90
100.96
139.77
175.50
203.31
218.96
221.35
213.58
201.48
190.76
184.68
183.04
182.99
180.99
174.63
163.39
148.50
132.07
116.19
102.27
90.70
80.91
71.91
62.76
53.04
42.91
32.92
23.75
15.95
9.93
5.95
4.26
4.93
7.63
11.63
15.82
19.07
20.56
20.11
18.13
15.61
13.71
13.40
15.07
18.24
21.82
24.53
25.54
24.76
22.85
20.50
17.94
14.88
10.78
5.63
0.25
-3.75
-4.92
-2.80
1.75
6.76
10.13
10.58
8.20
4.20
0.21
-2.86
-5.48
-9.42
-16.85
-29.05
-45.50
-63.75
-80.20
-91.35
-94.95
-90.63
-79.81
-64.89
-48.37
-32.18
-17.02
-2.47
12.19
27.27
41.86
53.41
58.78
55.69
44.12
26.68
7.66
-8.79
-19.94
-24.74
-23.17
-15.41
-1.53
17.99
41.50
66.06
88.45
106.64
121.03
134.27
149.92
170.25
194.65
219.35
238.72
247.63
243.29
226.23
199.67
168.08
134.99
101.81
67.47
28.90
-17.28
-72.83
-136.30
-202.48
-263.50
-311.29
-340.29
-349.27
-341.45
-322.56
-298.16
-271.59
-243.62
-213.45
-180.57
-145.78
-110.97
-78.00
-47.28
-17.03
16.42
57.22
107.82
166.76
227.62
280.12
313.13
318.74
295.12
246.65
181.51
108.11
33.06
-38.51
-101.46
-150.12
-179.79
-189.59
-184.27
-172.90
-164.81
-164.96
-171.51
-177.29
-174.10
-156.72
-124.91
-82.37
-34.23
14.94
61.67
103.09
136.47
159.55
171.66
174.24
170.69
165.22
161.44
161.22
164.30
168.62
171.33
169.90
162.83
150.02
132.64
112.47
91.35
70.68
51.23
33.33
17.04
2.31
-10.98
-22.84
-33.29
-42.22
-49.46
-54.72
-57.72
-58.25
-56.40
-52.61
-47.65
-42.57
-38.25
-35.24
-33.49
-32.46
-31.42
-29.66
-26.59
-21.47
-13.42
-1.51
14.78
35.00
57.64
80.57
101.89
120.51
136.24
149.29
159.65
166.94
170.73
171.13
169.14
166.30
164.21
163.94
165.71
169.02
172.63
174.39
171.38
160.36
139.02
107.38
68.64
28.74
-5.28
-27.66
-35.88
-31.49
-19.52
-6.32
2.90
6.05
4.55
2.17
2.89
8.95
20.18
34.53
49.49
63.06
73.90
80.51
80.43
70.19
47.09
11.22
-33.25
-78.54
-115.59
-137.10
-139.80
-124.73
-96.67
-62.20
-28.20
-0.42
17.26
23.47
19.41
8.56
-4.49
-16.02
-24.80
-32.75
-43.91
-61.91
-87.39
-117.12
-144.87
-163.84
-169.25
-159.88
-138.19
-109.41
-80.20
-56.79
-43.10
-39.31
-41.87
-45.52
-46.32
-44.72
-45.98
-56.69
-79.87
-111.19
-139.92
-153.92
-146.47
-119.89
-83.93
-50.57
-27.84
-17.46
-16.51
-21.14
-29.64
-42.72
-61.19
-83.70
-105.83
-121.15
-124.32
-113.77
-92.27
-65.90
-41.35
-23.08
-12.16
-6.92
-4.94
-5.12
-8.23
-16.25
-30.96
-53.04
-81.89
-115.77
-152.00
-186.12
-212.27
-224.27
-217.66
-192.25
-152.81
-107.49
-65.02
-32.09
-11.74
-3.45
-3.85
-7.83
-10.24
-7.59
0.45
10.72
18.70
21.39
19.76
18.84
25.18
43.20
73.01
110.89
152.12
194.30
238.44
287.38
342.48
400.71
454.13
492.51
507.18
494.61
457.55
403.62
341.76
278.76
217.81
158.85
100.59
42.45
-14.97
-70.75
-125.09
-179.96
-238.24
-301.77
-369.58
-437.22
-497.52
-542.74
-567.15
-568.85
-550.15
-516.40
-473.73
-426.80
-377.62
-325.87
-270.59
-212.05
-153.20
-99.86
-59.65
-39.61
-43.30
-68.63
-107.27
-146.75
-173.99
-179.84
-162.38
-127.14
-84.51
-45.16
-16.17
0.61
7.55
8.63
7.26
5.40
4.18
4.85
9.36
19.65
37.21
62.66
95.92
136.22
181.61
227.75
267.07
289.74
286.84
254.75
197.88
128.40
62.19
13.06
-11.66
-12.39
5.29
34.42
69.75
108.25
147.42
183.38
210.62
224.21
222.67
209.83
193.37
181.08
176.43
177.15
177.39
171.92
159.64
143.96
130.31
122.65
121.68
125.38
131.50
139.82
152.55
172.63
200.90
234.66
268.02
294.07
307.38
305.64
290.11
264.74
234.73
204.88
178.28
155.82
136.79
120.31
106.29
95.59
89.19
87.16
88.19
90.08
90.68
88.81
84.76
80.04
76.53
75.68
77.82
82.08
86.67
89.63
89.58
86.26
80.48
73.66
67.14
61.46
55.97
48.93
38.01
21.35
-1.78
-30.60
-63.26
-97.63
-132.38
-167.57
-204.27
-243.72
-286.57
-332.69
-381.46
-431.84
-482.11
-529.07
-567.85
-592.79
-599.45
-586.60
-557.54
-518.85
-478.07
-440.93
-409.72
-383.47
-359.61
-336.28
-313.71
-294.19
-280.66
-274.79
-275.78
-280.15
-283.18
-280.85
-271.85
-257.99
-243.04
-230.70
-222.75
-218.57
-215.93
-212.74
-208.15
-202.76
-197.67
-193.39
-189.31
-183.95
-175.86
-164.11
-148.99
-131.61
-113.37
-95.32
-77.86
-60.74
-43.43
-25.47
-6.72
12.64
32.38
52.44
72.99
94.35
116.73
140.04
163.95
188.00
211.84
235.43
258.97
282.96
308.10
335.32
365.41
398.33
432.47
464.26
488.74
500.94
497.68
478.79
447.17
407.76
365.74
325.22
288.54
256.54
229.23
206.35
187.52
172.23
159.68
148.73
138.06
126.63
114.30
102.25
93.12
90.40
97.16
115.05
143.65
180.83
223.66
269.40
315.84
360.77
401.18
432.89
451.35
453.03
436.99
405.41
362.83
314.39
264.10
213.86
163.75
113.23
62.55
13.39
-31.47
-69.32
-98.94
-121.34
-139.51
-157.17
-176.99
-199.24
-221.56
-239.90
-250.42
-251.31
-243.76
-231.73
-220.78
-216.35
-222.20
-239.18
-264.59
-292.39
-314.48
-323.10
-313.67
-286.83
-248.21
-206.13
-168.05
-137.88
-115.38
-97.77
-82.18
-67.24
-53.21
-40.77
-29.89
-19.55
-8.52
3.39
14.54
21.81
21.75
12.16
-6.61
-31.46
-57.50
-79.70
-94.76
-101.94
-102.68
-99.26
-93.25
-84.86
-73.46
-58.72
-41.18
-22.49
-4.62
10.66
21.49
25.45
19.57
1.37
-29.40
-69.27
-111.26
-146.73
-168.16
-171.53
-157.15
-128.90
-92.63
-54.32
-18.84
10.37
31.26
43.05
45.96
41.10
30.25
15.64
-0.16
-14.43
-24.65
-29.15
-27.74
-21.97
-14.25
-6.75
-0.27
6.10
14.21
25.62
40.63
58.19
76.38
93.27
107.22
116.81
120.63
117.47
106.99
90.45
70.75
51.47
35.55
24.27
17.16
12.86
10.07
8.17
7.06
6.78
7.09
7.58
7.90
8.03
8.22
8.73
9.57
10.38
10.66
10.01
8.38
6.04
3.57
1.63
0.85
1.66
4.12
7.86
12.15
16.27
19.81
22.85
25.92
29.66
34.37
39.76
44.98
48.92
50.67
49.86
46.78
42.07
36.47
30.57
24.77
19.34
14.54
10.56
7.38
4.72
2.10
-0.91
-4.40
-7.99
-10.99
-12.69
-12.77
-11.39
-9.19
-6.96
-5.31
-4.46
-4.27
-4.38
-4.48
-4.57
-5.07
-6.71
-10.18
-15.83
-23.37
-31.87
-40.13
-46.97
-51.68
-54.14
-54.75
-54.19
-53.15
-52.26
-51.98
-52.79
-55.16
-59.30
-64.98
-71.37
-77.38
-82.07
-85.11
-86.79
-87.86
-88.93
-89.95
-90.08
-87.97
-82.37
-72.70
-59.28
-42.88
-24.59
-5.57
13.22
31.13
48.02
64.30
80.86
98.72
119.14
142.35
167.30
192.00
214.35
232.98
247.47
257.87
264.11
266.76
265.59
260.10
250.38
237.95
225.60
216.28
211.63
211.32
215.26
222.00
229.44
235.57
239.15
239.95
238.56
235.56
231.15
227.37
224.54
221.15
214.57
202.69
185.43
164.92
144.43
111.54
62.02
-0.55
-65.26
-120.34
-158.90
-179.91
-186.13
-181.91
-171.66
-156.35
-137.24
-115.73
-93.74
-72.95
-54.86
-40.06
-28.60
-20.25
-12.51
-4.13
5.28
15.06
24.14
31.50
36.44
38.07
34.81
30.72
27.41
25.39
24.27
23.24
21.68
19.38
16.46
13.25
10.82
9.40
8.97
9.21
9.66
9.96
9.99
9.82
9.66
10.07
10.96
12.17
13.41
14.24
14.25
13.24
11.22
8.45
5.42
2.34
-0.69
-3.74
-7.18
-11.52
-17.20
-24.35
-32.65
-41.45
-50.12
-58.28
-66.05
-74.12
-83.48
-95.05
-109.14
-125.21
-142.04
-158.25
-172.91
-186.03
-198.72
-212.74
-229.73
-250.42
-274.21
-299.52
-324.36
-347.28
-368.03
-387.63
-408.09
-431.93
-461.70
-499.13
-544.03
-593.12
-639.65
-674.48
-688.82
-677.40
-640.64
-584.50
-517.91
-449.09
-382.74
-319.46
-257.43
-195.05
-132.81
-73.40
-20.16
24.94
62.80
97.24
133.96
178.51
233.93
298.21
363.74
418.62
450.31
450.05
416.50
356.41
282.38
208.68
146.99
104.13
81.48
76.13
82.52
93.99
104.57
110.89
113.57
117.15
127.77
149.23
179.70
211.09
231.53
230.18
201.72
148.79
81.16
12.55
-44.16
-80.77
-95.72
-93.32
-80.53
-63.22
-43.56
-20.32
8.36
41.37
72.96
94.26
97.36
80.00
47.30
10.00
-20.11
-34.91
-31.90
-13.32
16.21
51.93
89.78
125.31
153.13
167.23
162.52
136.68
91.26
31.23
-36.55
-104.92
-167.35
-218.11
-252.06
-264.97
-254.62
-222.71
-175.46
-122.61
-74.26
-37.23
-12.41
5.30
24.21
51.64
90.14
136.55
183.63
223.52
250.84
263.92
263.80
252.08
230.05
198.41
158.80
114.85
72.03
36.26
11.66
-1.24
-5.74
-7.22
-10.47
-16.72
-22.50
-20.85
-4.59
29.42
77.46
128.96
169.98
188.18
177.25
138.71
80.41
13.25
-52.63
-110.09
-155.49
-187.41
-205.39
-209.08
-198.43
-174.68
-140.68
-100.63
-58.48
-16.55
24.97
66.85
108.44
145.59
170.46
174.53
153.12
108.95
52.54
-1.49
-40.04
-55.98
-49.01
-23.21
16.87
68.31
129.06
195.35
259.63
311.30
340.06
340.37
313.49
266.55
208.57
146.52
84.32
24.81
-27.10
-63.37
-75.24
-58.33
-16.63
37.05
85.50
114.07
116.03
93.61
54.84
8.66
-38.77
-84.45
-126.72
-163.45
-191.17
-205.78
-203.62
-182.36
-141.66
-84.25
-16.77
50.34
104.85
136.55
140.87
120.37
82.71
36.30
-13.20
-63.36
-112.56
-157.12
-190.78
-207.98
-208.00
-197.37
-187.95
-191.48
-213.74
-252.14
-298.01
-341.45
-375.90
-399.40
-412.43
-414.68
-403.53
-375.67
-330.58
-273.21
-213.24
-161.19
-123.72
-100.45
-84.62
-66.80
-39.22
1.43
53.93
113.84
175.10
230.67
273.16
295.82
294.54
269.95
227.96
178.21
130.73
92.96
68.29
57.20
58.43
69.67
87.14
104.38
112.40
101.47
64.95
2.79
-76.99
-160.09
-230.27
-274.69
-287.79
-271.70
-233.84
-182.57
-124.13
-62.29
-0.90
53.37
90.86
102.18
83.78
41.33
-11.24
-57.56
-85.89
-93.40
-85.09
-68.34
-48.32
-26.09
-1.06
25.48
48.96
63.69
67.48
64.52
64.41
76.96
105.88
145.05
180.25
195.12
178.97
132.48
68.34
6.80
-33.26
-42.62
-25.49
3.24
26.07
31.35
18.29
-4.75
-26.01
-38.42
-42.47
-43.42
-45.18
-46.19
-41.10
-26.71
-7.31
6.50
1.08
-32.54
-92.31
-164.30
-228.32
-266.98
-273.26
-250.99
-208.29
-155.06
-99.48
-46.45
2.41
47.76
90.48
130.01
166.35
203.81
246.62
296.19
349.88
402.44
448.46
483.38
503.54
482.46
406.52
282.36
135.54
-5.92
-125.34
-218.54
-284.61
-333.76
-372.51
-399.80
-413.28
-412.58
-400.44
-382.65
-363.80
-346.73
-333.40
-323.19
-311.76
-295.44
-273.13
-246.83
-219.90
-194.79
-172.67
-154.10
-138.05
-121.41
-101.83
-78.76
-53.64
-28.70
-5.53
15.12
32.70
47.55
60.88
73.43
85.10
94.93
101.72
104.84
104.19
99.99
92.94
84.16
74.55
64.63
54.55
44.20
33.62
22.92
12.22
1.79
-8.14
-17.42
-25.87
-33.40
-39.92
-45.39
-49.77
-53.05
-55.23
-56.35
-56.47
-55.67
-54.05
-51.75
-48.93
-45.70
-42.18
-38.46
-34.57
-30.57
-26.51
-22.50
-18.66
-15.12
-12.01
-9.38
-7.22
-5.44
-3.93
-2.53
-1.13
0.36
2.04
4.03
6.52
9.79
14.15
19.77
26.67
34.55
42.91
51.11
58.59
65.08
70.64
75.62
80.48
85.54
90.80
95.99
100.68
104.61
107.89
111.09
115.11
120.80
128.66
138.55
149.86
161.71
173.41
184.75
196.10
208.21
222.04
238.57
258.59
282.32
308.96
336.19
360.30
376.97
382.58
375.74
357.84
332.68
304.92
278.33
254.70
233.86
214.71
196.43
179.15
163.67
150.68
140.02
130.62
121.03
110.25
98.17
85.53
73.41
62.63
53.47
45.83
39.40
33.95
29.29
25.17
21.27
17.20
12.64
7.41
1.48
-5.09
-12.05
-19.00
-25.35
-30.37
-33.46
-34.37
-33.31
-30.92
-28.05
-25.40
-23.33
-21.88
-20.84
-20.02
-19.37
-18.94
-18.77
-18.62
-18.02
-16.46
-13.65
-9.88
-5.94
-2.88
-1.52
-2.05
-3.97
-6.33
-8.17
-8.91
-8.42
-6.95
-4.92
-2.72
-0.73
0.59
0.77
-0.57
-3.43
-7.32
-11.36
-14.58
-16.45
-17.00
-16.78
-16.46
-16.46
-16.74
-16.97
-16.81
-16.14
-15.04
-13.63
-11.90
-9.72
-7.04
-4.10
-1.47
0.10
0.10
-1.51
-4.21
-7.15
-9.47
-10.69
-10.80
-10.15
-9.20
-8.26
-7.46
-6.84
-6.48
-6.69
-7.84
-10.16
-13.46
-17.14
-20.42
-22.80
-24.33
-25.59
-27.33
-29.92
-33.10
-36.04
-37.82
-37.95
-36.62
-34.66
-32.97
-32.12
-32.03
-32.16
-31.81
-30.48
-28.12
-24.89
-21.06
-16.87
-12.52
-8.33
-4.77
-2.39
-1.54
-2.13
-3.52
-4.71
-4.77
-3.43
-1.36
-0.07
-1.17
-5.57
-12.81
-21.07
-27.79
-30.64
-28.35
-21.06
-10.12
2.56
15.03
25.76
33.72
38.30
39.17
36.09
28.88
17.49
2.28
-15.79
-35.03
-53.24
-68.30
-78.74
-84.07
-84.76
-81.74
-75.87
-67.69
-57.49
-45.65
-32.92
-20.31
-8.89
0.58
7.76
12.65
15.47
16.56
16.44
15.78
15.22
15.13
15.36
15.25
14.09
11.65
8.46
5.63
4.28
4.79
6.72
9.10
11.08
12.46
13.56
14.78
16.09
16.85
16.25
13.90
10.17
5.98
2.22
-0.86
-3.73
-7.22
-11.86
-17.48
-23.31
-28.50
-32.54
-35.44
-37.54
-39.05
-39.94
-40.01
-39.03
-37.05
-34.34
-31.30
-28.30
-25.61
-23.39
-21.73
-20.51
-19.43
-18.06
-15.99
-13.07
-9.41
-5.29
-1.01
3.21
7.24
10.85
13.69
15.37
15.69
14.78
13.17
11.67
11.10
12.04
14.55
18.11
21.80
24.53
25.48
24.27
21.00
16.06
9.91
3.00
-4.20
-11.10
-17.04
-21.39
-23.92
-24.89
-25.02
-25.14
-25.79
-26.95
-28.01
-28.13
-26.59
-23.20
-18.43
-13.27
-8.79
-5.72
-4.19
-3.77
-3.80
-3.77
-3.53
-3.25
-3.09
-3.02
-2.68
-1.66
0.32
3.18
6.53
9.98
13.27
16.44
19.69
23.18
26.85
30.29
32.90
34.01
33.28
30.72
26.85
22.48
18.44
15.34
13.34
12.22
11.58
11.04
10.43
9.80
9.39
9.42
10.04
11.23
12.86
14.65
16.31
17.56
18.17
17.92
16.51
13.56
8.72
1.87
-6.67
-16.07
-25.17
-32.76
-37.94
-40.31
-40.05
-37.72
-34.12
-30.04
-26.21
-23.11
-20.99
-19.68
-18.69
-17.39
-15.30
-12.36
-9.06
-6.26
-4.82
-5.20
-7.23
-10.27
-13.50
-16.40
-18.96
-21.52
-24.37
-27.37
-29.80
-30.74
-29.61
-26.54
-22.45
-18.68
-16.36
-15.87
-16.58
-17.17
-16.23
-12.88
-7.24
-0.31
6.48
11.98
15.78
18.33
20.54
23.25
26.70
30.38
33.40
34.96
34.95
34.03
33.39
34.22
37.19
42.12
48.09
53.88
58.47
61.37
62.75
63.14
63.11
62.98
62.78
62.18
60.68
57.63
52.23
43.67
31.18
14.47
-6.01
-28.92
-52.04
-72.80
-88.83
-98.64
-101.90
-99.43
-92.81
-83.85
-74.04
-64.37
-55.42
-47.64
-41.52
-37.48
-35.66
-35.58
-36.22
-36.42
-35.40
-33.21
-30.78
-29.45
-30.19
-32.96
-36.57
-39.18
-39.09
-35.57
-29.22
-21.67
-14.94
-10.57
-9.11
-10.08
-12.36
-14.86
-16.96
-18.53
-19.50
-19.55
-18.04
-14.38
-8.65
-1.77
4.76
9.60
12.19
12.95
12.78
12.44
12.11
11.59
10.76
9.83
9.29
9.40
9.88
10.03
9.27
7.65
5.87
4.80
4.80
5.49
6.06
5.91
5.22
4.80
5.52
7.72
10.92
14.08
16.20
16.76
15.86
14.04
11.91
9.90
8.17
6.70
5.45
4.47
3.83
3.65
3.91
4.47
5.05
5.33
5.12
4.48
3.67
3.01
2.73
2.83
3.13
3.39
3.50
3.44
3.26
2.97
2.52
1.97
1.51
1.51
2.23
3.66
5.33
6.58
6.80
5.87
4.17
2.44
1.38
1.35
2.24
3.66
5.11
6.22
6.85
7.03
6.92
6.79
6.89
7.35
8.14
8.99
9.55
9.54
8.90
7.82
6.67
5.74
5.15
4.74
4.22
3.32
1.82
-0.33
-3.10
-6.33
-9.79
-13.10
-15.85
-17.70
-18.56
-18.79
-19.15
-20.56
-23.61
-28.24
-33.51
-37.93
-40.05
-39.04
-35.12
-29.34
-23.14
-17.65
-13.35
-10.11
-7.47
-5.10
-2.97
-1.20
0.07
0.96
1.83
3.03
4.70
6.67
8.49
9.76
10.38
10.63
11.03
12.02
13.77
16.08
18.59
21.00
23.30
25.60
27.94
30.04
31.27
31.05
29.13
25.83
21.82
17.76
13.92
10.11
6.00
1.50
-2.99
-6.72
-8.98
-9.51
-8.68
-7.33
-6.40
-6.66
-8.43
-11.58
-15.67
-19.94
-23.55
-25.68
-25.73
-23.44
-18.97
-12.85
-5.75
1.77
9.39
17.00
24.56
31.92
38.84
45.04
50.43
55.08
59.16
62.75
65.73
67.91
69.25
70.12
71.30
73.67
77.69
83.16
89.25
94.78
98.50
99.18
95.44
85.77
68.97
44.80
14.61
-18.76
-52.05
-83.13
-112.18
-141.50
-174.12
-211.78
-253.70
-296.60
-336.09
-368.12
-389.96
-400.04
-397.34
-381.01
-350.74
-307.74
-255.31
-198.43
-142.31
-90.65
-44.80
-4.04
33.02
67.11
97.65
123.30
143.15
157.56
168.19
176.94
184.64
190.32
191.76
186.85
175.11
158.15
139.09
121.22
106.65
95.85
87.94
81.44
74.88
67.23
58.14
48.22
39.36
34.42
36.30
46.38
63.30
82.72
98.64
105.58
100.85
85.52
63.75
41.05
22.13
9.53
3.38
2.17
3.79
6.38
8.71
10.09
10.28
9.36
7.77
6.25
5.46
5.53
5.72
4.58
0.59
-6.95
-17.45
-29.12
-39.65
-47.30
-51.40
-52.53
-51.92
-50.79
-49.87
-49.44
-49.46
-50.06
-51.62
-54.53
-58.80
-63.70
-67.85
-69.61
-67.92
-62.72
-55.02
-46.41
-38.25
-31.10
-24.68
-18.35
-11.82
-5.51
-0.60
1.62
0.34
-4.15
-10.53
-16.81
-21.01
-21.86
-19.03
-13.19
-5.62
2.17
8.86
13.44
15.43
14.72
11.63
6.91
1.54
-3.40
-7.11
-9.28
-10.10
-10.04
-9.53
-8.65
-7.19
-4.86
-1.58
2.41
6.63
10.65
14.16
17.05
19.16
20.23
19.92
17.98
14.54
10.29
6.33
3.98
4.35
8.04
14.97
24.43
35.20
45.89
55.22
62.28
66.63
68.30
67.60
64.97
60.81
55.48
49.38
43.01
37.08
32.36
29.41
28.21
27.99
27.46
25.31
21.00
15.03
8.84
4.02
1.47
0.95
1.26
1.09
-0.16
-2.00
-3.27
-2.97
-0.92
2.16
5.28
7.73
9.37
10.17
9.62
6.52
-0.57
-12.34
-27.99
-45.13
-60.76
-72.43
-79.17
-81.57
-81.01
-78.83
-75.63
-71.42
-66.04
-59.56
-52.34
-44.78
-37.09
-29.39
-21.93
-15.33
-10.62
-8.80
-10.01
-12.76
-14.14
-10.91
-1.53
12.33
25.87
32.90
28.91
13.54
-9.21
-32.87
-51.70
-62.97
-67.23
-66.54
-62.42
-55.02
-43.93
-29.97
-15.94
-5.70
-2.27
-5.93
-14.18
-23.09
-29.23
-31.08
-29.37
-26.45
-25.47
-29.46
-40.34
-58.05
-79.93
-101.16
-116.35
-121.60
-116.03
-101.95
-83.66
-65.51
-50.56
-39.90
-32.76
-27.12
-20.36
-10.03
5.25
25.26
48.09
70.94
91.37
108.31
122.06
133.40
142.42
147.98
148.17
141.71
128.91
111.69
92.64
73.80
56.13
39.84
25.08
12.51
3.11
-2.47
-4.47
-4.10
-2.89
-1.94
-1.50
-1.24
-0.82
-0.30
-0.07
-0.32
-0.66
-0.35
1.26
4.19
7.71
10.84
12.81
13.34
12.63
11.05
8.94
6.73
4.96
4.29
5.19
7.54
10.53
13.03
14.02
13.22
11.18
8.88
7.20
6.46
6.39
6.42
6.20
5.69
5.08
4.48
3.71
2.46
0.57
-1.70
-3.77
-5.09
-5.61
-5.81
-6.57
-8.72
-12.58
-17.94
-24.19
-30.67
-36.90
-42.63
-47.76
-52.25
-55.85
-58.10
-58.42
-56.28
-51.56
-44.62
-36.13
-26.77
-16.92
-6.69
3.86
14.22
23.35
29.91
32.90
32.20
28.73
24.14
20.21
18.25
18.87
21.91
26.65
32.02
36.81
40.08
41.48
41.37
40.61
40.18
40.79
42.73
45.91
50.03
54.74
59.77
64.93
69.87
74.07
76.86
77.71
76.24
72.35
66.35
59.11
52.15
47.24
45.89
48.49
54.33
61.05
65.24
63.80
55.63
42.48
28.27
17.00
10.52
8.06
5.66
-2.64
-22.67
-57.82
-107.50
-167.01
-228.43
-282.29
-318.07
-328.24
-310.76
-270.08
-214.94
-154.79
-96.77
-44.15
3.60
51.41
104.38
164.68
229.84
293.65
348.45
387.37
406.00
391.60
340.12
259.72
168.84
86.14
21.68
-23.49
-52.76
-69.84
-77.44
-75.84
-66.20
-51.54
-36.45
-24.96
-18.41
-15.52
-13.64
-10.61
-4.17
5.63
17.48
28.59
36.01
38.69
37.60
34.83
32.46
32.75
36.79
44.36
54.05
63.88
72.88
81.17
89.44
98.20
107.86
117.87
126.53
134.69
141.29
145.50
147.02
146.03
142.97
138.51
133.23
127.54
121.69
115.38
108.68
102.00
95.93
90.97
87.42
85.18
83.80
82.62
80.56
77.00
71.87
65.57
58.78
52.09
45.69
39.25
32.06
23.09
11.76
-1.77
-16.81
-32.26
-47.21
-61.22
-74.52
-87.92
-102.83
-120.81
-143.09
-169.91
-199.75
-229.11
-252.96
-265.88
-263.73
-245.18
-212.23
-169.80
-124.21
-81.35
-45.26
-17.62
1.69
13.52
18.38
16.12
6.18
-11.31
-34.77
-61.12
-86.57
-108.16
-125.06
-138.75
-152.14
-167.73
-186.11
-205.25
-221.31
-230.08
-228.66
-216.19
-193.70
-163.47
-128.42
-92.11
-58.87
-33.31
-19.38
-18.77
-29.68
-47.05
-64.26
-75.82
-79.39
-76.01
-68.75
-60.38
-51.99
-42.89
-32.05
-19.79
-8.36
-1.20
-1.17
-8.86
-22.27
-37.41
-49.77
-55.81
-53.76
-44.00
-28.88
-12.15
2.16
11.09
14.20
14.07
15.28
22.26
36.49
55.22
72.60
82.55
82.10
72.88
60.09
49.97
46.96
52.43
65.30
83.69
106.13
131.93
160.33
189.55
216.37
236.68
246.40
242.62
224.26
192.35
150.09
102.31
54.35
10.47
-27.18
-59.15
-88.29
-118.30
-152.50
-192.42
-237.29
-283.93
-327.08
-359.94
-375.30
-367.59
-335.18
-282.22
-218.47
-156.99
-109.83
-83.91
-79.19
-89.83
-107.89
-126.88
-143.70
-157.74
-168.94
-176.18
-177.23
-170.34
-155.81
-136.18
-115.01
-95.03
-76.90
-59.56
-41.73
-22.99
-4.51
11.60
23.26
29.46
30.81
29.72
30.07
36.27
51.86
77.94
112.49
150.55
185.47
210.70
221.19
214.44
191.15
155.42
113.79
73.95
42.63
23.89
17.93
21.25
27.95
31.82
28.70
17.84
2.27
-12.41
-20.60
-19.00
-8.11
8.13
24.17
35.50
40.55
40.94
39.94
40.33
42.98
47.07
51.29
54.98
58.26
61.54
65.04
68.30
70.58
71.17
69.46
64.94
57.17
46.33
33.69
21.94
14.49
13.89
19.86
28.35
32.31
24.65
1.97
-33.04
-72.08
-104.62
-122.43
-122.97
-109.74
-89.84
-70.24
-55.11
-45.26
-39.27
-35.55
-33.38
-32.57
-32.70
-32.08
-28.15
-18.57
-2.27
19.92
45.60
71.58
94.84
112.68
123.15
125.26
119.09
106.17
89.35
72.28
58.45
50.04
47.00
46.93
45.58
38.40
22.27
-2.79
-32.98
-61.20
-79.39
-81.73
-67.63
-42.88
-18.23
-5.88
-15.14
-49.12
-103.69
-169.00
-232.66
-283.54
-314.55
-324.00
-314.96
-293.99
-268.86
-246.38
-230.78
-222.85
-220.30
-218.92
-214.22
-202.80
-183.05
-155.00
-120.01
-80.11
-37.78
4.34
43.82
78.77
108.57
134.43
159.28
187.12
221.88
266.49
322.10
387.42
458.14
527.08
585.33
624.45
639.25
629.62
600.57
560.11
516.14
473.87
435.03
398.88
363.99
329.74
296.44
264.46
233.17
200.64
164.58
123.86
79.70
35.60
-3.93
-35.71
-59.74
-79.28
-99.02
-122.15
-147.97
-171.66
-186.39
-186.86
-172.11
-146.00
-115.66
-88.36
-69.15
-59.90
-60.15
-68.56
-83.80
-104.79
-129.99
-157.04
-182.85
-204.49
-219.96
-228.57
-230.57
-226.22
-215.04
-195.86
-167.75
-131.64
-91.33
-53.46
-25.76
-14.64
-22.97
-49.35
-89.21
-137.07
-188.95
-243.40
-300.54
-359.69
-417.43
-466.98
-500.18
-510.59
-496.32
-460.90
-411.68
-356.80
-302.23
-250.54
-201.52
-154.26
-108.56
-65.45
-26.48
8.18
40.60
74.97
114.86
161.49
212.46
262.17
303.41
329.50
337.05
327.09
305.01
277.64
251.16
229.10
211.96
197.93
183.64
166.79
147.28
127.81
110.64
97.01
86.65
78.43
71.16
62.29
51.21
39.72
33.16
33.19
38.54
45.65
51.18
53.12
47.11
31.89
10.47
-7.07
-16.73
-18.63
-15.82
-10.70
-5.06
-7.04
-22.66
-52.09
-83.11
-110.23
-131.51
-148.48
-162.54
-176.36
-202.29
-249.59
-318.11
-389.58
-453.62
-505.18
-544.94
-574.14
-539.62
-414.13
-212.26
-35.64
94.83
182.13
248.96
300.36
337.57
360.67
361.42
335.55
287.32
236.66
192.94
158.55
129.95
104.26
78.92
44.93
-4.48
-70.07
-139.84
-207.37
-267.69
-316.55
-347.54
-355.70
-344.29
-320.22
-290.24
-254.36
-215.56
-176.45
-139.35
-104.59
-72.39
-45.14
-24.35
-8.90
6.67
25.47
48.40
74.06
100.56
125.95
148.51
168.05
186.38
207.46
234.43
268.75
309.27
352.18
391.39
420.30
433.93
430.75
412.96
385.05
351.77
316.27
279.90
243.29
207.81
176.22
151.97
137.62
133.48
137.37
145.44
153.81
159.74
162.18
161.54
159.02
155.93
153.18
151.09
149.22
146.42
140.84
130.21
112.38
86.05
51.60
11.37
-30.39
-68.49
-98.21
-117.05
-125.48
-126.52
-124.34
-122.60
-123.62
-128.85
-140.06
-159.89
-191.09
-234.17
-285.13
-335.07
-372.26
-386.39
-372.53
-332.95
-275.61
-210.63
-146.62
-88.58
-38.15
4.76
40.60
69.36
90.83
105.19
113.50
117.35
118.45
118.01
116.30
112.56
105.44
93.98
78.73
62.25
48.51
41.38
42.85
52.08
65.97
80.51
92.26
99.09
100.17
95.88
87.79
78.92
73.55
76.10
89.51
113.70
145.34
178.75
208.04
228.90
239.56
240.54
233.89
222.29
208.47
194.95
183.79
176.46
173.80
176.04
182.46
191.19
198.87
201.04
193.24
172.63
139.38
96.94
50.95
7.30
-29.81
-58.74
-80.43
-97.13
-111.19
-123.97
-135.57
-145.25
-151.98
-155.25
-155.60
-154.83
-155.74
-161.86
-177.04
-204.45
-245.26
-297.15
-353.42
-403.59
-435.76
-440.26
-413.49
-360.17
-292.48
-226.68
-178.41
-158.49
-170.72
-211.99
-273.85
-344.81
-412.42
-465.30
-495.13
-498.32
-476.86
-437.50
-389.53
-341.86
-300.39
-267.02
-239.98
-215.57
-189.85
-159.30
-121.64
-76.81
-28.22
16.76
48.43
58.67
45.20
14.27
-20.90
-45.50
-49.64
-32.44
-1.54
31.71
58.27
75.27
85.88
95.90
109.98
129.68
153.96
180.63
207.30
231.09
248.17
254.18
245.83
222.73
188.64
150.74
117.38
95.54
89.11
98.61
122.04
155.93
196.33
239.36
281.82
321.79
359.03
394.79
430.81
467.99
505.46
540.44
568.87
586.73
591.26
581.67
559.24
526.80
487.81
445.46
402.10
358.92
316.20
273.74
231.26
188.77
146.62
105.52
66.39
30.28
-1.75
-28.76
-50.20
-66.15
-77.54
-85.87
-92.88
-99.99
-108.04
-117.15
-127.03
-137.42
-148.23
-159.54
-171.23
-182.77
-193.10
-200.95
-205.41
-206.30
-204.33
-200.83
-197.15
-194.23
-192.30
-190.94
-189.37
-186.95
-183.43
-179.19
-174.95
-171.64
-170.03
-170.55
-173.11
-176.95
-180.72
-182.48
-180.15
-171.92
-157.09
-136.65
-113.21
-90.72
-73.60
-65.90
-70.36
-87.90
-117.16
-154.63
-195.27
-233.62
-265.29
-287.79
-300.57
-304.05
-298.50
-283.49
-258.35
-223.35
-180.64
-134.32
-89.38
-50.10
-19.06
2.98
16.38
22.02
21.14
15.65
8.31
2.53
1.53
7.23
19.69
37.10
56.50
74.63
88.84
97.61
100.99
100.38
97.98
96.18
96.69
100.28
106.74
115.41
125.63
136.96
149.02
161.07
171.95
180.10
184.20
183.67
179.12
172.28
165.48
160.82
159.19
159.84
160.51
158.37
151.25
138.65
121.87
103.32
85.34
69.19
54.83
41.50
28.62
16.40
5.75
-2.35
-7.62
-10.75
-13.09
-15.89
-19.73
-24.38
-29.16
-33.62
-37.79
-42.11
-46.87
-51.78
-55.99
-58.78
-60.51
-62.91
-68.64
-79.98
-97.37
-118.83
-140.61
-158.55
-169.56
-172.07
-165.69
-150.44
-126.49
-94.71
-57.40
-18.69
16.38
43.30
59.91
66.81
66.76
63.04
57.99
52.28
45.41
36.64
25.91
14.14
2.90
-6.27
-12.49
-15.82
-17.12
-17.57
-18.08
-19.10
-20.52
-22.09
-23.62
-25.31
-27.42
-30.16
-33.33
-36.40
-38.71
-39.78
-39.57
-38.38
-36.68
-34.77
-32.49
-29.39
-24.78
-18.14
-9.43
0.77
11.25
20.47
27.12
30.45
30.57
28.31
24.80
21.12
18.02
15.87
14.85
14.87
15.68
16.81
17.74
18.11
17.86
17.26
16.67
16.12
15.17
13.03
9.08
3.41
-2.99
-8.54
-11.80
-12.25
-10.64
-8.78
-8.65
-11.55
-17.44
-24.92
-31.74
-35.70
-35.45
-31.19
-24.96
-20.24
-21.36
-32.58
-57.01
-95.59
-146.00
-202.32
-255.84
-296.92
-317.58
-313.76
-286.11
-239.11
-179.05
-112.09
-43.45
22.13
79.79
124.52
152.37
162.19
156.73
141.87
124.45
109.67
99.52
93.09
88.01
82.15
74.78
66.42
58.09
50.47
43.62
37.02
30.13
22.71
15.09
8.15
3.00
0.44
0.66
3.02
6.26
8.99
10.07
8.99
5.92
1.60
-2.77
-5.80
-6.03
-2.42
5.24
16.05
28.02
38.87
46.75
50.98
52.08
51.21
49.23
46.25
41.74
35.26
27.11
18.51
11.05
5.88
3.19
2.19
1.96
2.00
2.61
4.46
7.86
12.34
16.76
20.07
22.14
24.10
28.02
35.84
48.42
65.01
83.64
102.04
118.81
134.07
149.09
165.36
183.46
202.48
220.28
234.46
243.42
246.91
245.73
240.78
232.19
219.03
199.92
174.11
142.61
108.32
75.38
47.58
26.82
12.52
1.93
-8.79
-22.83
-42.04
-67.17
-98.30
-135.35
-177.46
-221.81
-263.62
-297.74
-321.15
-335.17
-345.40
-359.01
-380.96
-411.14
-444.16
-471.89
-487.05
-485.80
-468.25
-436.69
-393.82
-342.07
-284.28
-225.00
-171.01
-130.21
-109.20
-110.88
-132.67
-166.64
-201.88
-227.91
-238.02
-231.24
-211.65
-185.77
-159.72
-136.92
-117.74
-100.85
-84.82
-69.38
-55.29
-43.46
-33.73
-24.49
-13.28
2.16
22.82
48.07
75.92
104.05
130.80
155.72
179.57
203.65
229.15
256.49
285.38
314.77
343.20
368.94
390.24
405.64
414.33
416.47
413.06
405.47
394.66
380.63
362.44
338.78
309.03
273.88
235.59
197.44
162.82
134.26
112.92
98.61
90.02
85.24
82.33
79.67
76.20
71.39
65.15
57.67
49.31
40.46
31.43
22.45
13.66
5.18
-2.92
-10.54
-17.63
-24.16
-30.15
-35.62
-40.44
-44.41
-47.40
-49.48
-51.01
-52.52
-54.37
-56.48
-58.27
-58.81
-57.28
-53.33
-47.08
-39.10
-30.10
-20.78
-11.67
-3.22
4.22
10.45
15.43
19.25
22.07
23.88
24.49
23.62
21.05
16.81
11.20
4.73
-2.19
-9.30
-16.56
-24.05
-31.78
-39.69
-47.64
-55.66
-63.90
-72.63
-81.86
-91.15
-99.56
-105.83
-108.76
-107.43
-101.41
-90.75
-75.92
-57.83
-37.87
-17.63
1.31
17.77
31.29
42.17
51.38
60.17
69.78
81.12
94.54
109.76
125.83
141.60
156.28
170.06
184.21
200.58
220.42
243.31
266.72
286.55
298.52
299.68
289.24
268.59
240.47
207.94
173.60
139.41
106.86
77.31
51.85
31.10
14.98
2.64
-7.22
-15.91
-24.24
-32.42
-40.05
-46.44
-50.96
-53.28
-53.56
-52.41
-50.75
-49.56
-49.58
-51.06
-53.77
-57.15
-60.59
-63.76
-66.60
-69.27
-71.90
-74.45
-76.66
-78.33
-79.34
-79.90
-80.51
-81.76
-84.15
-87.95
-93.08
-99.15
-105.50
-111.22
-115.31
-116.87
-115.34
-110.65
-103.34
-94.46
-85.22
-76.80
-69.81
-64.24
-59.49
-54.64
-48.94
-42.14
-34.65
-27.33
-21.25
-17.31
-15.98
-17.06
-19.13
-19.41
-14.20
0.01
24.90
58.92
97.22
132.99
159.86
174.19
176.07
168.62
156.17
142.13
127.69
112.05
93.46
70.42
42.44
10.05
-25.88
-64.67
-106.03
-149.67
-194.71
-239.46
-281.77
-319.77
-352.34
-378.90
-398.64
-409.73
-409.40
-394.93
-365.35
-322.39
-270.41
-214.74
-159.88
-108.10
-59.33
-12.08
35.60
85.03
136.39
188.38
238.10
281.56
314.73
334.83
341.47
336.80
324.56
308.39
290.51
271.29
249.96
225.86
199.46
172.42
146.87
124.42
105.54
89.65
75.79
63.38
52.47
43.77
37.79
34.39
32.45
30.31
26.52
20.50
12.87
5.06
-1.33
-5.35
-6.99
-7.05
-6.87
-7.53
-9.48
-12.33
-15.08
-16.75
-16.69
-14.80
-11.65
-8.41
-6.43
-6.63
-9.19
-13.47
-18.48
-23.17
-26.76
-29.00
-30.53
-32.25
-34.73
-37.82
-40.62
-42.49
-43.01
-42.19
-40.62
-40.09
-42.10
-46.83
-52.87
-57.46
-59.30
-58.12
-54.59
-50.26
-48.96
-53.59
-64.43
-78.66
-90.63
-97.40
-97.82
-92.25
-83.01
-76.84
-80.49
-97.93
-128.82
-167.66
-210.81
-253.57
-289.57
-312.73
-323.05
-323.82
-320.00
-316.44
-314.95
-320.76
-336.28
-359.02
-357.08
-308.84
-215.26
-100.87
-11.70
49.02
86.07
103.59
107.31
97.39
70.20
25.83
-28.64
-80.18
-112.94
-121.29
-107.56
-78.94
-44.68
-15.09
4.00
12.91
16.84
24.14
37.63
57.43
83.18
114.31
148.59
183.46
216.11
243.60
263.77
272.63
268.46
253.82
234.39
215.91
202.20
193.88
189.00
185.07
179.17
169.98
158.03
144.25
128.69
110.74
90.07
67.78
46.72
29.95
19.67
16.31
18.18
22.48
26.73
29.74
31.90
34.56
39.12
46.20
55.44
65.67
75.48
83.68
89.60
93.31
95.53
97.15
98.70
99.61
98.21
92.20
79.87
61.01
37.53
12.65
-9.99
-27.58
-38.85
-44.26
-45.65
-45.80
-47.62
-53.18
-63.18
-76.74
-91.90
-106.38
-118.28
-126.17
-128.83
-124.97
-113.76
-95.52
-72.42
-48.41
-27.84
-13.99
-7.94
-8.79
-14.62
-23.50
-33.62
-42.84
-48.63
-48.75
-42.45
-31.69
-20.94
-15.23
-17.52
-26.82
-38.20
-45.18
-43.09
-31.40
-13.97
2.46
11.51
9.76
-2.08
-20.04
-39.24
-56.18
-70.39
-83.71
-98.08
-113.12
-125.28
-129.68
-123.17
-106.79
-85.79
-67.05
-55.36
-51.33
-52.26
-54.58
-56.55
-58.72
-62.74
-69.22
-76.73
-82.77
-85.17
-83.20
-77.43
-68.34
-55.23
-37.05
-13.56
13.45
40.68
64.63
83.64
98.70
112.05
125.40
138.38
148.11
150.68
142.75
123.49
95.42
63.87
34.41
10.92
-5.25
-15.18
-20.69
-23.40
-24.27
-24.04
-23.32
-23.62
-26.34
-31.36
-36.69
-38.61
-34.15
-22.87
-7.53
8.56
21.86
30.37
33.91
34.04
33.96
36.13
42.23
53.43
73.38
104.20
145.13
193.00
244.10
297.85
354.91
416.02
479.97
546.62
610.75
662.90
693.80
699.33
685.46
662.06
638.58
620.25
612.65
614.94
620.46
620.48
607.73
581.61
542.63
490.90
394.34
248.49
76.98
-83.44
-201.17
-284.19
-344.39
-393.08
-433.57
-468.21
-493.10
-506.21
-509.46
-507.51
-505.63
-504.33
-503.89
-504.87
-508.51
-511.09
-510.27
-506.61
-502.95
-502.73
-505.79
-511.90
-521.53
-536.60
-556.50
-580.78
-608.52
-636.64
-659.20
-666.98
-652.98
-615.58
-559.55
-492.25
-422.28
-356.74
-299.63
-251.98
-212.38
-179.53
-153.01
-132.86
-117.95
-106.45
-96.45
-86.78
-77.36
-68.78
-62.12
-58.16
-56.87
-57.21
-57.47
-55.96
-51.71
-44.64
-35.55
-25.55
-15.51
-5.79
3.80
13.51
23.38
33.00
41.68
48.81
54.23
58.44
62.44
67.24
73.38
80.66
88.25
95.30
101.46
107.29
114.12
123.60
136.83
153.77
173.27
193.32
212.01
228.42
242.89
257.17
273.88
295.91
325.33
362.21
403.71
443.79
474.32
487.17
476.70
442.23
388.58
324.53
259.69
201.39
152.76
113.10
79.78
50.74
26.20
8.54
0.94
5.46
21.90
47.86
80.01
115.33
151.71
187.06
218.40
241.79
253.31
250.88
235.43
210.16
178.81
144.05
107.25
69.43
32.76
0.99
-22.27
-35.26
-39.07
-36.54
-29.59
-16.84
6.51
46.09
104.34
177.39
255.06
323.99
372.43
394.52
391.91
372.10
344.77
317.82
294.92
275.28
255.83
233.98
209.30
183.33
158.11
134.29
110.38
83.38
50.41
10.37
-35.39
-83.34
-129.42
-170.62
-205.97
-236.80
-265.89
-296.25
-330.40
-370.04
-415.95
-467.68
-522.69
-575.64
-618.96
-644.59
-646.70
-624.06
-580.49
-523.18
-459.63
-395.36
-333.07
-273.77
-218.33
-168.27
-125.45
-90.85
-64.00
-43.29
-27.09
-14.50
-5.40
0.59
4.79
9.64
17.67
29.94
45.26
60.65
72.79
79.60
80.84
77.44
70.29
59.68
45.51
28.45
11.08
-2.27
-6.88
0.36
19.83
49.56
86.81
129.47
176.30
225.27
271.63
307.55
324.05
314.93
279.95
225.58
162.28
100.47
46.72
2.51
-34.43
-67.79
-101.09
-137.26
-178.88
-227.80
-283.54
-341.82
-394.42
-431.37
-444.86
-432.56
-398.46
-351.05
-299.55
-250.71
-207.61
-170.23
-137.09
-106.74
-78.07
-50.00
-21.00
10.45
44.99
81.52
117.47
149.73
175.70
194.37
206.47
214.11
220.09
227.17
237.61
252.36
270.58
289.12
302.94
306.22
294.02
263.62
214.92
150.12
73.23
-10.13
-92.49
-164.70
-217.48
-243.76
-240.95
-212.02
-164.58
-108.49
-53.07
-5.04
32.38
59.14
77.47
90.77
102.49
114.96
128.91
143.51
157.51
170.23
182.32
195.09
209.43
224.96
239.91
252.15
260.33
264.46
265.42
264.11
260.80
255.29
247.33
237.01
224.74
210.73
195.11
177.87
159.34
139.99
120.14
99.46
77.06
52.21
25.18
-2.29
-27.40
-47.47
-60.93
-67.83
-69.29
-66.98
-62.35
-56.92
-52.39
-50.56
-53.04
-60.85
-74.10
-91.99
-113.16
-135.94
-158.72
-180.03
-198.47
-212.58
-220.78
-221.81
-215.19
-201.75
-183.43
-163.11
-143.11
-124.68
-107.91
-92.34
-78.00
-66.16
-58.78
-57.37
-61.93
-70.61
-80.72
-90.33
-98.62
-105.76
-111.89
-116.27
-117.23
-113.08
-102.97
-87.81
-69.80
-51.71
-35.93
-23.65
-14.76
-8.29
-3.05
2.10
8.01
15.29
24.20
34.07
43.44
50.71
55.02
57.42
61.56
72.89
97.34
138.75
196.56
264.85
333.23
389.77
424.78
433.91
419.23
387.75
348.09
307.04
267.87
230.10
191.81
151.86
110.84
70.49
32.30
-4.14
-41.16
-81.70
-127.75
-179.38
-235.27
-293.56
-352.56
-410.53
-464.86
-511.46
-545.20
-561.49
-557.92
-535.47
-498.15
-451.61
-401.53
-352.56
-307.81
-269.09
-236.86
-209.92
-185.38
-159.00
-126.08
-82.92
-28.44
34.49
98.41
152.43
185.91
192.98
176.19
146.71
120.54
112.08
128.14
165.33
212.04
253.70
278.42
280.47
260.81
225.42
182.81
141.86
110.17
92.87
91.93
106.20
132.59
167.17
206.20
246.19
283.48
314.16
334.61
342.66
338.32
323.77
302.26
276.68
248.47
217.62
183.79
147.19
109.30
72.54
39.46
11.80
-10.02
-26.92
-40.58
-52.66
-64.21
-75.45
-85.93
-94.90
-101.65
-105.78
-107.16
-105.88
-102.19
-96.57
-89.75
-82.68
-76.44
-72.01
-70.02
-70.57
-73.10
-76.44
-79.14
-79.79
-77.49
-72.17
-64.58
-55.99
-47.58
-40.03
-33.22
-26.49
-19.10
-10.76
-1.84
6.68
13.72
18.68
21.75
24.12
27.87
35.42
48.79
68.61
93.38
119.31
140.99
152.76
150.20
131.68
99.00
57.13
13.03
-26.24
-55.53
-73.04
-80.60
-82.81
-85.15
-92.11
-105.92
-126.33
-151.13
-177.08
-200.19
-215.94
-219.71
-207.90
-179.40
-137.15
-87.92
-40.50
-2.63
21.21
30.47
27.19
14.25
-5.64
-29.54
-53.24
-71.03
-76.77
-66.02
-37.70
5.78
60.22
121.52
186.45
251.82
312.85
362.62
393.79
401.46
385.93
353.05
311.99
271.42
236.74
208.93
185.76
164.35
143.04
122.02
102.50
85.17
