1678196780.00
64.000000
-0.00
-0.00
-0.00
-0.00
-0.00
-0.00
-0.00
-0.00
-0.00
-0.00
0.00
0.01
0.01
-0.00
-0.03
-0.05
-0.05
0.00
0.13
0.36
0.66
1.01
1.37
1.72
2.06
2.40
2.79
3.24
3.80
4.42
5.06
5.66
6.20
6.68
7.15
7.68
8.31
9.14
10.09
11.04
11.88
12.56
13.14
13.76
14.65
15.96
17.91
20.32
22.90
25.38
27.58
29.57
31.68
34.32
37.81
42.54
48.15
54.10
59.83
64.97
69.58
74.14
79.34
85.71
93.76
103.00
112.62
121.73
129.77
136.75
143.30
150.75
157.77
166.64
177.95
191.79
206.97
220.57
228.25
225.36
208.53
176.87
132.76
80.05
23.07
-34.94
-92.44
-149.16
-205.23
-260.37
-313.74
-363.87
-409.83
-450.91
-486.50
-515.74
-537.23
-549.22
-549.96
-538.37
-514.21
-478.67
-433.88
-382.45
-327.02
-269.84
-212.63
-156.66
-102.95
-52.37
-5.90
35.58
71.43
101.35
125.50
144.38
158.69
169.15
176.37
180.75
182.57
182.07
179.51
175.23
169.65
163.18
156.15
148.81
141.30
133.69
126.02
118.33
110.69
103.16
95.80
88.68
81.83
75.25
68.95
62.95
57.25
51.86
46.78
42.03
37.59
33.45
29.61
26.07
22.81
19.83
17.11
14.67
12.48
10.54
8.83
7.35
6.07
4.97
4.05
3.27
2.62
2.09
1.65
1.30
1.01
0.79
0.61
0.48
0.37
0.29
0.24
0.20
0.18
0.17
0.18
0.19
0.21
0.24
0.27
0.31
0.35
0.40
0.44
0.48
0.53
0.58
0.63
0.69
0.75
0.81
0.88
0.96
1.04
1.13
1.23
1.35
1.48
1.62
1.78
1.96
2.16
2.39
2.63
2.91
3.21
3.53
3.90
4.29
4.72
5.19
5.69
6.23
6.81
7.44
8.11
8.82
9.57
10.37
11.22
12.11
13.05
14.03
15.08
16.20
17.37
18.60
19.88
21.15
22.36
23.44
24.28
24.77
24.77
24.19
22.93
20.95
18.26
14.92
11.00
6.70
2.21
-2.27
-6.53
-10.37
-13.64
-16.22
-18.05
-19.11
-19.44
-19.14
-18.36
-17.21
-15.87
-14.41
-12.90
-11.34
-9.73
-8.04
-6.33
-4.65
-3.08
-1.62
-0.27
1.02
2.37
3.88
5.66
7.61
9.65
11.65
13.56
15.37
17.17
19.11
21.39
24.18
27.19
30.15
32.76
34.82
36.34
37.57
38.93
40.89
43.81
47.20
50.49
53.00
54.29
54.26
53.31
52.14
51.53
51.94
52.64
52.56
50.49
45.44
36.89
24.83
9.26
-10.45
-31.05
-52.07
-73.81
-97.01
-122.40
-150.63
-182.10
-216.57
-252.62
-287.19
-316.59
-336.74
-344.96
-341.40
-329.14
-312.79
-296.20
-280.49
-263.59
-242.04
-212.51
-173.57
-126.12
-72.57
-15.57
42.54
99.47
152.09
195.92
226.27
239.74
235.66
216.71
188.01
155.58
124.71
99.13
80.86
70.77
68.92
74.53
86.07
101.39
118.29
135.06
150.81
165.19
178.09
189.11
197.48
202.35
203.18
199.99
193.34
183.99
172.53
159.28
144.40
128.20
111.42
95.23
80.87
69.13
59.94
52.27
44.67
36.00
25.97
15.20
4.78
-4.28
-11.40
-16.47
-19.60
-20.95
-20.91
-20.19
-19.67
-20.17
-21.84
-24.08
-25.81
-26.08
-24.74
-22.49
-20.52
-19.89
-21.11
-24.12
-28.60
-34.21
-40.69
-47.78
-55.06
-61.98
-68.03
-72.99
-76.99
-80.44
-83.85
-87.64
-91.98
-96.70
-101.34
-105.20
-107.54
-107.84
-105.91
-102.02
-96.78
-90.99
-85.44
-80.84
-77.62
-75.82
-74.88
-73.67
-70.86
-65.48
-57.45
-47.61
-37.29
-27.55
-18.83
-11.04
-3.98
2.27
7.54
12.02
16.65
22.87
31.80
43.29
55.81
67.10
75.57
81.08
84.88
88.54
92.69
96.49
98.14
96.03
89.66
79.98
68.83
57.99
48.50
40.43
33.15
25.84
17.99
9.60
1.25
-6.24
-12.09
-15.92
-17.91
-18.57
-18.47
-17.94
-16.88
-14.95
-11.92
-7.92
-3.62
0.03
2.11
2.14
0.25
-2.78
-5.85
-7.85
-8.07
-6.34
-2.99
1.21
5.40
8.86
11.23
12.60
13.42
14.33
15.78
17.79
19.87
21.24
21.24
19.64
16.70
12.97
8.94
4.80
0.50
-3.95
-8.26
-11.81
-13.77
-13.60
-11.20
-7.05
-1.99
3.10
7.57
11.13
13.68
15.22
15.70
14.96
12.88
9.53
5.29
0.86
-2.91
-5.38
-6.34
-6.15
-5.61
-5.69
-7.13
-10.34
-15.21
-21.32
-28.12
-35.06
-41.72
-47.81
-53.24
-57.97
-62.08
-65.59
-68.42
-70.33
-70.95
-69.94
-67.10
-62.59
-56.86
-50.48
-43.98
-37.61
-31.40
-25.30
-19.42
-14.06
-9.66
-6.52
-4.65
-3.67
-2.98
-2.08
-0.79
0.64
1.81
2.36
2.24
1.74
1.29
1.23
1.61
2.30
2.99
3.41
3.35
2.65
1.20
-1.14
-4.38
-8.22
-12.08
-15.13
-16.54
-15.80
-12.90
-8.26
-2.60
3.45
9.36
14.88
19.82
24.01
27.25
29.39
30.38
30.31
29.40
27.94
26.16
24.21
22.18
20.11
18.02
15.93
13.88
11.94
10.16
8.59
7.22
5.94
4.57
2.92
0.89
-1.56
-4.41
-7.62
-11.16
-14.92
-18.65
-21.89
-24.10
-24.80
-23.70
-20.86
-16.67
-11.71
-6.59
-1.82
2.20
5.25
7.15
7.87
7.50
6.30
4.62
2.79
1.02
-0.64
-2.24
-3.81
-5.26
-6.29
-6.57
-5.78
-3.84
-0.95
2.41
5.65
8.14
9.35
8.93
6.71
2.79
-2.43
-8.31
-13.96
-18.48
-21.15
-21.60
-19.91
-16.52
-12.07
-7.18
-2.35
2.14
6.14
9.57
12.32
14.29
15.40
15.64
15.12
14.07
12.79
11.54
10.49
9.66
9.03
8.50
8.01
7.53
6.99
6.29
5.33
3.96
2.09
-0.29
-3.11
-6.31
-9.81
-13.55
-17.42
-21.16
-24.33
-26.37
-26.75
-25.16
-21.65
-16.63
-10.78
-4.78
0.82
5.67
9.63
12.69
14.88
16.25
16.83
16.76
16.24
15.59
15.08
14.83
14.74
14.54
13.90
12.63
10.76
8.53
6.29
4.36
2.82
1.54
0.17
-1.71
-4.47
-8.24
-12.84
-17.77
-22.31
-25.69
-27.30
-26.81
-24.28
-19.98
-14.44
-8.24
-1.98
3.78
8.66
12.49
15.30
17.24
18.50
19.21
19.42
19.19
18.56
17.64
16.47
15.05
13.32
11.26
8.96
6.61
4.44
2.55
0.88
-0.80
-2.78
-5.27
-8.33
-11.86
-15.66
-19.43
-22.80
-25.32
-26.52
-26.05
-23.82
-20.05
-15.21
-9.94
-4.72
0.15
4.60
8.64
12.26
15.32
17.58
18.85
19.05
18.35
17.05
15.59
14.30
13.40
12.85
12.45
11.88
10.91
9.48
7.70
5.81
4.01
2.32
0.59
-1.42
-3.89
-6.86
-10.24
-13.85
-17.44
-20.72
-23.31
-24.70
-24.44
-22.25
-18.26
-12.97
-7.14
-1.52
3.34
7.24
10.21
12.42
14.01
15.06
15.57
15.49
14.89
13.92
12.84
11.90
11.23
10.81
10.44
9.94
9.20
8.21
7.10
5.97
4.77
3.35
1.51
-0.87
-3.73
-6.92
-10.22
-13.49
-16.64
-19.60
-22.22
-24.21
-25.22
-24.92
-23.09
-19.74
-15.13
-9.75
-4.18
1.00
5.35
8.68
11.05
12.62
13.60
14.08
14.09
13.64
12.79
11.75
10.79
10.18
10.04
10.32
10.78
11.11
11.02
10.35
9.13
7.50
5.63
3.68
1.75
-0.15
-2.06
-4.11
-6.44
-9.19
-12.43
-16.12
-20.06
-23.83
-26.91
-28.74
-28.85
-27.05
-23.49
-18.68
-13.33
-8.11
-3.52
0.34
3.59
6.44
8.98
11.08
12.45
12.86
12.32
11.13
9.80
8.80
8.39
8.51
8.94
9.31
9.33
8.84
7.81
6.40
4.81
3.27
1.93
0.79
-0.25
-1.38
-2.79
-4.63
-6.95
-9.76
-12.93
-16.18
-19.05
-20.95
-21.37
-20.00
-16.98
-12.77
-8.04
-3.42
0.68
4.15
7.04
9.53
11.72
13.59
15.06
16.00
16.34
16.16
15.59
14.90
14.27
13.75
13.31
12.81
12.11
11.17
10.00
8.68
7.26
5.74
4.06
2.13
-0.08
-2.58
-5.31
-8.20
-11.22
-14.37
-17.68
-21.09
-24.38
-27.07
-28.54
-28.23
-25.85
-21.56
-15.96
-9.85
-3.99
1.16
5.46
9.02
11.99
14.43
16.26
17.32
17.54
16.98
15.89
14.63
13.54
12.84
12.55
12.53
12.55
12.36
11.83
10.89
9.58
7.95
6.03
3.86
1.51
-0.90
-3.23
-5.42
-7.55
-9.86
-12.62
-16.02
-19.97
-24.01
-27.46
-29.59
-29.86
-28.16
-24.75
-20.20
-15.12
-9.97
-4.98
-0.19
4.40
8.72
12.60
15.77
18.04
19.34
19.81
19.71
19.37
19.02
18.76
18.53
18.23
17.73
16.99
16.03
14.88
13.55
12.04
10.32
8.39
6.32
4.17
2.00
-0.21
-2.54
-5.11
-8.07
-11.49
-15.38
-19.61
-23.91
-27.82
-30.77
-32.21
-31.80
-29.50
-25.62
-20.68
-15.20
-9.64
-4.20
0.99
5.86
10.29
14.07
16.99
18.94
19.95
20.21
19.99
19.55
19.11
18.73
18.38
17.99
17.47
16.76
15.84
14.67
13.23
11.43
9.28
6.88
4.42
2.15
0.19
-1.48
-3.14
-5.14
-7.79
-11.25
-15.40
-19.91
-24.28
-27.96
-30.41
-31.25
-30.24
-27.44
-23.14
-17.81
-12.03
-6.26
-0.84
4.01
8.23
11.79
14.67
16.90
18.49
19.47
19.90
19.87
19.49
18.94
18.37
17.93
17.65
17.48
17.23
16.69
15.72
14.21
12.24
9.94
7.47
4.98
2.54
0.20
-2.08
-4.34
-6.65
-9.09
-11.75
-14.74
-18.06
-21.58
-24.93
-27.58
-28.94
-28.60
-26.44
-22.71
-17.86
-12.48
-7.07
-1.98
2.61
6.59
9.90
12.51
14.41
15.58
16.08
16.01
15.52
14.84
14.21
13.84
13.78
13.95
14.17
14.23
14.00
13.41
12.44
11.09
9.32
7.14
4.68
2.07
-0.48
-2.89
-5.20
-7.63
-10.42
-13.70
-17.42
-21.29
-24.78
-27.30
-28.32
-27.48
-24.71
-20.29
-14.73
-8.71
-2.81
2.51
7.07
10.82
13.87
16.28
18.08
19.24
19.73
19.60
18.96
18.03
17.02
16.12
15.45
15.00
14.69
14.36
13.86
13.05
11.83
10.19
8.16
5.82
3.27
0.58
-2.17
-5.00
-7.99
-11.30
-15.04
-19.21
-23.56
-27.63
-30.84
-32.58
-32.41
-30.17
-26.01
-20.40
-13.99
-7.48
-1.44
3.72
7.87
11.04
13.38
15.06
16.22
16.94
17.35
17.55
17.61
17.55
17.35
16.99
16.45
15.77
14.96
14.02
12.89
11.48
9.77
7.78
5.61
3.36
1.09
-1.21
-3.66
-6.38
-9.47
-12.98
-16.91
-21.12
-25.33
-29.08
-31.83
-33.08
-32.46
-29.92
-25.71
-20.25
-14.10
-7.73
-1.49
4.36
9.61
14.09
17.60
20.09
21.59
22.28
22.42
22.24
21.90
21.41
20.81
20.07
19.27
18.51
17.89
17.40
16.91
16.19
15.00
13.17
10.68
7.72
4.50
1.28
-1.81
-4.76
-7.74
-10.95
-14.59
-18.74
-23.29
-27.87
-31.94
-34.81
-35.92
-34.92
-31.87
-27.13
-21.28
-14.90
-8.50
-2.38
3.24
8.20
12.37
15.64
17.98
19.40
20.04
20.10
19.82
19.46
19.19
19.08
19.09
19.04
18.78
18.23
17.40
16.38
15.21
13.84
12.19
10.17
7.85
5.34
2.82
0.39
-2.02
-4.57
-7.46
-10.88
-14.89
-19.37
-24.03
-28.35
-31.72
-33.48
-33.20
-30.77
-26.50
-20.95
-14.77
-8.47
-2.39
3.32
8.51
13.01
16.60
19.08
20.43
20.84
20.64
20.20
19.81
19.56
19.43
19.30
19.07
18.67
18.07
17.27
16.27
15.00
13.40
11.45
9.21
6.75
4.22
1.72
-0.73
-3.15
-5.63
-8.29
-11.21
-14.46
-18.06
-21.90
-25.72
-29.12
-31.60
-32.63
-31.87
-29.22
-24.86
-19.20
-12.76
-6.12
0.25
5.95
10.65
14.20
16.54
17.78
18.15
17.95
17.51
17.07
16.77
16.63
16.56
16.43
16.16
15.73
15.15
14.48
13.69
12.73
11.44
9.73
7.56
5.03
2.33
-0.37
-2.95
-5.45
-7.97
-10.71
-13.82
-17.38
-21.34
-25.51
-29.52
-32.86
-34.95
-35.26
-33.51
-29.76
-24.41
-18.07
-11.40
-4.91
1.07
6.37
10.87
14.45
17.02
18.59
19.34
19.58
19.63
19.71
19.83
19.85
19.62
19.06
18.19
17.12
15.95
14.72
13.38
11.86
10.10
8.08
5.88
3.60
1.30
-1.02
-3.45
-6.16
-9.32
-13.05
-17.33
-21.90
-26.35
-30.07
-32.49
-33.14
-31.80
-28.55
-23.74
-17.93
-11.72
-5.65
-0.08
4.79
8.87
12.13
14.55
16.15
17.07
17.53
17.81
18.12
18.52
18.90
19.06
18.78
17.97
16.65
14.99
13.19
11.46
9.93
8.62
7.43
6.16
4.59
2.62
0.27
-2.28
-4.83
-7.26
-9.69
-12.34
-15.45
-19.01
-22.66
-25.73
-27.45
-27.28
-25.09
-21.18
-16.13
-10.58
-5.00
0.35
5.33
9.85
13.74
16.75
18.68
19.45
19.15
18.08
16.65
15.28
14.26
13.74
13.62
13.67
13.55
12.98
11.83
10.10
7.99
5.71
3.46
1.34
-0.69
-2.76
-5.07
-7.91
-11.52
-16.01
-21.22
-26.67
-31.53
-34.90
-36.01
-34.51
-30.56
-24.73
-17.89
-10.87
-4.36
1.22
5.71
9.13
11.63
13.36
14.43
14.93
14.88
14.37
13.57
12.68
11.87
11.17
10.44
9.46
8.05
6.19
4.10
2.04
0.23
-1.30
-2.75
-4.49
-6.83
-9.96
-13.84
-18.27
-22.93
-27.43
-31.35
-34.21
-35.57
-35.06
-32.55
-28.23
-22.54
-16.06
-9.38
-2.94
3.03
8.38
12.98
16.62
19.16
20.53
20.90
20.61
20.04
19.51
19.15
18.91
18.60
18.04
17.07
15.61
13.69
11.46
9.07
6.69
4.36
2.04
-0.40
-3.12
-6.26
-9.89
-14.06
-18.68
-23.51
-28.11
-31.87
-34.09
-34.27
-32.17
-27.97
-22.20
-15.59
-8.86
-2.57
2.99
7.82
12.08
15.94
19.43
22.40
24.57
25.72
25.81
25.04
23.76
22.34
21.04
19.95
19.05
18.26
17.50
16.63
15.49
13.89
11.68
8.84
5.53
2.01
-1.46
-4.73
-7.86
-11.11
-14.78
-19.12
-24.06
-29.21
-33.90
-37.25
-38.54
-37.36
-33.73
-28.10
-21.15
-13.62
-6.15
0.85
7.13
12.58
17.14
20.75
23.39
25.07
25.93
26.18
26.07
25.83
25.52
25.10
24.47
23.57
22.49
21.41
20.45
19.64
18.81
17.68
16.01
13.67
10.75
7.47
4.12
0.90
-2.10
-4.94
-7.81
-10.92
-14.49
-18.64
-23.39
-28.54
-33.67
-38.20
-41.40
-42.67
-41.60
-38.19
-32.80
-26.06
-18.68
-11.18
-3.88
3.09
9.66
15.69
20.90
25.03
27.88
29.42
29.83
29.40
28.49
27.42
26.43
25.68
25.18
24.86
24.56
24.08
23.29
22.16
20.71
19.01
17.11
15.02
12.73
10.21
7.47
4.54
1.52
-1.51
-4.49
-7.44
-10.49
-13.83
-17.64
-21.97
-26.71
-31.51
-35.88
-39.25
-41.10
-41.12
-39.19
-35.49
-30.36
-24.26
-17.64
-10.88
-4.20
2.21
8.21
13.59
18.14
21.67
24.06
25.36
25.73
25.48
24.95
24.50
24.37
24.63
25.16
25.63
25.72
25.20
24.04
22.44
20.68
18.94
17.29
15.62
13.76
11.63
9.26
6.77
4.28
1.87
-0.45
-2.69
-4.84
-6.90
-8.92
-11.04
-13.49
-16.44
-19.86
-23.48
-26.73
-28.95
-29.56
-28.21
-24.93
-20.06
-14.20
-8.00
-2.05
3.27
7.81
11.63
14.86
17.57
19.77
21.38
22.37
22.75
22.61
22.09
21.30
20.32
19.16
17.88
16.55
15.24
14.00
12.85
11.70
10.40
8.83
6.84
4.42
1.66
-1.23
-3.97
-6.33
-8.22
-9.75
-11.21
-12.93
-15.17
-18.05
-21.47
-25.19
-28.88
-32.18
-34.75
-36.26
-36.42
-35.01
-32.00
-27.59
-22.18
-16.31
-10.47
-4.98
0.09
4.74
8.97
12.65
15.54
17.44
18.37
18.61
18.59
18.73
19.23
20.02
20.82
21.34
21.40
20.99
20.28
19.42
18.56
17.69
16.69
15.38
13.59
11.27
8.53
5.62
2.78
0.20
-2.11
-4.24
-6.46
-9.01
-12.09
-15.78
-19.96
-24.33
-28.44
-31.72
-33.69
-34.01
-32.55
-29.45
-25.02
-19.71
-14.06
-8.60
-3.75
0.19
3.19
5.37
6.94
8.11
9.03
9.79
10.46
11.16
11.91
12.63
13.05
12.89
11.94
10.26
8.21
6.30
4.96
4.28
3.98
3.54
2.46
0.45
-2.42
-5.79
-9.19
-12.20
-14.58
-16.32
-17.63
-18.85
-20.40
-22.60
-25.52
-28.87
-32.01
-34.09
-34.31
-32.20
-27.76
-21.44
-14.03
-6.31
1.03
7.48
12.76
16.68
19.20
20.47
20.73
20.41
19.94
19.64
19.58
19.60
19.33
18.42
16.77
14.56
12.24
10.32
9.09
8.49
8.19
7.67
6.56
4.73
2.39
-0.12
-2.48
-4.58
-6.45
-8.27
-10.21
-12.39
-14.89
-17.76
-20.94
-24.19
-27.03
-28.77
-28.76
-26.61
-22.39
-16.69
-10.34
-4.22
1.04
5.15
8.11
10.14
11.49
12.44
13.14
13.70
14.13
14.40
14.46
14.24
13.71
12.88
11.79
10.51
9.13
7.69
6.19
4.56
2.77
0.79
-1.34
-3.57
-5.87
-8.25
-10.83
-13.68
-16.91
-20.53
-24.43
-28.34
-31.87
-34.50
-35.73
-35.20
-32.83
-28.85
-23.74
-18.08
-12.37
-6.98
-2.09
2.21
5.96
9.16
11.86
14.09
15.80
16.93
17.46
17.40
16.86
16.08
15.24
14.45
13.69
12.88
11.96
10.92
9.85
8.76
7.59
6.19
4.35
1.99
-0.88
-4.12
-7.61
-11.25
-15.09
-19.12
-23.27
-27.20
-30.37
-32.17
-32.12
-30.08
-26.29
-21.30
-15.82
-10.41
-5.42
-0.94
3.06
6.64
9.72
12.17
13.88
14.89
15.36
15.52
15.58
15.61
15.57
15.31
14.69
13.58
11.92
9.72
7.02
3.96
0.70
-2.57
-5.72
-8.67
-11.43
-14.05
-16.63
-19.36
-22.42
-25.91
-29.69
-33.33
-36.14
-37.38
-36.52
-33.50
-28.74
-22.98
-16.95
-11.18
-5.86
-0.91
3.78
8.21
12.25
15.65
18.24
20.00
21.07
21.63
21.87
21.85
21.58
21.03
20.25
19.31
18.32
17.28
16.09
14.59
12.60
10.01
6.87
3.28
-0.56
-4.50
-8.45
-12.42
-16.53
-20.94
-25.77
-30.94
-36.09
-40.61
-43.68
-44.61
-43.01
-39.01
-33.18
-26.42
-19.63
-13.47
-8.27
-4.06
-0.78
1.65
3.25
4.03
4.11
3.68
2.99
2.13
1.04
-0.52
-2.78
-5.74
-9.05
-12.13
-14.44
-15.77
-16.44
-17.13
-18.68
-21.69
-26.31
-32.25
-39.05
-46.35
-54.11
-62.58
-72.09
-82.65
-93.84
-104.79
-114.49
-122.07
-127.17
-129.95
-131.02
-131.22
-131.28
-131.63
-132.27
-132.78
-132.53
-131.07
-128.38
-124.89
-121.24
-117.91
-114.87
-111.60
-107.38
-101.57
-93.90
-84.39
-73.23
-60.70
-47.26
-33.69
-21.13
-10.75
-3.26
1.51
4.66
7.74
12.02
17.95
25.06
32.30
38.65
43.56
47.22
50.21
53.13
56.33
59.91
63.90
68.52
74.29
81.71
90.92
101.42
112.14
121.88
129.78
135.55
139.51
142.15
143.84
144.64
144.48
143.40
141.74
140.11
139.16
139.29
140.56
142.54
144.58
145.90
145.86
144.09
140.62
135.78
130.05
123.75
116.84
108.87
99.25
87.64
74.28
60.15
46.68
35.27
26.77
21.23
17.99
16.10
14.76
13.58
12.50
11.48
10.08
7.37
2.15
-6.58
-19.14
-34.95
-52.69
-70.51
-86.34
-98.28
-104.86
-105.33
-99.93
-89.79
-76.63
-62.22
-47.91
-34.56
-22.85
-13.66
-8.24
-7.93
-13.55
-24.92
-40.79
-59.27
-78.50
-97.23
-114.86
-131.32
-146.53
-160.11
-171.37
-179.46
-183.84
-184.49
-182.11
-177.86
-173.14
-169.17
-166.61
-165.43
-164.73
-162.81
-157.32
-145.89
-126.82
-99.93
-66.80
-30.44
5.69
38.72
67.12
90.61
109.60
124.55
135.53
142.39
145.15
144.20
140.44
135.03
129.20
124.20
121.29
121.61
125.99
134.61
146.89
161.66
177.48
193.00
207.14
219.15
228.57
235.23
239.36
241.52
242.60
243.43
244.49
245.83
246.99
247.27
245.92
242.29
235.91
226.60
214.43
199.62
182.36
162.45
139.28
112.12
80.75
46.08
10.26
-23.72
-53.09
-76.19
-92.90
-104.37
-112.21
-117.66
-121.24
-122.82
-122.12
-119.12
-114.22
-108.11
-101.50
-94.97
-88.88
-83.50
-79.10
-75.97
-74.32
-74.12
-75.05
-76.50
-77.77
-78.34
-78.00
-76.95
-75.59
-74.35
-73.46
-72.85
-72.23
-71.21
-69.59
-67.46
-65.23
-63.44
-62.42
-62.12
-61.99
-61.21
-59.00
-55.00
-49.34
-42.55
-35.34
-28.27
-21.69
-15.77
-10.63
-6.42
-3.34
-1.52
-0.96
-1.43
-2.53
-3.76
-4.66
-4.96
-4.59
-3.73
-2.67
-1.70
-1.07
-0.95
-1.58
-3.24
-6.32
-11.17
-17.96
-26.52
-36.36
-46.78
-57.07
-66.72
-75.48
-83.40
-90.65
-97.43
-103.87
-109.97
-115.72
-121.12
-126.38
-131.92
-138.25
-145.79
-154.62
-164.35
-174.17
-183.10
-190.35
-195.43
-198.18
-198.61
-196.58
-191.81
-183.89
-172.34
-156.60
-136.08
-110.18
-78.78
-42.65
-3.69
35.39
71.84
103.78
130.70
153.32
173.10
191.62
210.30
230.25
252.23
276.47
302.31
328.10
351.48
369.97
381.68
385.47
380.88
367.88
346.88
318.91
285.98
251.00
217.04
186.42
159.80
136.08
113.14
89.01
63.01
36.17
10.69
-11.23
-28.52
-41.80
-52.95
-64.01
-76.05
-88.61
-99.98
-108.06
-111.33
-109.40
-102.83
-92.77
-80.43
-66.79
-52.56
-38.26
-24.30
-10.99
1.54
13.21
23.87
33.27
41.16
47.50
52.57
56.91
61.04
65.13
68.88
71.72
73.13
73.08
71.97
70.52
69.27
68.31
67.24
65.37
62.12
57.17
50.63
42.87
34.43
25.87
17.73
10.56
4.89
1.12
-0.48
0.03
2.22
5.30
8.21
9.94
9.75
7.43
3.23
-2.19
-8.06
-13.70
-18.57
-22.29
-24.68
-25.72
-25.64
-24.86
-23.92
-23.28
-23.10
-23.20
-23.28
-23.10
-22.77
-22.67
-23.39
-25.39
-28.84
-33.54
-38.99
-44.56
-49.52
-53.16
-54.79
-53.86
-50.10
-43.67
-35.17
-25.54
-15.79
-6.77
1.04
7.50
12.72
16.87
20.00
22.08
23.01
22.76
21.44
19.24
16.41
13.15
9.61
5.91
2.23
-1.21
-4.19
-6.58
-8.40
-9.88
-11.38
-13.30
-16.01
-19.74
-24.50
-30.03
-35.74
-40.82
-44.45
-45.95
-45.08
-41.99
-37.19
-31.33
-25.04
-18.72
-12.65
-6.98
-1.87
2.50
5.98
8.50
10.09
10.89
11.00
10.52
9.53
8.13
6.52
4.91
3.48
2.18
0.85
-0.82
-3.01
-5.75
-8.87
-12.12
-15.33
-18.53
-21.91
-25.71
-30.07
-34.89
-39.76
-43.99
-46.83
-47.60
-46.01
-42.20
-36.73
-30.30
-23.56
-16.95
-10.75
-5.12
-0.24
3.68
6.53
8.35
9.36
9.77
9.72
9.17
8.02
6.29
4.14
1.87
-0.28
-2.21
-3.99
-5.69
-7.30
-8.70
-9.79
-10.62
-11.50
-12.79
-14.86
-17.82
-21.53
-25.62
-29.60
-32.93
-35.15
-35.89
-34.99
-32.51
-28.73
-24.03
-18.83
-13.47
-8.18
-3.11
1.67
6.08
10.06
13.54
16.42
18.60
20.01
20.65
20.61
20.03
19.07
17.84
16.44
14.89
13.23
11.48
9.65
7.75
5.79
3.80
1.84
-0.04
-1.84
-3.74
-6.01
-8.91
-12.53
-16.67
-20.83
-24.33
-26.56
-27.12
-25.91
-23.12
-19.13
-14.37
-9.32
-4.36
0.17
4.09
7.33
9.90
11.84
13.15
13.79
13.70
12.92
11.59
9.94
8.26
6.72
5.33
4.00
2.56
0.87
-1.04
-3.07
-5.02
-6.72
-8.14
-9.36
-10.55
-11.90
-13.52
-15.42
-17.63
-20.11
-22.81
-25.55
-28.01
-29.69
-30.06
-28.73
-25.58
-20.86
-15.09
-8.91
-2.87
2.66
7.55
11.75
15.30
18.13
20.14
21.20
21.29
20.53
19.17
17.51
15.80
14.17
12.69
11.32
10.07
8.93
7.83
6.61
5.05
3.01
0.47
-2.36
-5.20
-7.85
-10.26
-12.51
-14.77
-17.16
-19.74
-22.50
-25.39
-28.24
-30.73
-32.37
-32.61
-31.08
-27.75
-23.06
-17.72
-12.53
-8.03
-4.46
-1.75
0.33
2.02
3.42
4.55
5.37
5.83
5.91
5.63
5.07
4.30
3.40
2.43
1.42
0.40
-0.62
-1.58
-2.48
-3.31
-4.12
-5.03
-6.15
-7.55
-9.30
-11.37
-13.69
-16.17
-18.77
-21.52
-24.48
-27.72
-31.09
-34.26
-36.69
-37.80
-37.20
-34.81
-30.89
-25.98
-20.66
-15.41
-10.53
-6.14
-2.29
1.02
3.76
5.92
7.52
8.64
9.43
10.06
10.63
11.09
11.29
11.06
10.32
9.16
7.78
6.48
5.39
4.54
3.77
2.92
1.87
0.59
-0.82
-2.30
-3.81
-5.42
-7.27
-9.47
-12.09
-15.05
-18.15
-21.00
-23.15
-24.12
-23.64
-21.68
-18.52
-14.63
-10.49
-6.43
-2.59
0.97
4.23
7.06
9.27
10.68
11.26
11.12
10.47
9.52
8.43
7.33
6.33
5.61
5.35
5.61
6.27
6.99
7.40
7.20
6.36
5.06
3.60
2.17
0.77
-0.82
-2.85
-5.45
-8.57
-11.97
-15.38
-18.54
-21.20
-23.06
-23.78
-23.04
-20.69
-16.93
-12.23
-7.23
-2.52
1.58
5.06
8.01
10.55
12.65
14.18
15.00
15.12
14.70
14.00
13.27
12.63
12.07
11.48
10.77
9.90
8.90
7.84
6.78
5.71
4.58
3.31
1.86
0.17
-1.75
-3.93
-6.39
-9.19
-12.37
-15.91
-19.67
-23.34
-26.49
-28.65
-29.39
-28.49
-25.99
-22.18
-17.54
-12.58
-7.73
-3.26
0.73
4.25
7.34
9.98
12.05
13.45
14.09
14.04
13.51
12.78
12.08
11.55
11.17
10.80
10.27
9.48
8.39
7.04
5.48
3.71
1.74
-0.40
-2.61
-4.77
-6.73
-8.49
-10.22
-12.26
-14.96
-18.45
-22.46
-26.37
-29.32
-30.59
-29.82
-27.10
-22.88
-17.80
-12.40
-7.13
-2.23
2.15
5.96
9.22
11.95
14.17
15.84
16.91
17.30
17.02
16.21
15.11
13.97
13.03
12.36
11.93
11.63
11.32
10.85
10.07
8.87
7.12
4.83
2.11
-0.83
-3.76
-6.55
-9.23
-12.02
-15.18
-18.88
-22.98
-27.04
-30.38
-32.30
-32.34
-30.38
-26.71
-21.93
-16.71
-11.62
-6.97
-2.84
0.84
4.11
6.95
9.28
11.02
12.18
12.87
13.25
13.46
13.59
13.61
13.46
13.09
12.50
11.75
10.89
9.96
8.95
7.79
6.35
4.51
2.21
-0.55
-3.67
-7.04
-10.57
-14.25
-18.12
-22.16
-26.18
-29.85
-32.66
-34.13
-33.90
-31.89
-28.28
-23.47
-17.96
-12.22
-6.64
-1.50
3.01
6.79
9.75
11.87
13.20
13.84
13.98
13.85
13.67
13.60
13.72
13.97
14.21
14.24
13.85
12.97
11.63
9.97
8.21
6.48
4.84
3.17
1.32
-0.88
-3.53
-6.66
-10.25
-14.22
-18.37
-22.35
-25.60
-27.49
-27.49
-25.42
-21.52
-16.36
-10.63
-4.90
0.53
5.57
10.19
14.25
17.53
19.80
20.94
21.12
20.66
19.98
19.42
19.13
19.06
19.07
18.95
18.56
17.84
16.77
15.35
13.60
11.54
9.21
6.71
4.11
1.48
-1.25
-4.22
-7.70
-11.89
-16.85
-22.30
-27.69
-32.19
-35.02
-35.58
-33.72
-29.70
-24.13
-17.75
-11.17
-4.81
1.15
6.67
11.73
16.25
20.11
23.13
25.23
26.41
26.80
26.57
25.91
25.01
23.95
22.79
21.46
19.88
17.95
15.57
12.77
9.61
6.27
2.88
-0.51
-3.91
-7.42
-11.14
-15.17
-19.56
-24.34
-29.40
-34.45
-38.98
-42.26
-43.53
-42.28
-38.45
-32.49
-25.26
-17.66
-10.39
-3.79
2.13
7.47
12.26
16.39
19.65
21.93
23.27
23.95
24.28
24.52
24.76
24.87
24.65
23.92
22.64
20.89
18.82
16.54
14.05
11.32
8.33
5.09
1.72
-1.65
-5.02
-8.50
-12.35
-16.78
-21.81
-27.15
-32.19
-36.12
-38.23
-38.02
-35.37
-30.53
-24.07
-16.66
-8.97
-1.56
5.18
11.04
15.89
19.69
22.46
24.26
25.30
25.80
26.03
26.15
26.16
25.95
25.35
24.33
22.96
21.44
19.94
18.50
16.99
15.15
12.75
9.72
6.17
2.35
-1.49
-5.23
-8.95
-12.86
-17.20
-22.04
-27.17
-32.11
-36.17
-38.61
-38.91
-36.85
-32.58
-26.59
-19.48
-11.91
-4.41
2.59
8.79
13.99
18.06
20.96
22.75
23.56
23.65
23.27
22.70
22.11
21.60
21.14
20.65
20.03
19.20
18.11
16.74
15.05
13.02
10.61
7.85
4.82
1.60
-1.72
-5.10
-8.65
-12.50
-16.82
-21.67
-26.86
-31.97
-36.33
-39.22
-40.06
-38.63
-35.11
-29.94
-23.76
-17.13
-10.44
-3.96
2.13
7.63
12.34
16.08
18.81
20.59
21.65
22.26
22.66
23.03
23.43
23.83
24.14
24.26
24.06
23.43
22.26
20.51
18.16
15.27
11.98
8.44
4.83
1.29
-2.17
-5.67
-9.41
-13.63
-18.43
-23.70
-29.00
-33.68
-36.96
-38.16
-36.95
-33.41
-27.98
-21.34
-14.19
-7.05
-0.23
6.12
11.92
17.08
21.41
24.74
26.93
28.01
28.19
27.80
27.16
26.48
25.86
25.29
24.71
24.08
23.34
22.42
21.17
19.42
17.09
14.25
11.13
8.02
5.10
2.31
-0.57
-3.89
-7.91
-12.70
-18.04
-23.48
-28.39
-32.05
-33.83
-33.35
-30.53
-25.70
-19.46
-12.53
-5.59
0.88
6.64
11.60
15.77
19.17
21.82
23.69
24.80
25.20
25.04
24.54
23.95
23.45
23.13
22.92
22.68
22.18
21.24
19.76
17.70
15.12
12.13
8.87
5.49
2.12
-1.18
-4.44
-7.81
-11.55
-15.90
-20.97
-26.59
-32.28
-37.30
-40.81
-42.14
-40.94
-37.36
-31.88
-25.20
-18.04
-10.94
-4.22
1.99
7.71
12.93
17.55
21.46
24.47
26.49
27.54
27.80
27.52
27.01
26.48
26.03
25.64
25.16
24.47
23.44
21.98
20.06
17.63
14.72
11.43
7.93
4.44
1.16
-1.84
-4.69
-7.65
-11.07
-15.11
-19.73
-24.55
-28.95
-32.17
-33.60
-32.83
-29.81
-24.88
-18.66
-11.85
-5.08
1.29
7.13
12.42
17.18
21.27
24.49
26.64
27.64
27.63
26.87
25.68
24.32
22.93
21.49
19.93
18.17
16.18
13.91
11.27
8.10
4.25
-0.30
-5.36
-10.55
-15.52
-20.17
-24.80
-29.95
-36.12
-43.44
-51.51
-59.48
-66.41
-71.55
-74.49
-75.17
-73.58
-69.79
-63.84
-56.03
-46.93
-37.33
-28.09
-19.78
-12.66
-6.63
-1.39
3.40
8.01
12.61
17.30
22.03
26.64
30.83
34.23
36.56
37.61
37.38
35.96
33.46
30.01
25.73
20.77
15.33
9.60
3.77
-2.02
-7.75
-13.38
-18.90
-24.28
-29.40
-34.08
-38.06
-41.14
-43.18
-44.18
-44.28
-43.59
-42.13
-39.73
-36.14
-31.21
-25.03
-18.06
-10.98
-4.49
0.87
4.86
7.56
9.32
10.56
11.74
13.12
14.74
16.34
17.45
17.56
16.36
13.91
10.63
7.14
3.89
0.98
-1.97
-5.57
-10.33
-16.46
-23.68
-31.45
-39.04
-45.70
-50.71
-53.35
-53.06
-49.52
-43.02
-34.38
-24.82
-15.48
-7.10
0.16
6.50
12.11
16.91
20.52
22.62
23.21
22.78
22.08
21.73
21.95
22.46
22.79
22.63
21.96
21.08
20.28
19.66
18.98
17.82
15.79
12.76
8.87
4.37
-0.63
-6.36
-13.28
-21.79
-31.79
-42.50
-52.49
-60.18
-64.31
-64.39
-60.72
-54.18
-45.81
-36.51
-26.83
-17.04
-7.30
2.26
11.43
19.89
27.33
33.54
38.50
42.34
45.31
47.56
49.13
49.92
49.81
48.81
47.14
45.19
43.39
42.04
41.19
40.55
39.64
37.90
34.95
30.74
25.63
20.21
14.97
10.13
5.55
0.93
-3.82
-8.30
-11.69
-13.05
-11.79
-8.00
-2.33
4.23
10.82
16.96
22.51
27.47
31.76
35.17
37.44
38.51
38.60
38.17
37.67
37.40
37.35
37.30
36.97
36.15
34.82
33.06
30.98
28.61
25.92
22.88
19.50
15.89
12.22
8.57
4.91
1.06
-3.23
-8.05
-13.18
-18.06
-21.90
-23.95
-23.76
-21.39
-17.34
-12.39
-7.29
-2.57
1.57
5.14
8.17
10.62
12.33
13.11
12.93
11.92
10.50
9.22
8.61
9.06
10.67
13.33
16.73
20.56
24.51
28.28
31.52
33.84
34.88
34.49
32.86
30.44
27.84
25.46
23.42
21.55
19.67
17.78
16.20
15.43
15.90
17.79
20.95
24.99
29.47
34.03
38.39
42.38
45.89
48.91
51.45
53.48
54.85
55.32
54.68
52.95
50.54
48.09
46.20
45.11
44.50
43.71
42.10
39.46
36.08
32.61
29.65
27.47
25.95
24.73
23.41
21.66
19.19
15.78
11.24
5.61
-0.72
-6.94
-11.99
-14.93
-15.19
-12.74
-8.04
-1.80
5.24
12.48
19.42
25.57
30.43
33.59
34.80
34.09
31.81
28.47
24.67
20.85
17.26
13.95
10.82
7.79
4.85
2.09
-0.37
-2.45
-4.20
-5.82
-7.59
-9.72
-12.28
-15.21
-18.31
-21.41
-24.41
-27.29
-30.06
-32.65
-34.93
-36.62
-37.36
-36.79
-34.70
-31.15
-26.50
-21.41
-16.64
-12.84
-10.40
-9.35
-9.46
-10.34
-11.61
-13.00
-14.38
-15.71
-16.94
-18.03
-18.82
-19.20
-19.10
-18.58
-17.81
-17.06
-16.54
-16.32
-16.41
-16.75
-17.39
-18.50
-20.27
-22.75
-25.67
-28.43
-30.25
-30.43
-28.61
-24.88
-19.72
-13.80
-7.74
-2.10
2.76
6.49
8.86
9.78
9.38
8.03
6.23
4.42
2.81
1.36
-0.20
-2.16
-4.67
-7.66
-10.93
-14.20
-17.33
-20.29
-23.16
-25.97
-28.74
-31.44
-34.04
-36.63
-39.28
-42.00
-44.60
-46.61
-47.42
-46.49
-43.57
-38.85
-32.90
-26.38
-19.86
-13.69
-8.06
-3.12
0.90
3.68
4.99
4.86
3.56
1.56
-0.70
-3.04
-5.52
-8.31
-11.41
-14.55
-17.24
-19.05
-19.85
-19.96
-20.03
-20.76
-22.65
-25.87
-30.24
-35.39
-40.75
-45.66
-49.36
-51.08
-50.22
-46.53
-40.31
-32.33
-23.70
-15.54
-8.71
-3.66
-0.41
1.32
1.93
1.83
1.38
0.86
0.48
0.40
0.69
1.28
1.97
2.55
2.82
2.76
2.47
2.11
1.81
1.52
1.05
0.09
-1.61
-4.20
-7.59
-11.50
-15.47
-18.91
-21.20
-21.79
-20.38
-16.99
-12.01
-6.01
0.36
6.58
12.31
17.40
21.67
24.94
27.01
27.73
27.25
25.93
24.31
22.85
21.74
20.87
19.91
18.55
16.66
14.41
12.12
10.11
8.52
7.26
6.01
4.33
1.85
-1.62
-5.96
-10.69
-15.09
-18.29
-19.60
-18.63
-15.45
-10.52
-4.55
1.70
7.60
12.68
16.67
19.40
20.88
21.25
20.76
19.70
18.34
16.80
15.11
13.22
11.11
8.82
6.49
4.23
2.14
0.17
-1.73
-3.57
-5.35
-7.02
-8.70
-10.61
-13.07
-16.32
-20.30
-24.65
-28.67
-31.61
-32.84
-32.06
-29.27
-24.79
-19.13
-12.91
-6.73
-1.12
3.58
7.21
9.79
11.37
12.01
11.73
10.56
8.66
6.29
3.79
1.52
-0.39
-1.95
-3.40
-4.97
-6.81
-8.86
-10.93
-12.79
-14.34
-15.74
-17.25
-19.24
-21.90
-25.19
-28.78
-32.15
-34.68
-35.83
-35.18
-32.53
-27.98
-22.00
-15.29
-8.69
-2.84
1.91
5.58
8.36
10.44
11.83
12.38
11.89
10.34
7.98
5.21
2.35
-0.60
-3.96
-8.23
-13.64
-19.92
-26.24
-31.58
-35.19
-36.97
-37.50
-37.66
-38.27
-39.66
-41.79
-44.32
-46.88
-49.07
-50.25
-49.33
-44.63
-34.26
-16.79
8.13
39.36
74.44
110.12
143.11
170.61
190.68
202.12
204.31
197.07
180.66
155.88
124.09
87.07
46.54
3.67
-41.43
-89.76
-142.85
-201.56
-264.78
-328.54
-386.48
-431.47
-458.01
-464.10
-451.76
-425.86
-392.06
-354.76
-316.14
-276.63
-236.00
-194.62
-153.75
-115.29
-80.83
-51.06
-25.62
-3.44
16.62
35.15
52.04
66.54
77.87
85.68
90.38
93.08
95.12
97.54
100.56
103.65
105.75
105.84
103.29
98.20
91.33
83.94
77.41
72.82
70.57
70.29
71.06
71.88
72.11
71.70
71.14
70.91
71.26
71.99
72.71
73.08
73.04
72.65
71.88
70.39
67.60
63.03
56.76
49.57
42.75
37.52
34.42
32.97
31.80
29.32
24.51
17.25
8.14
-2.04
-12.72
-23.46
-33.21
-39.75
-39.74
-29.66
-7.14
27.78
72.62
123.23
175.04
224.02
267.06
301.74
326.30
339.93
343.18
338.14
327.91
315.50
302.64
289.38
274.58
256.97
236.18
213.17
189.74
167.67
148.21
131.97
119.44
111.47
109.21
113.46
123.59
137.03
149.62
157.06
156.75
148.79
135.75
121.07
107.00
93.43
78.09
57.93
30.85
-3.28
-42.65
-84.46
-125.91
-164.71
-199.13
-227.66
-249.20
-263.34
-270.88
-273.67
-274.04
-273.87
-273.95
-273.96
-273.05
-270.46
-265.90
-259.36
-250.89
-240.26
-227.16
-211.53
-193.84
-175.18
-156.87
-139.85
-124.18
-109.11
-93.52
-76.90
-60.02
-45.15
-35.28
-32.79
-38.15
-49.35
-62.44
-72.98
-77.59
-74.93
-65.58
-51.09
-32.92
-11.72
12.63
40.42
71.52
104.88
138.53
169.96
196.65
216.87
230.13
237.53
241.36
244.24
248.16
253.67
259.60
263.58
263.00
255.84
241.21
219.51
192.29
162.13
132.29
105.99
85.50
71.12
60.87
51.02
37.64
18.15
-7.61
-37.65
-68.95
-99.02
-126.75
-152.35
-176.57
-199.70
-221.21
-240.15
-255.78
-268.11
-277.94
-286.43
-294.62
-302.97
-311.29
-318.89
-324.78
-327.96
-327.59
-323.17
-314.67
-302.45
-287.17
-269.51
-250.10
-229.52
-208.49
-187.79
-168.13
-149.79
-132.35
-114.75
-95.70
-74.33
-50.63
-25.52
-0.57
22.58
42.67
59.08
71.83
81.49
88.97
95.33
101.47
107.84
114.16
119.44
122.31
121.44
116.13
106.57
93.92
80.00
66.86
56.32
49.54
46.84
47.70
50.97
55.34
59.76
63.70
67.14
70.23
72.99
75.08
75.90
74.81
71.49
65.94
58.58
50.01
40.89
31.83
23.41
16.14
10.39
6.37
4.05
3.19
3.27
3.59
3.30
1.66
-1.70
-6.56
-12.07
-17.00
-20.10
-20.49
-17.94
-12.78
-5.70
2.43
10.72
18.35
24.55
28.83
31.09
31.75
31.61
31.53
32.09
33.32
34.73
35.62
35.45
34.09
31.85
29.29
26.87
24.73
22.69
20.46
17.83
14.81
11.49
7.93
4.00
-0.52
-5.66
-10.99
-15.55
-18.13
-17.67
-13.77
-6.73
2.54
13.01
23.81
34.34
44.24
53.13
60.51
65.90
69.06
70.09
69.46
67.94
66.32
65.29
65.32
66.57
68.89
71.82
74.60
76.42
76.49
74.31
69.72
62.85
54.08
43.81
32.49
20.58
8.72
-2.23
-11.23
-17.23
-19.54
-18.11
-13.62
-7.34
-0.76
4.84
8.70
10.57
10.55
8.82
5.52
0.85
-4.83
-10.83
-16.26
-20.29
-22.40
-22.62
-21.45
-19.62
-17.83
-16.50
-15.72
-15.34
-15.20
-15.22
-15.47
-16.15
-17.44
-19.46
-22.17
-25.37
-28.69
-31.65
-33.72
-34.47
-33.69
-31.51
-28.46
-25.31
-22.93
-22.03
-22.88
-25.32
-28.82
-32.70
-36.38
-39.47
-41.79
-43.30
-44.05
-44.19
-43.95
-43.63
-43.55
-43.85
-44.42
-44.84
-44.59
-43.25
-40.72
-37.30
-33.56
-30.24
-27.98
-27.19
-27.87
-29.57
-31.43
-32.36
-31.33
-27.72
-21.44
-13.02
-3.36
6.63
16.21
24.97
32.73
39.38
44.77
48.72
51.11
51.99
51.60
50.33
48.52
46.36
43.86
40.84
37.13
32.59
27.30
21.46
15.46
9.69
4.49
0.05
-3.71
-7.09
-10.50
-14.32
-18.66
-23.17
-27.11
-29.54
-29.68
-27.21
-22.31
-15.62
-7.90
0.19
8.21
15.89
22.98
29.16
34.06
37.45
39.34
40.07
40.15
40.08
40.15
40.29
40.28
39.81
38.75
37.23
35.55
34.06
32.96
32.19
31.50
30.53
28.95
26.60
23.42
19.54
15.20
10.85
7.14
4.76
4.31
6.02
9.68
14.70
20.33
25.94
31.14
35.69
39.45
42.21
43.73
43.80
42.42
39.84
36.51
33.04
29.95
27.60
26.13
25.42
25.22
25.24
25.26
25.11
24.68
23.93
22.73
21.02
18.74
15.90
12.61
9.01
5.25
1.53
-1.89
-4.69
-6.51
-7.01
-6.04
-3.69
-0.29
3.69
7.72
11.33
14.14
15.95
16.62
16.13
14.57
12.11
9.05
5.72
2.49
-0.38
-2.81
-4.91
-6.93
-9.07
-11.42
-13.81
-15.91
-17.44
-18.26
-18.57
-18.73
-19.25
-20.56
-22.85
-26.05
-29.79
-33.43
-36.21
-37.44
-36.61
-33.60
-28.66
-22.40
-15.58
-8.95
-3.07
1.79
5.55
8.26
10.05
11.01
11.22
10.80
9.87
8.59
7.15
5.65
4.17
2.73
1.30
-0.12
-1.56
-3.04
-4.67
-6.59
-8.94
-11.88
-15.50
-19.85
-24.81
-30.07
-35.05
-39.00
-41.15
-41.00
-38.45
-33.88
-28.00
-21.58
-15.18
-9.11
-3.44
1.80
6.45
10.20
12.76
13.98
13.99
13.18
11.96
10.67
9.41
8.08
6.51
4.55
2.22
-0.38
-3.12
-5.88
-8.63
-11.37
-14.16
-17.15
-20.51
-24.44
-28.90
-33.59
-37.79
-40.60
-41.18
-39.05
-34.26
-27.30
-18.94
-9.86
-0.56
8.63
17.39
25.28
31.75
36.28
38.68
39.12
38.11
36.25
34.02
31.63
29.11
26.50
23.93
21.55
19.37
17.05
14.15
10.39
5.98
1.60
-1.93
-4.20
-5.52
-6.71
-8.64
-11.59
-15.04
-17.89
-19.13
-18.25
-15.50
-11.53
-6.92
-1.99
3.31
8.98
14.77
20.15
24.39
26.97
27.77
27.08
25.50
23.60
21.75
20.04
18.37
16.57
14.47
12.02
9.25
6.31
3.38
0.62
-1.95
-4.43
-7.06
-10.17
-13.98
-18.55
-23.80
-29.46
-35.15
-40.40
-44.67
-47.54
-48.75
-48.26
-46.24
-42.99
-38.92
-34.48
-30.19
-26.53
-23.95
-22.80
-23.07
-24.48
-26.52
-28.70
-30.72
-32.37
-33.36
-33.11
-30.79
-25.13
-14.87
0.82
22.01
47.91
77.17
108.33
139.66
169.20
195.41
216.98
232.99
242.54
244.75
239.28
227.17
210.58
192.65
177.51
168.21
165.57
166.87
166.51
158.65
140.12
110.82
73.44
33.33
-4.03
-33.29
-50.57
-54.09
-44.07
-22.86
3.12
19.26
10.59
-31.26
-99.95
-177.74
-247.11
-302.23
-343.05
-372.90
-396.29
-410.46
-413.09
-401.19
-373.12
-330.62
-278.61
-223.05
-170.19
-124.71
-86.37
-56.03
-33.27
-16.57
-4.94
1.51
2.54
-1.80
-10.22
-19.67
-26.38
-28.34
-25.27
-19.07
-12.32
-6.33
-0.81
5.95
16.55
32.93
53.82
77.44
100.95
121.65
138.01
149.56
156.30
158.10
154.18
144.06
128.53
109.45
89.45
71.36
57.38
48.46
44.34
43.68
44.84
46.68
48.33
49.20
48.87
47.14
43.98
39.54
34.24
28.60
23.38
19.04
15.69
13.04
10.56
7.68
4.07
-0.30
-5.12
-9.78
-13.73
-16.71
-18.88
-20.80
-23.24
-26.88
-31.98
-38.25
-44.84
-50.61
-54.47
-55.67
-53.99
-49.71
-43.51
-36.24
-28.65
-21.34
-14.59
-8.51
-3.09
1.65
5.66
8.83
11.06
12.34
12.75
12.45
11.70
10.69
9.58
8.46
7.33
6.11
4.73
3.11
1.25
-0.83
-3.08
-5.47
-8.03
-10.87
-14.08
-17.80
-22.10
-26.93
-32.02
-36.87
-40.73
-42.83
-42.54
-39.67
-34.48
-27.67
-20.10
-12.50
-5.40
0.95
6.45
11.00
14.48
16.77
17.81
17.73
16.82
15.49
14.18
13.21
12.69
12.48
12.31
11.88
11.02
9.76
8.22
6.57
4.88
3.09
1.06
-1.32
-4.12
-7.32
-10.95
-15.01
-19.37
-23.72
-27.49
-29.91
-30.35
-28.52
-24.61
-19.24
-13.14
-6.91
-0.89
4.83
10.22
15.14
19.30
22.34
24.00
24.29
23.45
21.92
20.16
18.59
17.40
16.63
16.12
15.67
15.05
14.05
12.55
10.55
8.08
5.28
2.31
-0.59
-3.28
-5.70
-7.99
-10.48
-13.51
-17.25
-21.48
-25.54
-28.52
-29.58
-28.30
-24.78
-19.60
-13.53
-7.26
-1.26
4.26
9.16
13.35
16.72
19.19
20.80
21.66
21.92
21.78
21.41
20.96
20.55
20.20
19.89
19.43
18.63
17.30
15.33
12.81
9.88
6.75
3.56
0.37
-2.88
-6.28
-9.94
-13.96
-18.39
-23.20
-28.22
-33.07
-37.16
-39.80
-40.37
-38.53
-34.33
-28.22
-20.88
-13.05
-5.33
1.86
8.27
13.76
18.28
21.77
24.22
25.67
26.19
25.91
25.09
23.96
22.73
21.48
20.16
18.62
16.74
14.55
12.21
9.97
7.96
6.19
4.52
2.71
0.63
-1.76
-4.41
-7.32
-10.54
-14.22
-18.38
-22.78
-26.85
-29.79
-30.80
-29.44
-25.79
-20.41
-14.17
-7.90
-2.15
2.87
7.25
11.11
14.53
17.39
19.50
20.65
20.76
19.94
18.46
16.69
14.98
13.62
12.69
12.14
11.72
11.17
10.24
8.78
6.84
4.52
2.00
-0.58
-3.15
-5.71
-8.26
-10.86
-13.60
-16.59
-19.90
-23.51
-27.18
-30.36
-32.31
-32.32
-29.95
-25.28
-18.90
-11.73
-4.71
1.47
6.50
10.43
13.49
15.89
17.69
18.84
19.29
19.05
18.32
17.39
16.57
16.02
15.73
15.55
15.24
14.63
13.66
12.38
10.88
9.23
7.41
5.36
2.98
0.23
-2.87
-6.23
-9.79
-13.60
-17.76
-22.37
-27.29
-32.06
-35.86
-37.77
-37.08
-33.59
-27.76
-20.50
-12.88
-5.76
0.41
5.59
9.93
13.59
16.61
18.93
20.45
21.10
20.97
20.22
19.08
17.75
16.42
15.19
14.06
12.96
11.80
10.49
8.96
7.20
5.19
2.90
0.31
-2.57
-5.69
-8.99
-12.43
-16.03
-19.80
-23.73
-27.65
-31.22
-33.87
-35.05
-34.29
-31.48
-26.86
-21.03
-14.73
-8.66
-3.22
1.47
5.49
8.97
11.90
14.15
15.52
15.95
15.60
14.85
14.15
13.78
13.78
13.92
13.81
13.13
11.72
9.70
7.36
5.00
2.81
0.79
-1.25
-3.59
-6.42
-9.81
-13.64
-17.71
-21.78
-25.54
-28.64
-30.53
-30.63
-28.42
-23.70
-16.73
-8.20
0.95
9.84
17.79
24.46
29.75
33.72
36.48
38.20
39.15
39.61
39.92
40.30
40.91
41.75
42.71
43.59
44.14
44.07
43.05
40.83
37.24
32.16
25.52
17.31
7.63
-3.23
-14.76
-26.23
-36.95
-46.42
-54.42
-61.05
-66.44
-70.56
-73.05
-73.28
-70.57
-64.67
-55.93
-45.39
-34.48
-24.60
-16.68
-10.94
-6.93
-3.77
-0.57
3.34
8.12
13.58
19.25
24.54
28.81
31.55
32.42
31.33
28.52
24.48
19.89
15.37
11.34
7.86
4.68
1.33
-2.66
-7.56
-13.31
-19.52
-25.46
-30.19
-32.77
-32.51
-29.20
-23.23
-15.45
-6.97
1.15
8.14
13.54
17.10
18.73
18.43
16.41
13.19
9.56
6.37
4.33
3.78
4.71
6.84
9.82
13.27
16.83
20.16
22.95
25.11
26.76
28.18
29.74
31.59
33.59
35.37
36.50
36.62
35.62
33.58
30.62
26.86
22.43
17.51
12.41
7.49
3.14
-0.41
-3.13
-5.16
-6.71
-8.04
-9.31
-10.68
-12.30
-14.31
-16.73
-19.41
-22.09
-24.40
-26.11
-27.17
-27.75
-28.09
-28.37
-28.56
-28.45
-27.80
-26.62
-25.27
-24.44
-24.89
-27.01
-30.55
-34.61
-37.95
-39.55
-38.98
-36.50
-32.75
-28.34
-23.49
-18.05
-11.79
-4.66
3.00
10.56
17.31
22.72
26.46
28.41
28.60
27.30
25.12
22.97
21.87
22.48
24.79
28.00
30.83
32.01
30.77
26.96
20.87
12.86
3.35
-7.16
-17.83
-27.39
-34.48
-38.14
-38.22
-35.49
-31.16
-26.41
-21.90
-17.71
-13.62
-9.49
-5.46
-1.87
0.90
2.64
3.30
2.98
1.81
-0.05
-2.40
-5.02
-7.65
-10.12
-12.34
-14.32
-16.09
-17.67
-18.99
-20.02
-20.68
-21.01
-21.13
-21.28
-21.78
-22.93
-24.86
-27.43
-30.11
-32.10
-32.47
-30.48
-25.85
-18.83
-10.16
-0.82
8.32
16.61
23.73
29.55
34.06
37.25
39.15
39.92
39.82
39.26
38.59
37.98
37.36
36.48
35.02
32.84
30.01
26.80
23.51
20.30
17.20
14.02
10.48
6.35
1.44
-4.22
-10.39
-16.57
-22.02
-25.93
-27.57
-26.57
-22.95
-17.17
-9.97
-2.15
5.58
12.69
18.83
23.82
27.56
30.00
31.17
31.15
30.13
28.45
26.53
24.79
23.50
22.69
22.12
21.41
20.22
18.42
16.11
13.56
11.03
8.67
6.37
3.88
0.82
-3.16
-8.24
-14.35
-21.07
-27.63
-33.06
-36.43
-37.11
-35.01
-30.56
-24.54
-17.82
-11.09
-4.77
1.00
6.14
10.59
14.21
16.84
18.31
18.66
17.97
16.53
14.67
12.72
11.00
9.68
8.77
8.19
7.74
7.23
6.47
5.40
3.99
2.26
0.21
-2.15
-4.85
-7.95
-11.55
-15.76
-20.70
-26.36
-32.49
-38.54
-43.65
-46.91
-47.58
-45.36
-40.49
-33.63
-25.61
-17.24
-9.12
-1.58
5.24
11.33
16.73
21.47
25.51
28.78
31.20
32.78
33.62
33.91
33.84
33.55
33.03
32.23
31.11
29.72
28.11
26.34
24.31
21.79
18.59
14.66
10.13
5.33
0.55
-4.06
-8.58
-13.29
-18.46
-24.25
-30.48
-36.62
-41.83
-45.18
-45.94
-43.80
-38.98
-32.13
-24.07
-15.52
-6.97
1.32
9.18
16.39
22.63
27.60
31.12
33.22
34.15
34.24
33.86
33.27
32.63
31.94
31.16
30.22
29.09
27.82
26.44
24.99
23.42
21.61
19.42
16.75
13.60
10.08
6.36
2.64
-0.93
-4.31
-7.54
-10.80
-14.32
-18.27
-22.79
-27.77
-32.96
-37.87
-41.90
-44.46
-45.12
-43.69
-40.22
-35.02
-28.49
-21.10
-13.29
-5.43
2.12
9.00
14.85
19.38
22.41
23.97
24.34
23.98
23.35
22.80
22.46
22.20
21.74
20.85
19.47
17.70
15.85
14.20
12.89
11.85
10.82
9.46
7.47
4.79
1.57
-1.87
-5.17
-8.09
-10.55
-12.65
-14.57
-16.53
-18.77
-21.50
-24.85
-28.76
-32.84
-36.38
-38.53
-38.52
-35.97
-31.02
-24.23
-16.41
-8.37
-0.72
6.10
11.85
16.42
19.78
22.02
23.31
23.89
24.04
23.98
23.86
23.74
23.54
23.16
22.56
21.75
20.89
20.14
19.62
19.27
18.87
18.13
16.76
14.62
11.80
8.55
5.26
2.36
0.14
-1.31
-2.25
-3.16
-4.69
-7.40
-11.52
-16.88
-22.84
-28.47
-32.79
-35.07
-35.02
-32.78
-28.84
-23.80
-18.21
-12.45
-6.75
-1.23
3.98
8.69
12.66
15.64
17.43
17.92
17.17
15.45
13.18
10.89
9.04
7.86
7.39
7.46
7.81
8.21
8.40
8.12
7.11
5.21
2.42
-1.02
-4.73
-8.31
-11.54
-14.44
-17.26
-20.36
-24.01
-28.23
-32.81
-37.32
-41.21
-43.89
-44.90
-43.90
-40.81
-35.83
-29.40
-22.15
-14.74
-7.74
-1.49
3.84
8.23
11.69
14.22
15.83
16.59
16.68
16.33
15.78
15.18
14.56
13.87
13.01
11.85
10.29
8.29
5.92
3.34
0.78
-1.49
-3.36
-4.91
-6.41
-8.19
-10.53
-13.55
-17.23
-21.51
-26.30
-31.43
-36.55
-41.03
-44.08
-44.97
-43.33
-39.36
-33.71
-27.21
-20.56
-14.18
-8.17
-2.58
2.52
6.98
10.70
13.70
16.20
18.38
20.27
21.69
22.31
21.91
20.55
18.63
16.70
15.27
14.52
14.31
14.22
13.77
12.68
10.91
8.69
6.32
4.08
2.04
0.13
-1.87
-4.22
-7.16
-10.90
-15.54
-20.99
-26.86
-32.47
-36.93
-39.39
-39.24
-36.36
-31.08
-24.08
-16.19
-8.19
-0.70
5.85
11.21
15.29
18.15
19.97
21.04
21.63
21.98
22.23
22.40
22.43
22.24
21.76
20.99
19.93
18.62
17.09
15.35
13.43
11.27
8.84
6.05
2.86
-0.73
-4.66
-8.83
-13.16
-17.64
-22.33
-27.23
-32.19
-36.83
-40.57
-42.70
-42.63
-40.08
-35.13
-28.27
-20.30
-12.01
-4.11
3.00
9.20
14.52
19.05
22.82
25.77
27.80
28.86
29.01
28.38
27.19
25.67
24.03
22.45
21.09
20.01
19.15
18.36
17.37
15.89
13.73
10.86
7.39
3.56
-0.30
-3.95
-7.27
-10.35
-13.52
-17.16
-21.63
-26.99
-32.90
-38.61
-43.15
-45.57
-45.30
-42.29
-37.06
-30.45
-23.40
-16.70
-10.84
-5.93
-1.81
1.83
5.25
8.59
11.79
14.64
16.91
18.48
19.42
19.92
20.21
20.47
20.70
20.82
20.71
20.29
19.52
18.37
16.80
14.78
12.33
9.54
6.58
3.54
0.46
-2.81
-6.53
-10.92
-16.10
-21.83
-27.56
-32.43
-35.48
-35.87
-33.24
-27.78
-20.28
-11.87
-3.74
3.24
8.65
12.55
15.24
17.12
18.51
19.55
20.27
20.67
20.75
20.52
20.04
19.33
18.45
17.44
16.35
15.18
13.89
12.39
10.59
8.48
6.09
3.51
0.76
-2.17
-5.39
-8.94
-12.84
-17.02
-21.39
-25.78
-30.01
-33.74
-36.50
-37.71
-36.89
-33.86
-28.81
-22.28
-14.95
-7.44
-0.16
6.62
12.71
17.82
21.58
23.73
24.21
23.36
21.82
20.34
19.47
19.38
19.85
20.34
20.35
19.59
18.13
16.28
14.44
12.92
11.81
11.02
10.32
9.43
8.08
6.06
3.25
-0.34
-4.56
-9.00
-13.13
-16.26
-17.70
-16.95
-13.85
-8.69
-2.21
4.62
10.88
15.99
19.79
22.52
24.49
25.86
26.65
26.71
26.02
24.71
23.14
21.68
20.59
19.89
19.40
18.86
18.09
17.06
15.88
14.71
13.68
12.80
11.93
10.86
9.37
7.32
4.66
1.37
-2.54
-7.04
-11.94
-16.83
-21.01
-23.69
-24.26
-22.46
-18.55
-13.16
-7.08
-1.04
4.42
8.95
12.34
14.51
15.51
15.48
14.65
13.29
11.64
9.85
8.04
6.26
4.52
2.82
1.07
-0.85
-3.06
-5.55
-8.21
-10.87
-13.44
-16.03
-18.98
-22.78
-27.82
-34.20
-41.57
-49.22
-56.21
-61.66
-64.90
-65.54
-63.50
-58.91
-52.13
-43.66
-34.20
-24.48
-15.21
-6.90
0.14
5.83
10.21
13.38
15.41
16.40
16.51
15.95
15.09
14.25
13.64
13.18
12.47
10.93
8.06
3.71
-1.92
-8.42
-15.39
-22.66
-30.19
-37.82
-45.01
-50.77
-53.90
-53.47
-49.13
-41.35
-31.11
-19.53
-7.61
3.98
14.76
24.43
32.82
39.99
46.30
52.19
57.91
63.17
67.16
68.83
67.41
62.82
55.78
47.47
39.00
31.05
23.76
16.97
10.54
4.63
-0.48
-4.60
-7.84
-10.67
-13.62
-17.02
-20.85
-24.88
-28.84
-32.64
-36.31
-39.77
-42.61
-44.02
-43.09
-39.26
-32.76
-24.58
-16.12
-8.59
-2.60
1.96
5.55
8.52
10.87
12.20
12.09
10.50
7.99
5.61
4.52
5.57
8.94
14.13
20.24
26.27
31.47
35.50
38.35
40.27
41.65
42.95
44.71
47.36
51.08
55.58
60.15
63.90
66.15
66.77
66.24
65.36
64.72
64.37
63.64
61.49
57.05
50.05
40.98
30.85
20.77
11.42
2.89
-5.29
-13.71
-22.67
-31.79
-40.08
-46.29
-49.55
-49.75
-47.66
-44.57
-41.75
-39.95
-39.29
-39.39
-39.80
-40.31
-40.96
-41.92
-43.29
-44.98
-46.82
-48.65
-50.50
-52.46
-54.56
-56.55
-57.90
-57.92
-55.97
-51.65
-44.91
-36.10
-25.83
-14.90
-4.23
5.33
13.13
18.82
22.52
24.69
26.03
27.16
28.43
29.85
31.09
31.75
31.54
30.37
28.38
25.76
22.68
19.21
15.32
10.98
6.13
0.74
-5.20
-11.67
-18.51
-25.35
-31.61
-36.55
-39.46
-39.88
-37.74
-33.38
-27.52
-20.96
-14.37
-8.18
-2.51
2.64
7.21
10.90
13.17
13.42
11.39
7.40
2.40
-2.17
-4.78
-4.23
0.07
7.99
18.80
31.47
44.95
58.36
71.09
82.67
92.64
100.56
106.02
108.75
108.73
106.07
100.91
93.43
83.86
72.68
60.74
49.19
39.27
31.92
27.55
25.96
26.54
28.54
31.25
34.09
36.58
38.18
38.36
36.55
32.38
25.71
16.82
6.41
-4.47
-14.63
-22.98
-28.77
-31.92
-33.00
-33.28
-34.27
-37.29
-42.84
-50.28
-57.95
-63.77
-66.09
-64.33
-59.01
-51.35
-42.48
-32.96
-22.79
-11.79
-0.00
12.26
24.77
37.76
52.03
68.44
87.21
107.62
128.47
148.90
169.15
190.37
213.43
237.63
260.38
278.11
288.25
290.77
288.26
284.34
281.47
279.37
275.33
265.85
248.72
224.13
194.35
162.29
130.05
98.30
66.68
34.63
2.06
-30.54
-62.66
-94.26
-125.91
-158.41
-192.26
-227.29
-262.72
-297.59
-331.15
-362.82
-391.74
-416.32
-434.04
-442.14
-438.69
-423.56
-398.70
-367.36
-332.76
-296.75
-259.52
-220.30
-178.83
-136.57
-96.79
-63.59
-40.16
-27.37
-23.49
-25.05
-28.47
-31.32
-32.84
-33.44
-33.87
-34.45
-35.01
-35.21
-35.04
-34.96
-35.71
-37.89
-41.59
-46.31
-51.04
-54.60
-55.92
-54.35
-49.79
-42.76
-34.29
-25.62
-17.81
-11.52
-6.78
-3.17
-0.06
3.03
6.23
9.31
11.85
13.59
14.57
15.19
15.98
17.29
19.13
21.13
22.79
23.71
23.82
23.37
22.77
22.37
22.29
22.33
22.13
21.21
19.15
15.70
10.84
4.81
-1.85
-8.37
-13.81
-17.23
-17.88
-15.35
-9.72
-1.54
8.27
18.66
28.67
37.64
45.17
51.07
55.29
57.88
58.98
58.97
58.40
57.91
57.97
58.76
60.03
61.27
61.86
61.36
59.53
56.35
51.93
46.40
39.90
32.60
24.76
16.72
8.83
1.38
-5.55
-12.12
-18.67
-25.52
-32.72
-39.89
-46.22
-50.65
-52.26
-50.59
-45.85
-38.80
-30.54
-22.08
-14.18
-7.21
-1.26
3.71
7.80
11.06
13.59
15.48
16.87
17.80
18.29
18.29
17.80
16.90
15.79
14.65
13.57
12.50
11.27
9.72
7.77
5.51
3.16
0.90
-1.24
-3.45
-6.08
-9.50
-13.92
-19.29
-25.23
-31.14
-36.21
-39.61
-40.65
-38.93
-34.50
-27.87
-19.94
-11.74
-4.18
2.21
7.32
11.33
14.55
17.18
19.22
20.54
20.93
20.39
19.10
17.40
15.66
14.09
12.72
11.43
10.09
8.60
6.92
5.11
3.14
1.00
-1.36
-3.88
-6.48
-9.04
-11.55
-14.19
-17.24
-20.98
-25.48
-30.41
-35.05
-38.39
-39.48
-37.71
-32.98
-25.72
-16.69
-6.72
3.53
13.64
23.37
32.49
40.69
47.64
53.05
56.82
59.04
59.96
59.90
59.19
58.12
56.94
55.80
54.78
53.78
52.61
51.05
48.94
46.18
42.81
38.93
34.65
30.08
25.28
20.26
14.88
8.93
2.16
-5.60
-14.23
-23.21
-31.63
-38.39
-42.44
-43.13
-40.37
-34.65
-26.95
-18.44
-10.24
-3.15
2.38
6.28
8.71
9.93
10.21
9.80
8.93
7.83
6.72
5.80
5.21
4.99
5.02
5.07
4.89
4.29
3.19
1.67
-0.10
-1.97
-3.91
-5.97
-8.27
-10.94
-14.03
-17.56
-21.50
-25.74
-30.08
-34.04
-36.99
-38.18
-37.02
-33.29
-27.26
-19.61
-11.23
-2.98
4.57
11.13
16.64
21.08
24.36
26.34
26.87
25.92
23.67
20.53
17.03
13.67
10.79
8.47
6.58
4.82
2.89
0.61
-2.01
-4.79
-7.49
-9.90
-11.99
-13.87
-15.79
-18.04
-20.93
-24.63
-29.17
-34.31
-39.52
-44.02
-46.93
-47.56
-45.65
-41.49
-35.79
-29.45
-23.27
-17.76
-13.10
-9.33
-6.51
-4.78
-4.35
-5.32
-7.57
-10.73
-14.22
-17.42
-19.87
-21.34
-21.86
-21.60
-20.85
-19.94
-19.20
-18.89
-19.13
-19.80
-20.56
-21.01
-20.96
-20.59
-20.43
-21.10
-22.96
-25.79
-28.84
-31.01
-31.27
-28.97
-24.01
-16.75
-7.86
1.87
11.63
20.71
28.54
34.80
39.40
42.47
44.25
44.97
44.80
43.92
42.48
40.67
38.72
36.79
34.91
33.04
31.10
29.09
27.10
25.28
23.70
22.32
20.90
19.14
16.73
13.45
9.18
3.84
-2.49
-9.50
-16.49
-22.40
-25.92
-25.92
-21.89
-14.15
-3.91
7.13
17.35
25.60
31.48
35.20
37.30
38.31
38.59
38.46
38.27
38.54
39.79
42.33
46.00
50.20
54.03
56.64
57.54
56.63
54.22
50.82
46.91
42.85
38.87
35.17
31.87
29.08
26.75
24.86
23.33
22.14
21.42
21.50
22.91
26.12
31.21
37.52
43.87
48.74
50.65
48.78
43.52
36.21
28.62
22.26
17.38
13.72
10.52
6.81
1.89
-4.01
-10.18
-15.71
-19.99
-23.89
-28.01
-33.04
-39.74
-48.46
-58.28
-67.55
-74.27
-76.83
-76.09
-72.65
-67.32
-61.12
-54.44
-46.37
-35.57
-20.74
-1.29
20.84
45.26
72.84
104.87
134.78
154.84
157.73
140.51
117.36
94.14
75.91
68.43
71.95
86.63
109.40
133.35
150.45
154.71
142.77
117.61
85.40
51.85
20.64
-6.52
-28.97
-45.72
-55.57
-59.51
-59.11
-57.18
-57.33
-61.78
-70.19
-79.76
-86.22
-85.92
-78.24
-64.36
-47.12
-30.05
-15.76
-5.29
1.82
7.02
11.74
16.27
20.47
23.74
25.36
24.81
21.82
16.27
8.27
-1.84
-13.50
-25.67
-37.18
-47.15
-55.30
-62.01
-68.00
-73.76
-79.29
-84.13
-87.86
-90.47
-92.52
-94.85
-98.05
-101.98
-105.60
-107.44
-106.13
-100.98
-92.17
-80.59
-67.39
-53.63
-40.01
-26.96
-14.79
-3.78
5.71
13.46
19.49
24.13
27.91
31.33
34.65
37.81
40.51
42.45
43.54
43.98
44.18
44.47
44.98
45.52
45.67
45.01
43.26
40.33
36.21
30.89
24.28
16.31
7.11
-2.87
-12.87
-22.00
-29.49
-34.84
-37.90
-38.71
-37.48
-34.45
-30.06
-25.01
-20.23
-16.71
-15.22
-15.96
-18.53
-22.07
-25.58
-28.25
-29.63
-29.70
-28.66
-26.86
-24.64
-22.31
-20.17
-18.44
-17.23
-16.46
-15.96
-15.47
-14.82
-14.02
-13.26
-12.87
-13.22
-14.64
-17.30
-21.18
-25.93
-30.80
-34.72
-36.46
-35.01
-29.91
-21.45
-10.63
1.17
12.67
22.96
31.70
38.93
44.90
49.79
53.65
56.47
58.24
59.03
59.00
58.38
57.37
56.14
54.78
53.33
51.77
50.01
47.94
45.47
42.57
39.28
35.70
31.88
27.80
23.30
18.14
12.13
5.16
-2.62
-10.80
-18.67
-25.40
-30.19
-32.47
-32.15
-29.54
-25.32
-20.32
-15.27
-10.67
-6.77
-3.61
-1.24
0.26
0.74
0.06
-1.72
-4.31
-7.24
-9.96
-12.06
-13.38
-14.07
-14.44
-14.84
-15.54
-16.60
-17.93
-19.36
-20.71
-21.89
-22.92
-23.90
-25.04
-26.58
-28.71
-31.54
-34.94
-38.50
-41.54
-43.22
-42.80
-39.89
-34.60
-27.51
-19.48
-11.39
-3.92
2.54
7.85
11.98
14.97
16.78
17.47
17.14
16.03
14.50
12.91
11.60
10.74
10.31
10.11
9.81
9.14
7.96
6.27
4.26
2.10
-0.13
-2.50
-5.17
-8.30
-11.94
-16.02
-20.40
-24.88
-29.17
-32.85
-35.36
-36.11
-34.65
-30.92
-25.34
-18.67
-11.81
-5.48
-0.11
4.10
7.16
9.08
9.90
9.73
8.77
7.37
5.85
4.46
3.25
2.13
0.95
-0.44
-2.07
-3.85
-5.55
-6.87
-7.50
-7.31
-6.36
-4.99
-3.74
-3.22
-3.83
-5.69
-8.46
-11.48
-13.94
-15.05
-14.26
-11.37
-6.55
-0.27
6.80
13.85
20.10
24.97
28.23
30.10
31.18
32.20
33.73
35.89
38.31
40.34
41.36
41.10
39.64
37.30
34.33
30.84
26.77
22.04
16.82
11.44
6.38
1.96
-1.82
-5.32
-9.13
-13.79
-19.57
-26.18
-32.87
-38.61
-42.39
-43.57
-42.01
-38.05
-32.34
-25.58
-18.39
-11.26
-4.57
1.29
5.93
8.98
10.25
9.77
7.89
5.19
2.37
0.06
-1.33
-1.76
-1.53
-1.16
-1.13
-1.77
-3.09
-4.91
-6.92
-8.90
-10.83
-12.86
-15.26
-18.28
-22.09
-26.58
-31.44
-36.01
-39.52
-41.15
-40.35
-37.03
-31.59
-24.82
-17.61
-10.68
-4.41
1.09
5.87
9.84
12.82
14.54
14.80
13.70
11.62
9.11
6.68
4.58
2.72
0.78
-1.56
-4.44
-7.67
-10.88
-13.78
-16.37
-18.95
-22.09
-26.22
-31.56
-37.94
-44.99
-52.31
-59.53
-66.28
-72.15
-76.64
-79.38
-80.27
-79.62
-77.84
-75.10
-71.05
-64.90
-55.85
-43.59
-28.49
-11.30
7.29
27.02
48.00
70.36
93.89
118.04
142.18
165.93
189.27
212.26
234.68
255.95
275.41
292.65
307.60
320.17
329.75
335.02
334.25
326.12
310.42
288.20
261.37
231.89
201.14
169.74
137.75
105.14
72.06
38.98
6.74
-23.56
-50.67
-73.59
-91.86
-105.90
-116.80
-125.86
-133.96
-141.22
-147.07
-150.78
-152.05
-151.29
-149.48
-147.65
-146.35
-145.48
-144.44
-142.52
-139.32
-134.93
-129.85
-124.79
-120.34
-116.79
-114.10
-112.07
-110.53
-109.41
-108.73
-108.30
-107.58
-105.62
-101.35
-94.03
-83.61
-70.85
-57.07
-43.70
-31.80
-21.77
-13.47
-6.48
-0.39
4.90
9.31
12.65
14.82
15.90
16.12
15.79
15.20
14.57
14.01
13.55
13.11
12.54
11.70
10.51
9.00
7.35
5.72
4.21
2.80
1.27
-0.64
-3.19
-6.52
-10.53
-14.90
-19.02
-22.11
-23.38
-22.23
-18.54
-12.65
-5.34
2.40
9.75
16.16
21.40
25.51
28.57
30.61
31.58
31.46
30.37
28.57
26.45
24.39
22.62
21.17
19.87
18.54
17.02
15.32
13.54
11.81
10.18
8.58
6.85
4.82
2.35
-0.63
-4.11
-8.08
-12.50
-17.32
-22.35
-27.20
-31.30
-33.92
-34.42
-32.38
-27.85
-21.30
-13.56
-5.59
1.79
7.98
12.65
15.66
17.02
16.88
15.48
13.22
10.57
8.05
6.02
4.70
4.02
3.76
3.56
3.05
2.01
0.34
-1.88
-4.45
-7.15
-9.82
-12.43
-15.03
-17.78
-20.83
-24.31
-28.32
-32.89
-37.94
-43.19
-48.13
-51.98
-53.83
-52.98
-49.12
-42.58
-34.19
-25.00
-16.00
-7.83
-0.72
5.40
10.67
15.12
18.70
21.24
22.62
22.87
22.13
20.69
18.86
16.94
15.15
13.60
12.27
11.07
9.84
8.44
6.80
4.89
2.80
0.61
-1.59
-3.81
-6.13
-8.73
-11.80
-15.55
-20.11
-25.48
-31.46
-37.52
-42.82
-46.35
-47.20
-44.88
-39.52
-31.91
-23.20
-14.50
-6.64
0.07
5.71
10.52
14.70
18.36
21.51
24.20
26.58
28.85
31.19
33.75
36.58
39.70
43.07
46.59
50.13
53.44
56.22
58.19
59.12
58.92
57.62
55.35
52.26
48.47
44.09
39.12
33.51
27.16
19.98
11.91
3.10
-6.08
-14.98
-22.74
-28.46
-31.41
-31.27
-28.22
-22.92
-16.30
-9.32
-2.73
3.02
7.73
11.41
14.14
16.06
17.30
18.02
18.33
18.30
17.93
17.16
16.01
14.55
12.93
11.33
9.86
8.50
7.15
5.61
3.72
1.38
-1.37
-4.40
-7.51
-10.49
-13.21
-15.69
-18.12
-20.75
-23.91
-27.86
-32.59
-37.83
-42.91
-46.94
-49.00
-48.37
-44.84
-38.73
-30.84
-22.17
-13.66
-5.97
0.55
5.80
9.77
12.48
13.95
14.25
13.58
12.25
10.59
8.83
7.08
5.37
3.76
2.39
1.46
1.12
1.28
1.64
1.67
0.84
-1.21
-4.52
-8.85
-13.75
-18.78
-23.64
-28.32
-33.08
-38.32
-44.43
-51.56
-59.47
-67.47
-74.55
-79.69
-82.11
-81.64
-78.69
-74.07
-68.71
-63.31
-58.25
-53.66
-49.75
-47.03
-46.35
-48.63
-54.40
-63.41
-74.51
-86.00
-96.23
-104.19
-109.88
-114.10
-117.87
-121.73
-125.27
-127.27
-126.31
-121.34
-112.41
-100.75
-88.55
-78.43
-72.87
-73.52
-80.55
-91.87
-102.77
-106.44
-95.65
-65.51
-16.13
46.27
110.75
165.23
200.75
214.22
208.58
190.34
166.22
140.71
115.90
92.93
73.85
62.09
61.20
72.62
94.24
120.79
145.75
164.14
174.12
176.81
174.86
170.66
165.29
158.80
151.02
142.26
133.34
124.82
116.35
106.49
93.46
76.03
54.39
30.28
6.40
-14.57
-30.86
-42.20
-49.81
-55.89
-62.81
-72.13
-84.08
-97.38
-109.73
-118.70
-122.48
-120.39
-112.97
-101.69
-88.69
-76.51
-67.58
-63.60
-64.70
-69.10
-73.57
-74.61
-70.00
-59.83
-46.30
-32.71
-21.82
-14.81
-11.15
-9.31
-7.83
-5.96
-3.78
-1.70
-0.12
0.83
1.22
1.14
0.55
-0.63
-2.52
-5.20
-8.60
-12.59
-16.97
-21.57
-26.29
-31.05
-35.70
-39.81
-42.67
-43.32
-40.88
-34.92
-25.70
-14.20
-1.79
10.11
20.47
28.78
35.02
39.47
42.49
44.42
45.51
45.99
46.07
46.00
45.91
45.89
45.88
45.73
45.31
44.48
43.15
41.30
38.90
35.95
32.50
28.65
24.55
20.36
16.21
12.10
7.94
3.50
-1.44
-7.02
-13.06
-19.03
-24.01
-26.95
-26.97
-23.66
-17.29
-8.76
0.69
9.81
17.72
23.98
28.60
31.86
34.07
35.50
36.32
36.66
36.66
36.45
36.19
35.97
35.76
35.47
34.91
33.90
32.40
30.47
28.28
26.05
23.88
21.75
19.52
16.97
13.96
10.43
6.44
2.02
-2.77
-7.88
-13.10
-17.96
-21.73
-23.52
-22.64
-18.85
-12.52
-4.53
4.00
12.04
18.97
24.58
28.94
32.18
34.40
35.62
35.89
35.39
34.44
33.47
32.82
32.62
32.78
33.03
33.10
32.76
31.93
30.64
28.99
27.08
25.02
22.89
20.76
18.64
16.49
14.21
11.62
8.50
4.68
0.15
-4.87
-9.86
-14.06
-16.64
-16.96
-14.77
-10.33
-4.37
2.17
8.36
13.58
17.53
20.20
21.70
22.13
21.57
20.06
17.77
15.05
12.39
10.26
8.96
8.49
8.52
8.51
8.00
6.70
4.62
2.02
-0.80
-3.61
-6.35
-9.11
-12.07
-15.39
-19.22
-23.61
-28.51
-33.63
-38.43
-42.16
-43.97
-43.21
-39.60
-33.43
-25.46
-16.69
-8.11
-0.42
6.00
11.07
14.87
17.53
19.17
19.90
19.90
19.43
18.75
18.07
17.50
16.96
16.26
15.21
13.67
11.66
9.32
6.93
4.70
2.74
0.95
-0.97
-3.42
-6.82
-11.39
-17.08
-23.48
-29.85
-35.25
-38.73
-39.56
-37.49
-32.75
-26.01
-18.18
-10.08
-2.32
4.80
11.16
16.75
21.46
25.18
27.79
29.29
29.75
29.39
28.48
27.27
25.97
24.70
23.50
22.29
20.96
19.43
17.65
15.67
13.50
11.13
8.45
5.27
1.41
-3.23
-8.64
-14.67
-21.05
-27.34
-32.91
-37.01
-38.88
-38.00
-34.31
-28.20
-20.46
-12.02
-3.63
4.18
11.17
17.21
22.22
26.11
28.82
30.41
31.04
30.93
30.24
29.14
27.70
26.02
24.19
22.33
20.48
18.64
16.74
14.66
12.33
9.70
6.80
3.70
0.44
-2.97
-6.57
-10.46
-14.75
-19.56
-24.85
-30.46
-35.93
-40.60
-43.68
-44.44
-42.45
-37.73
-30.78
-22.38
-13.45
-4.72
3.30
10.35
16.28
21.03
24.55
26.86
28.10
28.48
28.33
27.90
27.37
26.74
25.91
24.83
23.55
22.21
20.97
19.84
18.67
17.19
15.11
12.30
8.83
4.93
0.85
-3.22
-7.18
-11.04
-14.85
-18.73
-22.85
-27.42
-32.56
-38.17
-43.76
-48.49
-51.35
-51.46
-48.43
-42.48
-34.35
-25.10
-15.69
-6.81
1.20
8.24
14.31
19.40
23.46
26.47
28.48
29.62
30.08
30.03
29.59
28.82
27.76
26.49
25.10
23.69
22.34
21.05
19.74
18.29
16.53
14.25
11.31
7.63
3.24
-1.65
-6.70
-11.52
-15.79
-19.38
-22.38
-25.06
-27.78
-30.81
-34.31
-38.19
-42.14
-45.58
-47.85
-48.25
-46.30
-41.85
-35.09
-26.51
-16.73
-6.39
3.91
13.62
22.15
28.94
33.57
35.91
36.25
35.24
33.72
32.42
31.79
31.89
32.48
33.16
33.48
33.18
32.10
30.29
27.94
25.31
22.67
20.19
17.90
15.66
13.26
10.46
7.20
3.50
-0.45
-4.43
-8.27
-11.94
-15.53
-19.29
-23.46
-28.21
-33.54
-39.15
-44.51
-48.88
-51.51
-51.76
-49.31
-44.25
-37.03
-28.40
-19.19
-10.13
-1.75
5.72
12.21
17.73
22.29
25.83
28.32
29.79
30.47
30.66
30.66
30.65
30.59
30.32
29.65
28.47
26.85
24.97
23.03
21.15
19.37
17.60
15.76
13.76
11.51
8.98
6.16
3.12
-0.01
-3.07
-5.92
-8.50
-10.90
-13.29
-15.93
-19.11
-22.99
-27.55
-32.51
-37.32
-41.29
-43.66
-43.87
-41.64
-37.16
-30.96
-23.74
-16.21
-8.88
-1.97
4.41
10.23
15.31
19.42
22.30
23.87
24.32
24.04
23.52
23.13
23.05
23.24
23.57
23.93
24.26
24.50
24.53
24.20
23.29
21.72
19.52
16.84
13.91
10.82
7.59
4.11
0.31
-3.74
-7.84
-11.68
-15.08
-18.03
-20.84
-23.94
-27.77
-32.54
-38.02
-43.59
-48.36
-51.41
-52.06
-49.98
-45.31
-38.58
-30.53
-22.03
-13.85
-6.51
-0.30
4.74
8.74
11.92
14.48
16.57
18.29
19.72
20.89
21.83
22.57
23.07
23.29
23.19
22.78
22.14
21.41
20.71
20.03
19.27
18.18
16.55
14.22
11.26
7.89
4.44
1.19
-1.67
-4.16
-6.42
-8.70
-11.27
-14.34
-18.05
-22.38
-27.15
-31.90
-35.96
-38.53
-38.95
-36.86
-32.39
-26.11
-18.91
-11.62
-4.89
1.00
6.00
10.18
13.64
16.37
18.35
19.60
20.18
20.27
20.03
19.64
19.20
18.75
18.26
17.69
17.00
16.26
15.54
14.95
14.51
14.10
13.49
12.37
10.52
7.90
4.65
1.04
-2.66
-6.26
-9.74
-13.17
-16.72
-20.51
-24.65
-29.09
-33.64
-37.85
-41.10
-42.69
-42.06
-39.00
-33.76
-26.99
-19.59
-12.35
-5.85
-0.29
4.36
8.21
11.37
13.81
15.47
16.33
16.51
16.19
15.63
15.02
14.43
13.84
13.23
12.65
12.16
11.78
11.39
10.78
9.70
7.98
5.67
2.93
-0.01
-2.98
-5.95
-9.01
-12.28
-15.92
-20.03
-24.65
-29.73
-35.04
-40.14
-44.41
-47.14
-47.75
-45.94
-41.88
-36.03
-29.09
-21.71
-14.42
-7.51
-1.17
4.48
9.32
13.24
16.15
18.03
18.96
19.00
18.28
16.98
15.32
13.59
12.05
10.82
9.87
9.04
8.13
6.99
5.52
3.71
1.50
-1.14
-4.20
-7.58
-11.05
-14.41
-17.64
-20.93
-24.67
-29.25
-34.78
-40.88
-46.69
-51.15
-53.26
-52.49
-48.83
-42.77
-35.08
-26.60
-18.05
-9.95
-2.67
3.57
8.64
12.46
15.05
16.41
16.61
15.75
14.03
11.77
9.39
7.28
5.80
5.11
5.21
5.88
6.87
7.88
8.69
9.21
9.44
9.43
9.21
8.73
7.87
6.43
4.15
0.85
-3.57
-8.96
-14.81
-20.31
-24.45
-26.30
-25.26
-21.29
-14.92
-7.07
1.20
8.96
15.60
20.87
24.77
27.52
29.37
30.52
31.12
31.21
30.77
29.80
28.33
26.48
24.41
22.27
20.17
18.14
16.16
14.17
12.16
10.12
8.10
6.15
4.29
2.55
0.88
-0.78
-2.50
-4.42
-6.67
-9.42
-12.75
-16.56
-20.41
-23.54
-25.02
-24.01
-20.11
-13.56
-5.17
3.95
12.79
20.75
27.69
33.74
39.12
43.90
47.99
51.26
53.65
55.22
56.14
56.64
56.95
57.35
58.18
59.75
62.27
65.73
69.88
74.32
78.72
82.90
86.92
90.97
95.29
100.01
105.16
110.53
115.71
120.09
123.06
124.18
123.43
121.13
117.80
113.72
108.65
101.83
92.27
79.32
63.04
44.24
24.22
4.16
-15.11
-33.32
-50.37
-66.10
-80.01
-91.27
-98.89
-101.99
-100.09
-93.31
-82.66
-70.18
-58.95
-52.50
-53.96
-64.92
-84.72
-110.53
-138.17
-163.42
-183.23
-196.37
-203.30
-205.41
-204.25
-200.81
-195.49
-188.27
-179.22
-168.70
-157.41
-146.06
-135.01
-124.09
-112.67
-100.10
-86.24
-71.71
-57.71
-45.50
-35.88
-28.80
-23.60
-19.34
-15.32
-11.39
-7.82
-5.11
-3.58
-3.22
-3.67
-4.36
-4.73
-4.46
-3.56
-2.32
-1.22
-0.73
-1.10
-2.33
-4.23
-6.57
-9.21
-12.14
-15.32
-18.57
-21.42
-23.19
-23.16
-20.87
-16.26
-9.75
-2.08
5.92
13.50
20.18
25.76
30.21
33.66
36.21
37.91
38.81
38.96
38.51
37.64
36.56
35.39
34.14
32.70
30.98
28.95
26.69
24.34
22.06
19.88
17.72
15.40
12.65
9.21
4.93
-0.27
-6.28
-12.75
-19.08
-24.45
-27.99
-28.99
-27.15
-22.69
-16.21
-8.53
-0.41
7.56
15.00
21.56
26.93
30.81
33.01
33.53
32.55
30.38
27.22
23.18
18.29
12.65
6.50
0.26
-5.68
-11.07
-15.97
-20.65
-25.48
-30.72
-36.47
-42.57
-48.65
-54.24
-58.89
-62.36
-64.54
-65.46
-65.05
-63.05
-58.98
-52.32
-42.79
-30.45
-15.69
0.93
18.83
37.43
56.14
74.23
90.90
105.47
117.61
127.37
135.02
140.82
144.79
146.86
147.05
145.67
143.23
140.28
137.06
133.39
128.76
122.62
114.61
104.65
92.92
79.65
65.09
49.52
33.27
16.75
0.37
-15.60
-31.07
-46.10
-60.82
-75.28
-89.44
-103.17
-116.34
-128.75
-140.13
-150.07
-158.02
-163.44
-165.96
-165.49
-162.32
-156.99
-150.10
-142.15
-133.40
-123.77
-112.95
-100.57
-86.38
-70.43
-53.03
-34.54
-15.24
4.70
24.91
44.54
62.35
77.13
88.39
96.69
103.45
110.10
117.28
124.49
130.54
134.44
136.01
135.94
135.13
133.92
131.89
128.28
122.75
115.99
109.69
105.79
105.64
109.41
116.19
124.40
132.36
138.79
142.86
144.13
142.43
137.85
130.72
121.38
109.99
96.35
79.98
60.52
38.13
13.81
-10.81
-34.05
-54.65
-72.03
-86.11
-96.82
-103.94
-107.22
-106.83
-103.62
-99.11
-94.91
-92.04
-90.57
-89.61
-87.93
-84.60
-79.51
-73.47
-67.93
-64.46
-64.15
-67.33
-73.31
-80.52
-86.74
-89.71
-87.68
-80.19
-68.14
-53.61
-39.01
-26.06
-15.23
-5.72
3.87
14.57
26.41
38.42
49.23
57.72
63.56
67.12
69.02
69.73
69.43
68.14
65.97
63.24
60.41
57.83
55.60
53.46
50.99
47.82
43.82
39.13
34.12
29.19
24.69
20.74
17.26
13.94
10.36
6.15
1.10
-4.66
-10.61
-15.95
-19.72
-21.04
-19.32
-14.40
-6.54
3.63
15.32
27.73
40.14
52.03
63.05
73.06
82.12
90.56
99.00
108.27
119.24
132.58
148.50
166.52
185.48
203.69
219.29
230.68
236.84
237.43
232.69
223.17
209.44
191.91
170.71
145.88
117.45
85.64
50.92
14.03
-24.00
-61.84
-97.89
-130.50
-158.19
-179.89
-195.16
-204.09
-207.22
-205.37
-199.51
-190.73
-180.23
-169.26
-158.95
-150.11
-143.15
-138.10
-134.79
-132.87
-131.86
-131.09
-129.78
-127.18
-122.85
-116.62
-108.52
-98.47
-86.21
-71.47
-54.12
-34.48
-13.29
8.42
29.55
48.95
65.44
77.76
84.82
86.13
82.07
73.89
63.21
51.34
38.84
25.51
10.99
-4.65
-20.56
-35.19
-46.91
-54.57
-57.87
-57.36
-54.10
-49.30
-43.96
-38.76
-34.08
-30.17
-27.18
-25.20
-24.16
-23.76
-23.50
-22.74
-20.97
-18.06
-14.34
-10.61
-7.86
-6.97
-8.55
-12.83
-19.73
-29.00
-40.27
-53.00
-66.52
-79.99
-92.56
-103.51
-112.51
-119.55
-124.97
-129.25
-132.86
-136.16
-139.37
-142.49
-145.31
-147.32
-147.89
-146.32
-142.13
-135.16
-125.68
-114.28
-101.70
-88.71
-75.97
-63.95
-52.99
-43.26
-34.81
-27.66
-21.78
-17.16
-13.76
-11.39
-9.75
-8.43
-7.00
-5.18
-2.91
-0.27
2.56
5.47
8.45
11.57
14.85
18.11
20.94
22.81
23.31
22.27
19.84
16.40
12.36
7.98
3.39
-1.20
-5.36
-8.35
-9.28
-7.47
-2.76
4.40
13.01
21.90
30.10
37.01
42.55
46.96
50.66
54.19
58.10
63.06
69.67
78.16
88.05
98.07
106.26
110.62
109.79
103.61
93.20
80.47
67.46
55.65
45.66
37.45
30.70
25.19
20.90
17.89
15.94
14.53
12.87
10.38
7.05
3.71
1.90
3.30
9.02
19.17
32.79
48.20
63.47
76.93
87.35
94.05
96.85
96.14
92.74
87.85
82.63
78.00
74.30
71.40
68.90
66.59
64.59
63.46
63.87
66.29
70.74
76.70
83.22
89.27
94.01
97.08
98.70
99.49
100.21
101.35
102.76
103.59
102.54
98.29
90.06
77.92
62.75
45.95
28.92
12.68
-2.32
-16.07
-28.76
-40.32
-50.15
-57.21
-60.31
-58.68
-52.41
-42.50
-30.50
-17.80
-4.98
8.35
23.22
40.51
60.31
81.66
102.88
122.16
138.17
150.21
158.06
161.57
160.39
154.01
142.21
125.52
105.39
84.02
63.61
45.77
31.13
19.53
10.42
3.41
-1.49
-4.00
-3.78
-0.84
4.41
11.16
18.45
25.42
31.47
36.39
40.31
43.62
46.68
49.68
52.54
54.99
56.58
56.78
54.97
50.55
43.15
32.86
20.45
7.20
-5.54
-17.01
-27.51
-38.40
-51.50
-68.16
-88.40
-110.67
-132.30
-150.59
-163.84
-171.80
-175.44
-176.18
-175.02
-172.26
-167.69
-161.28
-153.65
-146.12
-140.18
-136.83
-136.14
-137.29
-139.03
-140.28
-140.52
-139.77
-138.39
-136.72
-134.87
-132.69
-129.90
-126.30
-121.85
-116.64
-110.96
-105.11
-99.39
-94.04
-89.16
-84.74
-80.74
-77.18
-74.13
-71.75
-70.04
-68.76
-67.36
-65.16
-61.61
-56.51
-50.09
-42.84
-35.19
-27.40
-19.44
-11.14
-2.40
6.68
15.76
24.39
32.08
38.49
43.42
46.95
49.34
50.99
52.24
53.21
53.71
53.28
51.48
48.03
42.93
36.42
28.69
19.84
9.83
-1.34
-13.49
-26.20
-38.92
-51.07
-62.10
-71.50
-78.69
-83.09
-84.22
-81.94
-76.57
-68.87
-59.83
-50.37
-41.17
-32.58
-24.70
-17.49
-10.88
-4.83
0.68
5.61
9.91
13.46
16.20
18.13
19.37
20.13
20.68
21.25
21.95
22.80
23.64
24.26
24.37
23.71
22.10
19.54
16.12
12.07
7.60
2.88
-2.02
-7.11
-12.32
-17.50
-22.30
-26.25
-28.83
-29.58
-28.27
-24.93
-19.91
-13.78
-7.23
-0.93
4.64
9.25
12.86
15.61
17.66
19.12
20.00
20.30
20.07
19.44
18.65
17.93
17.46
17.28
17.30
17.33
17.20
16.74
15.81
14.34
12.31
9.77
6.94
4.06
1.39
-1.01
-3.25
-5.59
-8.34
-11.68
-15.66
-20.21
-25.13
-30.10
-34.67
-38.15
-39.85
-39.20
-36.04
-30.79
-24.26
-17.34
-10.72
-4.66
0.92
6.17
11.09
15.39
18.71
20.81
21.79
22.06
22.10
22.30
22.70
23.15
23.47
23.63
23.76
24.09
24.66
25.29
25.57
25.06
23.49
20.86
17.42
13.50
9.44
5.44
1.61
-2.01
-5.42
-8.66
-11.81
-14.98
-18.29
-21.85
-25.65
-29.56
-33.25
-36.25
-37.98
-37.94
-35.88
-31.95
-26.62
-20.55
-14.36
-8.44
-2.92
2.22
6.91
10.97
14.12
16.13
16.98
16.93
16.46
16.05
16.03
16.43
17.00
17.32
17.09
16.21
14.80
13.17
11.63
10.34
9.17
7.89
6.28
4.24
1.94
-0.35
-2.38
-4.10
-5.64
-7.33
-9.52
-12.41
-16.05
-20.23
-24.54
-28.43
-31.24
-32.36
-31.39
-28.21
-23.09
-16.63
-9.61
-2.80
3.20
8.03
11.60
13.98
15.39
16.06
16.23
16.10
15.88
15.73
15.77
16.10
16.64
17.26
17.70
17.70
17.04
15.68
13.72
11.42
9.05
6.79
4.72
2.71
0.60
-1.75
-4.41
-7.33
-10.42
-13.51
-16.42
-18.93
-20.72
-21.45
-20.79
-18.61
-14.97
-10.23
-4.87
0.57
5.73
10.39
14.52
18.17
21.33
23.91
25.79
26.91
27.36
27.37
27.31
27.42
27.79
28.26
28.53
28.27
27.27
25.52
23.19
20.63
18.13
15.88
13.92
12.13
10.34
8.40
6.19
3.70
0.92
-2.14
-5.48
-9.00
-12.43
-15.33
-17.15
-17.39
-15.84
-12.68
-8.50
-4.13
-0.29
2.53
4.23
5.12
5.63
6.13
6.74
7.32
7.43
6.55
4.08
-0.60
-8.02
-18.44
-31.58
-46.44
-61.38
-74.55
-84.38
-90.17
-92.15
-91.28
-88.67
-85.19
-81.27
-77.10
-72.94
-69.26
-66.80
-66.18
-67.72
-71.27
-76.25
-81.84
-87.22
-91.75
-95.06
-97.11
-98.11
-98.38
-98.27
-97.99
-97.64
-97.17
-96.50
-95.58
-94.31
-92.60
-90.40
-87.76
-84.93
-82.39
-80.80
-80.76
-82.68
-86.45
-91.32
-95.84
-98.05
-95.90
-87.82
-73.42
-53.66
-30.68
-7.13
14.64
33.07
47.46
57.63
63.49
64.89
61.82
54.72
44.70
33.49
22.95
14.63
9.50
7.87
9.48
13.78
19.99
27.17
34.29
40.29
44.30
45.80
44.74
41.48
36.70
31.19
25.71
20.97
17.58
16.08
16.91
20.19
25.65
32.61
40.08
47.08
52.94
57.44
60.86
63.78
66.81
70.43
74.79
79.66
84.46
88.31
90.19
89.24
85.11
78.18
69.63
61.22
54.84
51.97
53.27
58.55
66.83
76.75
86.84
95.85
102.89
107.61
110.15
111.08
111.15
110.96
110.69
110.01
108.23
104.70
99.21
92.18
84.52
77.33
71.40
66.93
63.44
60.12
56.09
50.78
43.98
35.78
26.36
15.80
4.09
-8.87
-23.19
-38.93
-56.14
-74.74
-94.38
-114.27
-133.05
-148.96
-160.27
-165.77
-165.15
-159.10
-149.03
-136.59
-123.32
-110.35
-98.33
-87.61
-78.23
-70.07
-62.92
-56.65
-51.32
-47.36
-45.43
-46.12
-49.65
-55.61
-62.92
-70.04
-75.27
-77.13
-74.59
-67.47
-56.63
-43.91
-31.81
-22.80
-18.45
-18.82
-22.42
-26.87
-29.91
-30.32
-28.35
-25.33
-22.85
-21.92
-22.53
-23.66
-23.80
-21.59
-16.18
-7.48
3.95
17.22
31.32
45.32
58.56
70.53
80.87
89.32
95.58
99.46
100.93
100.29
98.14
95.34
92.72
90.86
89.89
89.49
89.04
87.85
85.44
81.61
76.50
70.41
63.69
56.67
49.63
42.85
36.61
31.14
26.55
22.68
19.20
15.83
12.53
9.72
8.25
9.02
12.60
18.90
27.12
35.99
44.29
51.22
56.77
61.58
66.57
72.45
79.17
85.89
91.22
93.88
93.16
89.18
82.71
74.73
66.00
56.94
47.73
38.64
30.17
22.95
17.47
13.77
11.32
9.23
6.59
2.75
-2.47
-8.80
-15.73
-22.63
-28.92
-34.08
-37.59
-38.97
-37.77
-33.72
-26.83
-17.53
-6.59
4.99
16.20
26.29
34.90
42.05
48.01
53.10
57.51
61.27
64.24
66.32
67.50
67.93
67.82
67.37
66.63
65.54
64.01
61.96
59.43
56.48
53.18
49.55
45.57
41.16
36.27
30.84
24.79
18.03
10.49
2.19
-6.60
-15.28
-23.01
-28.81
-31.90
-31.92
-29.07
-24.03
-17.80
-11.35
-5.40
-0.35
3.72
6.87
9.18
10.69
11.39
11.31
10.59
9.45
8.20
7.12
6.33
5.78
5.31
4.71
3.86
2.74
1.41
-0.08
-1.77
-3.79
-6.30
-9.41
-13.16
-17.54
-22.53
-28.17
-34.48
-41.32
-48.24
-54.47
-59.03
-61.01
-59.82
-55.44
-48.34
-39.34
-29.36
-19.16
-9.25
0.07
8.60
16.19
22.67
27.94
31.95
34.76
36.50
37.32
37.34
36.67
35.45
33.81
31.89
29.74
27.37
24.73
21.74
18.32
14.43
10.03
5.06
-0.54
-6.79
-13.69
-21.21
-29.33
-38.03
-47.22
-56.64
-65.72
-73.67
-79.58
-82.73
-82.83
-80.12
-75.31
-69.41
-63.44
-58.18
-53.98
-50.76
-48.06
-45.22
-41.56
-36.44
-29.40
-20.16
-8.78
4.21
17.89
31.17
43.23
53.92
63.81
73.94
85.22
97.88
111.24
123.90
134.30
141.28
144.32
143.48
139.10
131.48
120.80
107.26
91.32
73.91
56.39
40.31
27.03
17.31
11.17
7.98
6.74
6.47
6.49
6.53
6.59
6.78
7.10
7.42
7.51
7.17
6.36
5.19
3.92
2.81
2.07
1.77
1.84
2.13
2.46
2.61
2.44
1.88
0.89
-0.50
-2.25
-4.33
-6.71
-9.38
-12.38
-15.77
-19.64
-24.08
-29.21
-35.05
-41.52
-48.27
-54.72
-60.04
-63.37
-64.08
-61.96
-57.27
-50.62
-42.77
-34.36
-25.78
-17.27
-9.02
-1.33
5.40
10.73
14.50
16.82
18.17
19.11
20.09
21.23
22.28
22.83
22.54
21.34
19.48
17.39
15.46
13.84
12.36
10.71
8.61
5.97
2.95
-0.17
-3.15
-5.89
-8.48
-11.10
-13.96
-17.21
-20.98
-25.34
-30.20
-35.28
-39.96
-43.47
-44.97
-43.90
-40.16
-34.13
-26.55
-18.32
-10.28
-3.08
2.84
7.29
10.29
12.02
12.76
12.77
12.27
11.41
10.28
8.98
7.55
6.04
4.48
2.86
1.22
-0.38
-1.81
-2.96
-3.78
-4.37
-4.96
-5.89
-7.48
-9.97
-13.36
-17.43
-21.79
-25.98
-29.72
-33.00
-36.14
-39.59
-43.67
-48.31
-52.93
-56.56
-58.20
-57.11
-53.19
-46.96
-39.39
-31.50
-24.07
-17.41
-11.43
-5.82
-0.21
5.67
12.07
19.17
27.00
35.38
43.81
51.65
58.21
62.96
65.71
66.64
66.22
64.92
62.99
60.38
56.95
52.57
47.16
40.70
33.31
25.23
16.77
8.30
0.06
-7.48
-14.03
-19.60
-24.61
-29.71
-35.44
-41.91
-48.70
-54.92
-58.55
-57.77
-51.86
-41.80
-29.87
-18.68
-10.21
-5.31
-3.73
-2.55
1.37
9.84
22.32
36.49
49.66
60.17
67.75
73.23
80.96
95.22
117.96
147.54
179.87
210.82
237.96
260.73
279.45
298.13
320.95
350.29
386.15
427.31
472.75
521.74
572.59
595.35
565.55
474.16
334.96
177.01
28.05
-96.20
-191.91
-261.72
-307.10
-330.86
-334.22
-320.92
-299.67
-282.01
-277.32
-288.86
-313.13
-340.25
-356.00
-348.04
-311.59
-251.70
-181.38
-116.90
-72.63
-57.41
-72.59
-110.70
-158.55
-202.37
-232.09
-243.51
-237.60
-218.46
-191.14
-160.26
-128.96
-99.40
-73.82
-54.53
-43.19
-39.82
-42.62
-48.78
-55.67
-61.58
-65.89
-68.91
-71.28
-73.47
-75.47
-76.76
-76.64
-74.50
-70.16
-63.88
-56.34
-48.47
-41.17
-35.03
-30.25
-26.70
-23.98
-21.55
-18.87
-15.48
-11.29
-6.61
-2.10
1.58
4.15
5.97
7.94
11.00
15.77
22.34
30.41
39.65
49.83
60.61
71.26
80.58
87.26
90.50
90.57
88.77
86.87
86.44
88.30
92.41
98.16
104.77
111.51
117.71
122.82
126.39
128.19
128.19
126.49
123.13
117.97
110.63
100.55
87.06
69.30
46.49
18.20
-15.07
-51.73
-89.19
-124.57
-155.57
-181.16
-201.80
-218.98
-234.36
-248.81
-261.91
-271.94
-276.58
-273.92
-263.32
-245.80
-223.59
-199.20
-174.42
-149.85
-125.06
-99.42
-72.81
-45.88
-19.80
4.37
26.16
45.69
63.42
79.69
94.46
107.40
118.21
126.85
133.68
139.31
144.43
149.48
154.62
159.78
164.91
170.18
176.07
183.24
192.25
203.11
215.11
226.96
237.33
245.45
251.45
255.93
259.11
259.91
255.80
243.67
221.25
188.42
147.81
104.34
64.08
33.08
16.29
16.75
34.68
66.81
106.29
143.83
170.06
178.33
166.65
137.81
97.48
51.42
3.34
-45.53
-94.97
-143.59
-187.74
-221.88
-240.83
-242.27
-228.09
-203.69
-175.78
-149.83
-128.63
-112.41
-100.07
-90.66
-83.87
-79.84
-78.49
-79.41
-82.37
-88.06
-98.36
-115.55
-141.12
-174.50
-212.69
-251.04
-284.71
-310.00
-325.06
-329.69
-324.68
-311.22
-290.67
-264.75
-235.72
-206.16
-178.40
-153.83
-132.73
-114.45
-98.17
-83.44
-70.22
-58.57
-48.25
-38.53
-28.56
-17.96
-7.03
3.41
12.53
20.21
27.24
35.13
45.62
60.07
78.97
101.74
126.69
151.33
172.91
189.14
198.80
202.01
199.90
194.00
185.48
174.73
161.46
145.13
125.56
103.38
79.98
57.38
37.71
22.88
14.02
11.17
13.01
16.88
19.30
16.84
7.33
-9.07
-29.59
-49.59
-64.17
-70.07
-66.93
-57.29
-45.41
-35.40
-29.70
-28.62
-30.80
-34.42
-38.12
-41.32
-43.94
-45.94
-46.98
-46.66
-44.87
-42.18
-39.82
-39.24
-41.53
-46.84
-54.23
-61.90
-67.88
-70.70
-69.93
-66.11
-60.44
-54.13
-47.99
-42.34
-37.15
-32.31
-27.79
-23.66
-20.07
-17.19
-15.28
-14.62
-15.42
-17.58
-20.61
-23.63
-25.57
-25.42
-22.51
-16.59
-7.90
2.88
14.73
26.36
36.62
44.67
50.25
53.63
55.34
55.84
55.30
53.59
50.45
45.73
39.58
32.45
25.05
18.18
12.57
8.73
6.88
6.83
8.13
10.14
12.27
14.10
15.36
15.87
15.33
13.31
9.31
2.98
-5.72
-16.46
-28.52
-41.00
-52.89
-63.19
-70.94
-75.28
-75.65
-71.88
-64.36
-53.98
-41.96
-29.54
-17.77
-7.41
1.16
7.76
12.42
15.29
16.67
16.94
16.55
15.86
15.12
14.39
13.65
12.80
11.79
10.56
9.09
7.36
5.29
2.84
-0.02
-3.27
-6.94
-11.03
-15.54
-20.47
-25.81
-31.52
-37.51
-43.50
-48.91
-52.87
-54.38
-52.62
-47.30
-38.84
-28.32
-17.07
-6.20
3.63
12.33
20.11
27.17
33.50
38.72
42.21
43.43
42.19
38.90
34.45
29.90
26.23
24.01
22.89
21.92
19.74
15.31
8.42
-0.17
-9.13
-16.94
-22.44
-25.83
-28.20
-31.13
-35.85
-42.40
-49.45
-54.84
-55.89
-49.79
-34.98
-10.75
22.05
60.76
101.34
139.22
169.23
187.17
193.72
194.96
200.18
215.21
238.65
263.20
279.99
282.87
270.80
251.34
228.16
203.97
180.48
159.05
141.37
129.36
124.27
125.80
131.77
137.60
138.17
129.74
111.09
83.97
52.24
20.25
-8.49
-32.06
-50.86
-65.98
-78.73
-90.08
-100.23
-108.81
-115.19
-118.82
-119.43
-117.44
-113.40
-107.86
-101.40
-94.48
-87.46
-80.67
-74.34
-68.60
-63.60
-59.21
-55.28
-51.86
-49.16
-47.50
-47.06
-47.72
-49.05
-50.62
-52.05
-53.22
-54.22
-55.18
-56.08
-56.75
-57.10
-57.31
-57.90
-59.47
-62.36
-66.26
-70.29
-73.38
-74.91
-75.09
-74.99
-76.00
-79.14
-84.54
-91.32
-97.91
-102.54
-103.72
-100.39
-92.17
-79.37
-63.21
-45.79
-29.75
-17.66
-11.21
-10.70
-15.01
-22.19
-30.22
-37.74
-44.27
-49.96
-55.19
-60.20
-64.84
-68.63
-70.96
-71.21
-68.93
-63.99
-56.65
-47.53
-37.53
-27.72
-19.12
-12.62
-8.87
-8.20
-10.61
-15.74
-22.94
-31.44
-40.40
-48.96
-56.21
-61.11
-62.75
-60.61
-54.96
-46.81
-37.60
-28.53
-20.05
-11.72
-2.58
8.25
21.16
36.01
52.35
69.70
87.73
106.17
124.59
142.42
158.85
173.08
184.51
192.89
198.46
201.88
203.96
205.11
204.95
202.22
195.17
182.33
163.32
138.98
111.07
81.60
52.27
24.33
-1.37
-24.28
-44.14
-60.94
-74.86
-85.99
-94.00
-98.10
-97.33
-90.96
-79.01
-62.30
-42.33
-20.79
0.80
21.16
39.36
54.70
66.65
74.96
79.62
80.92
79.34
75.52
70.15
63.86
57.08
49.98
42.63
35.05
27.32
19.55
11.88
4.34
-3.16
-10.75
-18.56
-26.64
-34.90
-43.15
-51.10
-58.53
-65.25
-71.25
-76.69
-81.88
-87.15
-92.81
-98.92
-105.21
-111.06
-115.56
-117.79
-117.10
-113.36
-107.07
-99.23
-91.02
-83.44
-77.11
-72.09
-68.06
-64.50
-60.85
-56.57
-51.13
-43.91
-34.27
-21.69
-6.05
12.12
31.77
51.61
70.55
88.07
104.13
118.93
132.39
144.00
152.94
158.49
160.43
159.04
154.85
148.24
139.13
127.19
112.19
94.44
74.98
55.36
37.23
21.88
9.94
1.39
-4.28
-7.77
-9.80
-10.92
-11.45
-11.56
-11.27
-10.61
-9.67
-8.61
-7.65
-7.02
-6.83
-7.10
-7.75
-8.66
-9.68
-10.66
-11.51
-12.16
-12.60
-12.90
-13.15
-13.52
-14.20
-15.37
-17.08
-19.31
-21.92
-24.73
-27.67
-30.81
-34.36
-38.53
-43.30
-48.25
-52.61
-55.38
-55.67
-53.00
-47.44
-39.59
-30.36
-20.76
-11.64
-3.55
3.24
8.73
13.08
16.44
18.93
20.57
21.39
21.37
20.58
19.16
17.25
15.01
12.56
9.91
7.13
4.23
1.32
-1.53
-4.28
-6.91
-9.51
-12.18
-15.06
-18.27
-21.95
-26.25
-31.28
-37.03
-43.18
-49.14
-54.11
-57.25
-57.96
-56.08
-51.92
-46.15
-39.66
-33.21
-27.37
-22.41
-18.37
-15.21
-12.93
-11.63
-11.50
-12.72
-15.35
-19.26
-24.09
-29.38
-34.62
-39.47
-43.83
-47.82
-51.75
-55.94
-60.58
-65.63
-70.72
-75.24
-78.29
-78.92
-76.19
-69.58
-59.36
-46.74
-33.57
-21.61
-11.64
-2.78
7.36
21.82
43.00
71.57
105.99
142.95
178.36
208.49
230.82
244.27
248.98
245.95
236.63
222.71
205.99
188.20
170.77
154.56
139.57
125.05
109.94
93.45
75.60
57.36
40.18
25.43
13.75
4.89
-2.05
-8.14
-14.20
-20.58
-27.33
-34.34
-41.59
-49.21
-57.33
-66.01
-75.07
-84.03
-92.15
-98.63
-102.74
-104.05
-102.50
-98.38
-92.26
-84.82
-76.69
-68.39
-60.27
-52.57
-45.45
-39.06
-33.54
-29.00
-25.46
-22.85
-20.98
-19.60
-18.53
-17.65
-16.86
-16.09
-15.22
-14.17
-12.96
-11.81
-11.06
-10.99
-11.71
-13.06
-14.68
-16.24
-17.63
-18.96
-20.58
-22.81
-25.85
-29.65
-33.89
-37.98
-41.21
-42.80
-42.10
-38.77
-32.88
-24.98
-15.88
-6.50
2.39
10.25
16.87
22.19
26.30
29.33
31.43
32.76
33.47
33.74
33.70
33.41
32.90
32.13
31.10
29.85
28.53
27.26
26.14
25.10
23.95
22.40
20.22
17.26
13.59
9.41
5.00
0.62
-3.62
-7.77
-12.02
-16.60
-21.62
-26.90
-31.92
-35.84
-37.83
-37.26
-33.97
-28.30
-20.93
-12.67
-4.23
3.85
11.22
17.67
23.04
27.25
30.31
32.30
33.36
33.66
33.37
32.65
31.62
30.41
29.12
27.81
26.53
25.27
24.05
22.82
21.54
20.14
18.50
16.48
13.95
10.85
7.22
3.24
-0.81
-4.68
-8.25
-11.67
-15.27
-19.42
-24.28
-29.63
-34.83
-38.92
-40.99
-40.42
-37.09
-31.44
-24.24
-16.38
-8.61
-1.41
5.02
10.62
15.38
19.23
22.08
23.88
24.71
24.79
24.42
23.84
23.15
22.36
21.39
20.22
18.90
17.57
16.34
15.18
13.94
12.40
10.30
7.55
4.20
0.46
-3.36
-7.01
-10.33
-13.36
-16.33
-19.60
-23.51
-28.25
-33.71
-39.43
-44.63
-48.42
-50.00
-48.93
-45.21
-39.36
-32.22
-24.72
-17.64
-11.52
-6.51
-2.54
0.54
2.85
4.34
4.87
4.34
2.77
0.41
-2.36
-5.17
-7.84
-10.44
-13.25
-16.51
-20.30
-24.47
-28.74
-32.85
-36.76
-40.70
-45.03
-50.06
-55.81
-61.99
-67.95
-72.89
-75.94
-76.34
-73.44
-66.86
-56.61
-43.14
-27.44
-10.85
5.30
20.09
33.32
45.47
57.33
69.44
81.77
93.69
104.28
112.82
119.08
123.39
126.31
128.34
129.62
129.94
128.89
126.22
121.97
116.61
110.82
105.27
100.33
95.90
91.47
86.36
80.04
72.38
63.69
54.52
45.42
36.69
28.35
20.18
11.88
3.20
-6.07
-16.00
-26.61
-37.67
-48.74
-59.02
-67.47
-73.00
-74.73
-72.27
-65.85
-56.29
-44.78
-32.60
-20.85
-10.24
-1.15
6.35
12.34
16.98
20.45
22.89
24.34
24.75
24.02
22.09
18.99
14.89
10.10
4.96
-0.26
-5.42
-10.60
-15.99
-21.80
-28.18
-35.12
-42.51
-50.18
-57.96
-65.68
-73.23
-80.58
-87.77
-94.94
-102.32
-110.12
-118.30
-126.50
-133.94
-139.62
-142.57
-142.25
-138.80
-132.96
-125.86
-118.59
-111.85
-105.77
-99.84
-93.18
-84.60
-72.93
-57.26
-37.19
-13.05
14.07
42.59
70.83
97.41
121.57
143.13
162.20
178.86
192.80
203.37
209.65
210.88
206.74
197.58
184.43
168.84
152.52
136.90
122.73
109.89
97.47
84.16
68.72
50.42
29.34
6.36
-17.00
-38.98
-57.91
-72.56
-82.33
-87.31
-88.19
-86.05
-82.06
-77.24
-72.24
-67.39
-62.74
-58.21
-53.74
-49.31
-44.89
-40.55
-36.38
-32.52
-29.15
-26.38
-24.18
-22.38
-20.72
-18.91
-16.79
-14.45
-12.16
-10.33
-9.33
-9.35
-10.31
-11.88
-13.59
-15.01
-15.97
-16.56
-17.18
-18.37
-20.58
-24.01
-28.45
-33.23
-37.42
-40.03
-40.25
-37.77
-32.77
-25.91
-18.08
-10.14
-2.75
3.68
8.97
13.12
16.19
18.33
19.71
20.51
20.88
20.92
20.69
20.26
19.67
18.96
18.14
17.20
16.15
15.02
13.92
12.90
11.93
10.84
9.36
7.26
4.53
1.34
-1.95
-4.99
-7.62
-9.95
-12.32
-15.09
-18.54
-22.69
-27.22
-31.53
-34.81
-36.22
-35.20
-31.60
-25.77
-18.52
-10.80
-3.47
2.92
8.15
12.28
15.46
17.84
19.52
20.58
21.13
21.30
21.26
21.13
20.99
20.83
20.53
19.98
19.11
17.95
16.64
15.30
13.97
12.58
10.93
8.82
6.17
3.04
-0.40
-4.01
-7.73
-11.67
-15.94
-20.53
-25.18
-29.31
-32.19
-33.08
-31.52
-27.48
-21.41
-14.10
-6.52
0.49
6.38
10.97
14.44
17.10
19.22
20.90
22.09
22.66
22.59
21.99
21.07
20.06
19.07
18.08
17.02
15.80
14.40
12.89
11.26
9.49
7.46
5.06
2.25
-0.95
-4.45
-8.27
-12.49
-17.26
-22.68
-28.64
-34.67
-40.00
-43.71
-45.01
-43.54
-39.46
-33.37
-26.14
-18.59
-11.35
-4.72
1.16
6.29
10.67
14.27
17.04
18.98
20.17
20.72
20.83
20.67
20.35
19.93
19.39
18.68
17.76
16.63
15.37
14.02
12.64
11.18
9.53
7.56
5.14
2.18
-1.38
-5.59
-10.48
-15.96
-21.79
-27.43
-32.15
-35.12
-35.68
-33.55
-28.96
-22.56
-15.20
-7.69
-0.60
5.78
11.35
16.13
20.10
23.19
25.26
26.22
26.09
25.03
23.39
21.55
19.83
18.39
17.16
15.94
14.53
12.77
10.68
8.35
5.89
3.36
0.79
-1.87
-4.67
-7.69
-11.10
-15.07
-19.80
-25.29
-31.26
-37.10
-41.88
-44.62
-44.52
-41.27
-35.13
-26.93
-17.85
-9.03
-1.32
4.92
9.71
13.35
16.17
18.40
20.16
21.51
22.53
23.28
23.83
24.15
24.19
23.87
23.12
21.91
20.21
18.03
15.36
12.28
8.86
5.28
1.70
-1.75
-4.99
-8.08
-11.25
-14.80
-19.04
-24.14
-29.93
-35.86
-41.04
-44.45
-45.21
-42.89
-37.57
-29.79
-20.35
-10.14
0.06
9.59
17.91
24.64
29.59
32.82
34.59
35.29
35.35
35.11
34.74
34.31
33.78
33.11
32.23
31.06
29.50
27.44
24.77
21.48
17.61
13.33
8.91
4.60
0.58
-3.14
-6.77
-10.65
-15.12
-20.40
-26.44
-32.85
-39.00
-44.05
-47.16
-47.69
-45.32
-40.24
-33.01
-24.51
-15.62
-7.08
0.69
7.54
13.54
18.75
23.23
26.93
29.81
31.81
32.98
33.43
33.26
32.57
31.44
29.94
28.23
26.48
24.90
23.58
22.43
21.24
19.69
17.57
14.79
11.49
7.87
4.13
0.37
-3.49
-7.64
-12.33
-17.71
-23.72
-30.04
-36.02
-40.85
-43.71
-44.00
-41.54
-36.62
-29.87
-22.10
-14.04
-6.20
1.11
7.76
13.65
18.66
22.66
25.56
27.38
28.29
28.55
28.40
27.99
27.34
26.38
25.09
23.53
21.94
20.56
19.55
18.81
17.98
16.58
14.23
10.85
6.71
2.28
-1.96
-5.72
-9.00
-12.03
-15.15
-18.67
-22.77
-27.50
-32.71
-38.02
-42.79
-46.27
-47.69
-46.57
-42.84
-36.88
-29.41
-21.26
-13.20
-5.77
0.74
6.19
10.59
14.01
16.59
18.54
20.04
21.23
22.14
22.70
22.80
22.41
21.61
20.58
19.57
18.80
18.38
18.28
18.28
18.09
17.37
15.88
13.56
10.55
7.11
3.58
0.17
-3.08
-6.29
-9.74
-13.73
-18.52
-24.19
-30.51
-36.92
-42.52
-46.24
-47.23
-45.08
-40.03
-32.80
-24.38
-15.74
-7.54
-0.16
6.28
11.79
16.35
19.93
22.54
24.28
25.33
25.84
25.91
25.54
24.66
23.17
21.04
18.43
15.55
12.59
9.49
5.96
1.64
-3.83
-10.50
-18.20
-26.20
-33.79
-40.50
-46.41
-52.01
-57.98
-64.85
-72.93
-82.29
-92.06
-101.14
-108.38
-112.95
-114.42
-112.55
-107.23
-98.41
-86.22
-69.81
-48.54
-22.33
7.67
39.12
69.38
96.33
119.05
138.04
156.36
177.59
204.38
237.28
274.66
313.85
352.37
388.49
412.40
415.97
395.31
353.87
301.07
247.29
199.74
161.37
131.82
109.05
93.00
82.44
76.68
74.63
74.41
73.60
70.00
61.94
48.28
29.09
7.58
-13.51
-31.94
-46.04
-54.58
-56.84
-53.04
-44.52
-32.69
-19.01
-4.88
8.60
20.30
29.04
33.61
33.10
27.37
17.65
6.10
-5.21
-15.02
-23.40
-31.45
-40.45
-51.12
-63.13
-75.27
-86.06
-94.77
-101.61
-107.76
-114.99
-125.10
-139.40
-158.37
-181.30
-206.26
-230.50
-251.23
-266.57
-276.36
-282.31
-287.17
-293.48
-302.33
-312.74
-322.16
-327.40
-325.73
-315.69
-297.26
-271.55
-240.32
-205.61
-169.57
-134.25
-101.49
-72.55
-47.99
-27.81
-11.84
-0.05
7.40
10.60
10.20
7.55
4.15
0.99
-1.92
-5.25
-9.66
-14.88
-19.59
-22.14
-21.61
-18.53
-14.72
-12.26
-12.44
-15.32
-20.11
-25.95
-32.49
-39.75
-47.53
-54.92
-60.27
-61.73
-58.04
-49.03
-35.47
-18.57
0.62
21.39
43.34
66.13
89.24
112.03
133.90
154.41
173.24
189.98
203.95
214.25
220.07
221.04
217.41
209.85
199.00
185.11
168.00
147.51
123.94
98.41
72.62
48.27
26.47
7.50
-8.93
-23.18
-35.25
-44.92
-52.05
-56.99
-60.60
-63.98
-67.94
-72.71
-77.86
-82.64
-86.24
-88.00
-87.49
-84.52
-79.16
-71.78
-62.98
-53.45
-43.70
-34.02
-24.49
-15.20
-6.47
1.17
7.16
11.19
13.32
14.00
13.81
13.28
12.75
12.34
12.01
11.60
10.82
9.26
6.48
2.11
-3.99
-11.79
-21.11
-31.70
-43.25
-55.21
-66.85
-77.33
-86.10
-93.28
-99.70
-106.44
-114.25
-122.88
-131.07
-136.94
-138.81
-135.75
-127.85
-115.91
-101.09
-84.69
-68.09
-52.85
-40.62
-32.66
-29.45
-30.40
-34.05
-38.54
-42.10
-43.35
-41.22
-34.79
-23.45
-7.19
12.98
35.08
56.55
75.27
90.16
101.35
109.67
115.95
120.59
123.57
124.84
124.68
123.45
121.24
117.53
111.26
101.62
88.69
73.89
59.51
47.84
40.14
36.30
34.99
34.41
32.97
29.75
24.67
18.30
11.59
5.57
1.04
-1.64
-2.64
-2.61
-2.34
-2.50
-3.34
-4.65
-6.00
-6.93
-7.28
-7.11
-6.64
-6.07
-5.41
-4.54
-3.32
-1.75
0.01
1.74
3.28
4.63
5.93
7.26
8.46
9.03
8.33
5.93
2.05
-2.28
-5.38
-5.50
-1.47
6.88
18.62
32.09
45.54
57.65
67.81
76.05
82.75
88.26
92.72
95.96
97.69
97.69
95.98
92.83
88.72
84.13
79.45
74.82
70.22
65.49
60.44
54.97
49.09
42.89
36.54
30.13
23.64
16.94
9.81
2.03
-6.47
-15.66
-25.34
-35.17
-44.70
-53.35
-60.35
-64.88
-66.29
-64.29
-59.14
-51.60
-42.80
-33.86
-25.67
-18.73
-13.16
-8.91
-5.85
-3.94
-3.18
-3.42
-4.38
-5.50
-6.17
-5.85
-4.35
-1.90
0.93
3.44
5.18
6.07
6.44
6.82
7.63
8.93
10.37
11.47
11.87
11.59
11.02
10.69
10.98
12.02
13.77
16.25
19.59
24.03
29.64
36.10
42.81
49.11
54.67
59.58
64.21
68.81
73.18
76.70
78.58
78.35
76.09
72.41
68.20
64.26
61.09
58.70
56.78
54.76
51.96
47.78
41.90
34.30
25.40
15.85
6.26
-2.97
-11.90
-20.92
-30.53
-40.93
-51.83
-62.31
-71.14
-77.08
-79.35
-77.75
-72.77
-65.24
-56.17
-46.50
-37.00
-28.30
-20.91
-15.19
-11.34
-9.29
-8.75
-9.21
-10.13
-10.98
-11.46
-11.46
-11.10
-10.64
-10.37
-10.49
-11.04
-11.91
-12.92
-13.90
-14.86
-15.99
-17.66
-20.33
-24.45
-30.16
-37.24
-44.92
-52.03
-57.24
-59.46
-58.13
-53.43
-46.15
-37.39
-28.21
-19.36
-11.27
-4.01
2.45
8.11
12.89
16.57
18.93
19.79
19.23
17.56
15.27
12.85
10.59
8.49
6.35
3.93
1.22
-1.63
-4.34
-6.69
-8.69
-10.55
-12.57
-14.98
-17.92
-21.48
-25.72
-30.70
-36.28
-41.92
-46.72
-49.55
-49.42
-45.86
-39.13
-30.07
-19.82
-9.41
0.45
9.45
17.60
24.94
31.46
37.06
41.52
44.67
46.43
46.83
46.09
44.50
42.30
39.68
36.66
33.21
29.35
25.25
21.21
17.60
14.64
12.30
10.28
8.14
5.45
1.98
-2.36
-7.53
-13.52
-20.31
-27.69
-35.11
-41.56
-45.78
-46.61
-43.45
-36.45
-26.51
-14.94
-3.10
7.96
17.68
25.87
32.63
38.10
42.40
45.57
47.63
48.62
48.69
48.07
46.98
45.63
44.13
42.48
40.66
38.65
36.49
34.20
31.75
29.03
25.89
22.20
17.97
13.29
8.36
3.36
-1.67
-6.85
-12.49
-18.95
-26.46
-34.96
-43.86
-52.09
-58.20
-60.87
-59.20
-53.17
-43.55
-31.68
-19.05
-6.82
4.26
13.87
21.91
28.36
33.20
36.54
38.58
39.71
40.33
40.79
41.27
41.74
42.09
42.15
41.87
41.28
40.49
39.60
38.67
37.67
36.42
34.75
32.50
29.62
26.20
22.44
18.56
14.72
10.93
7.08
2.93
-1.77
-7.12
-12.96
-18.75
-23.64
-26.57
-26.65
-23.44
-17.12
-8.47
1.35
11.15
19.96
27.22
32.63
36.17
37.91
38.00
36.72
34.49
31.81
29.20
27.06
25.63
24.92
24.75
24.80
24.73
24.25
23.17
21.47
19.19
16.44
13.33
9.92
6.28
2.45
-1.57
-5.80
-10.35
-15.40
-21.10
-27.44
-34.11
-40.40
-45.36
-47.99
-47.48
-43.58
-36.55
-27.16
-16.43
-5.38
5.20
14.79
23.17
30.26
36.01
40.33
43.10
44.27
43.96
42.51
40.40
38.18
36.27
34.80
33.68
32.59
31.20
29.23
26.57
23.28
19.51
15.45
11.23
6.87
2.33
-2.55
-7.91
-13.93
-20.71
-28.23
-36.22
-44.11
-50.98
-55.75
-57.44
-55.54
-50.16
-42.09
-32.45
-22.39
-12.77
-4.00
3.80
10.63
16.50
21.31
24.94
27.28
28.30
28.03
26.58
24.17
21.10
17.81
14.67
11.93
9.61
7.51
5.32
2.78
-0.24
-3.73
-7.59
-11.69
-15.98
-20.44
-25.14
-30.15
-35.61
-41.61
-48.10
-54.81
-61.11
-66.08
-68.70
-68.10
-63.90
-56.32
-46.23
-34.86
-23.51
-13.21
-4.47
2.66
8.49
13.35
17.47
20.84
23.33
24.80
25.28
24.87
23.79
22.26
20.47
18.59
16.77
15.15
13.79
12.55
11.18
9.35
6.83
3.58
-0.23
-4.32
-8.46
-12.53
-16.62
-20.96
-25.83
-31.47
-37.96
-45.03
-52.03
-57.94
-61.56
-61.89
-58.44
-51.41
-41.71
-30.62
-19.44
-9.20
-0.41
6.83
12.73
17.56
21.48
24.50
26.53
27.47
27.32
26.26
24.60
22.69
20.80
19.06
17.44
15.91
14.43
12.94
11.38
9.57
7.28
4.29
0.53
-3.86
-8.54
-13.15
-17.45
-21.36
-25.06
-28.89
-33.21
-38.18
-43.61
-48.91
-53.13
-55.18
-54.22
-49.90
-42.52
-32.89
-22.14
-11.34
-1.28
7.55
14.93
20.78
25.14
28.08
29.80
30.54
30.53
29.95
28.87
27.32
25.31
22.93
20.36
17.82
15.52
13.60
12.05
10.71
9.31
7.48
4.98
1.71
-2.20
-6.48
-10.73
-14.69
-18.28
-21.62
-25.00
-28.78
-33.19
-38.22
-43.48
-48.23
-51.45
-52.17
-49.74
-44.02
-35.52
-25.20
-14.22
-3.68
5.62
13.23
19.03
23.18
25.96
27.67
28.52
28.64
28.05
26.81
24.99
22.79
20.46
18.27
16.40
14.96
13.86
12.96
11.99
10.69
8.82
6.22
2.90
-1.05
-5.33
-9.64
-13.63
-17.11
-20.09
-22.87
-25.91
-29.70
-34.46
-39.91
-45.23
-49.19
-50.53
-48.42
-42.71
-34.00
-23.46
-12.42
-2.00
7.10
14.59
20.48
24.88
27.91
29.65
30.25
29.93
28.98
27.65
26.08
24.31
22.31
20.12
17.86
15.74
13.93
12.48
11.21
9.79
7.84
5.13
1.63
-2.46
-6.80
-10.98
-14.71
-17.93
-20.83
-23.79
-27.26
-31.55
-36.63
-42.02
-46.85
-50.01
-50.47
-47.60
-41.36
-32.36
-21.73
-10.79
-0.70
7.80
14.48
19.48
23.10
25.57
26.99
27.39
26.85
25.62
24.00
22.33
20.77
19.33
17.95
16.55
15.15
13.77
12.42
10.95
9.14
6.79
3.79
0.19
-3.77
-7.80
-11.67
-15.28
-18.71
-22.22
-26.14
-30.73
-36.01
-41.63
-46.76
-50.33
-51.25
-48.82
-42.99
-34.36
-23.99
-13.09
-2.67
6.56
14.25
20.26
24.64
27.51
29.07
29.59
29.37
28.67
27.65
26.40
24.92
23.27
21.55
19.95
18.59
17.50
16.56
15.53
14.11
12.05
9.25
5.73
1.70
-2.60
-6.88
-11.02
-15.02
-19.13
-23.70
-29.03
-35.15
-41.60
-47.48
-51.58
-52.80
-50.45
-44.53
-35.73
-25.28
-14.52
-4.61
3.75
10.35
15.41
19.24
22.15
24.22
25.40
25.61
24.82
23.20
21.08
18.82
16.69
14.78
13.05
11.36
9.63
7.86
6.06
4.20
2.14
-0.30
-3.26
-6.70
-10.42
-14.11
-17.59
-20.91
-24.41
-28.51
-33.47
-39.07
-44.51
-48.63
-50.15
-48.22
-42.62
-33.89
-23.11
-11.57
-0.40
9.61
18.03
24.71
29.62
32.79
34.35
34.48
33.53
31.87
29.92
27.99
26.33
25.03
24.07
23.32
22.56
21.56
20.10
18.07
15.45
12.34
8.88
5.23
1.45
-2.51
-6.75
-11.51
-16.99
-23.29
-30.31
-37.65
-44.53
-49.89
-52.62
-51.81
-47.12
-38.90
-28.16
-16.31
-4.75
5.46
13.82
20.33
25.27
28.94
31.56
33.15
33.71
33.28
32.02
30.19
28.07
25.90
23.80
21.87
20.13
18.53
16.99
15.32
13.30
10.77
7.70
4.22
0.57
-3.11
-6.83
-10.89
-15.71
-21.63
-28.68
-36.50
-44.21
-50.66
-54.62
-55.12
-51.70
-44.55
-34.48
-22.70
-10.52
1.03
11.33
20.17
27.65
33.91
39.01
42.87
45.38
46.48
46.27
45.02
43.12
40.95
38.83
36.92
35.23
33.69
32.18
30.56
28.74
26.67
24.35
21.80
19.05
16.09
12.86
9.20
4.90
-0.27
-6.44
-13.53
-21.10
-28.32
-34.10
-37.30
-37.08
-33.27
-26.39
-17.55
-8.09
0.80
8.33
14.16
18.26
20.74
21.80
21.64
20.58
18.99
17.19
15.27
13.06
10.23
6.46
1.70
-3.77
-9.52
-15.09
-20.32
-25.37
-30.60
-36.35
-42.68
-49.31
-55.76
-61.56
-66.43
-70.42
-73.83
-77.00
-80.20
-83.47
-86.54
-88.80
-89.45
-87.53
-82.27
-73.17
-60.25
-44.10
-25.73
-6.40
12.70
30.71
47.18
62.04
75.41
87.40
97.98
107.01
114.32
119.89
123.85
126.51
128.21
129.16
129.32
128.47
126.30
122.62
117.43
110.93
103.35
94.83
85.38
75.00
63.73
51.78
39.39
26.68
13.50
-0.58
-16.04
-33.10
-51.42
-69.94
-87.05
-101.01
-110.35
-114.35
-113.22
-108.03
-100.33
-91.71
-83.34
-75.71
-68.66
-61.55
-53.65
-44.39
-33.62
-21.70
-9.43
2.12
11.85
18.91
22.83
23.63
21.72
17.86
12.92
7.75
3.01
-0.88
-3.83
-6.00
-7.77
-9.56
-11.74
-14.54
-17.95
-21.88
-26.20
-30.85
-35.88
-41.26
-46.82
-52.07
-56.20
-58.28
-57.55
-53.69
-46.94
-38.06
-28.04
-17.83
-8.13
0.70
8.56
15.48
21.50
26.63
30.82
34.03
36.26
37.56
38.03
37.76
36.84
35.35
33.39
31.10
28.63
26.11
23.60
21.05
18.35
15.39
12.16
8.72
5.20
1.66
-1.91
-5.65
-9.77
-14.45
-19.80
-25.70
-31.77
-37.37
-41.65
-43.74
-43.03
-39.31
-32.89
-24.45
-14.93
-5.20
4.04
12.34
19.49
25.45
30.27
34.07
36.95
39.02
40.34
40.95
40.90
40.28
39.18
37.72
36.01
34.11
32.10
30.03
27.90
25.66
23.19
20.35
17.08
13.38
9.37
5.21
1.05
-3.05
-7.09
-11.17
-15.42
-19.99
-25.00
-30.38
-35.78
-40.53
-43.71
-44.47
-42.29
-37.28
-30.07
-21.61
-12.83
-4.39
3.38
10.39
16.55
21.74
25.81
28.69
30.44
31.28
31.50
31.32
30.90
30.25
29.36
28.20
26.84
25.40
24.02
22.80
21.71
20.59
19.19
17.26
14.65
11.39
7.64
3.68
-0.25
-4.05
-7.74
-11.47
-15.50
-20.00
-25.02
-30.39
-35.66
-40.16
-43.14
-43.91
-42.10
-37.79
-31.44
-23.75
-15.48
-7.21
0.68
8.05
14.78
20.75
25.72
29.39
31.58
32.22
31.49
29.74
27.46
25.14
23.22
21.95
21.37
21.27
21.24
20.85
19.76
17.85
15.23
12.17
8.96
5.78
2.68
-0.35
-3.36
-6.32
-9.21
-12.10
-15.19
-18.79
-23.17
-28.33
-33.86
-38.94
-42.49
-43.54
-41.57
-36.70
-29.60
-21.28
-12.66
-4.45
2.97
9.45
14.86
19.14
22.18
23.99
24.72
24.68
24.17
23.49
22.79
22.10
21.42
20.73
20.07
19.51
19.05
18.59
17.95
16.86
15.13
12.68
9.58
6.11
2.56
-0.87
-4.15
-7.40
-10.87
-14.77
-19.24
-24.28
-29.68
-35.01
-39.61
-42.71
-43.55
-41.69
-37.16
-30.52
-22.64
-14.47
-6.73
0.14
6.01
10.90
14.85
17.88
19.99
21.24
21.73
21.60
21.00
20.06
18.94
17.79
16.75
15.94
15.42
15.11
14.87
14.50
13.77
12.50
10.59
8.06
5.06
1.81
-1.46
-4.62
-7.64
-10.68
-13.99
-17.84
-22.36
-27.36
-32.29
-36.28
-38.36
-37.79
-34.28
-28.11
-20.07
-11.14
-2.30
5.73
12.48
17.73
21.44
23.65
24.54
24.32
23.29
21.70
19.85
17.98
16.29
14.92
13.88
13.13
12.51
11.88
11.19
10.45
9.75
9.13
8.56
7.84
6.74
5.03
2.54
-0.79
-5.03
-10.14
-16.06
-22.53
-29.03
-34.74
-38.73
-40.16
-38.65
-34.38
-28.09
-20.87
-13.73
-7.44
-2.31
1.66
4.63
6.79
8.21
8.90
8.94
8.51
7.88
7.35
7.06
7.00
7.02
6.93
6.59
5.97
5.12
4.13
3.01
1.72
0.16
-1.83
-4.36
-7.51
-11.25
-15.50
-20.12
-24.90
-29.59
-33.86
-37.37
-39.70
-40.49
-39.47
-36.60
-32.06
-26.26
-19.70
-12.89
-6.18
0.18
6.03
11.20
15.49
18.67
20.60
21.31
21.00
20.05
18.84
17.67
16.66
15.72
14.70
13.40
11.74
9.74
7.49
5.13
2.76
0.37
-2.12
-4.81
-7.76
-11.00
-14.56
-18.51
-22.94
-27.86
-33.06
-38.04
-41.98
-44.02
-43.53
-40.36
-34.92
-28.01
-20.53
-13.18
-6.37
-0.27
5.10
9.68
13.39
16.15
17.96
18.91
19.20
19.06
18.74
18.39
18.07
17.74
17.27
16.51
15.37
13.85
11.99
9.87
7.54
5.01
2.27
-0.73
-4.07
-7.91
-12.36
-17.54
-23.37
-29.56
-35.55
-40.60
-43.93
-44.91
-43.24
-39.02
-32.71
-24.98
-16.59
-8.14
-0.07
7.34
13.88
19.35
23.56
26.34
27.70
27.82
27.04
25.74
24.23
22.70
21.19
19.72
18.24
16.76
15.31
13.93
12.65
11.39
10.04
8.40
6.37
3.88
0.89
-2.61
-6.72
-11.57
-17.21
-23.43
-29.69
-35.09
-38.66
-39.67
-37.89
-33.60
-27.47
-20.30
-12.75
-5.32
1.67
8.02
13.52
18.08
21.67
24.40
26.40
27.82
28.76
29.26
29.34
29.04
28.40
27.44
26.19
24.63
22.77
20.66
18.35
15.90
13.29
10.48
7.38
3.92
0.12
-3.94
-8.21
-12.68
-17.42
-22.47
-27.68
-32.54
-36.29
-38.10
-37.39
-34.08
-28.61
-21.77
-14.39
-7.14
-0.34
5.85
11.43
16.33
20.47
23.78
26.23
27.90
28.89
29.36
29.44
29.22
28.74
28.06
27.25
26.38
25.51
24.60
23.50
22.02
19.97
17.28
14.02
10.37
6.64
3.06
-0.21
-3.18
-6.01
-9.01
-12.54
-16.91
-22.11
-27.71
-32.89
-36.57
-37.82
-36.18
-31.82
-25.45
-18.06
-10.58
-3.63
2.52
7.88
12.53
16.48
19.64
21.86
23.10
23.44
23.14
22.53
21.92
21.43
21.02
20.58
20.00
19.26
18.43
17.54
16.53
15.22
13.38
10.89
7.82
4.40
0.99
-2.17
-4.98
-7.61
-10.34
-13.48
-17.17
-21.35
-25.65
-29.52
-32.31
-33.47
-32.65
-29.81
-25.23
-19.42
-12.96
-6.43
-0.21
5.39
10.25
14.26
17.36
19.53
20.83
21.41
21.49
21.27
20.93
20.55
20.13
19.62
19.00
18.28
17.55
16.85
16.22
15.55
14.69
13.46
11.73
9.55
7.06
4.52
2.08
-0.24
-2.63
-5.42
-8.90
-13.18
-18.07
-23.08
-27.47
-30.52
-31.62
-30.52
-27.35
-22.54
-16.70
-10.45
-4.26
1.56
6.85
11.50
15.39
18.40
20.40
21.39
21.49
20.91
19.95
18.84
17.83
17.06
16.63
16.53
16.64
16.80
16.78
16.40
15.51
14.06
12.06
9.54
6.60
3.43
0.28
-2.57
-5.01
-7.16
-9.37
-12.04
-15.43
-19.40
-23.45
-26.79
-28.62
-28.41
-26.02
-21.73
-16.11
-9.93
-3.87
1.48
5.81
9.05
11.26
12.61
13.24
13.24
12.68
11.69
10.44
9.14
7.96
6.98
6.21
5.56
4.97
4.35
3.64
2.71
1.40
-0.39
-2.63
-5.14
-7.69
-10.06
-12.20
-14.23
-16.40
-18.98
-22.09
-25.61
-29.18
-32.21
-34.02
-34.06
-32.04
-28.06
-22.54
-16.15
-9.60
-3.45
1.93
6.35
9.70
11.94
13.05
13.17
12.56
11.57
10.56
9.80
9.33
9.05
8.72
8.13
7.14
5.73
4.01
2.13
0.23
-1.60
-3.33
-5.02
-6.83
-8.95
-11.64
-15.09
-19.35
-24.25
-29.35
-34.01
-37.48
-39.15
-38.71
-36.19
-31.99
-26.63
-20.66
-14.51
-8.45
-2.66
2.70
7.45
11.42
14.48
16.56
17.69
17.97
17.55
16.67
15.54
14.34
13.19
12.08
10.95
9.68
8.18
6.45
4.51
2.47
0.37
-1.81
-4.19
-6.96
-10.31
-14.37
-19.12
-24.36
-29.69
-34.48
-37.99
-39.57
-38.74
-35.47
-30.12
-23.41
-16.21
-9.25
-2.98
2.46
7.14
11.21
14.74
17.67
19.90
21.36
22.02
22.05
21.65
21.06
20.44
19.77
18.89
17.59
15.72
13.30
10.47
7.47
4.46
1.49
-1.50
-4.58
-7.81
-11.22
-14.86
-18.76
-22.97
-27.37
-31.68
-35.43
-38.05
-39.00
-37.89
-34.56
-29.19
-22.23
-14.35
-6.23
1.57
8.78
15.40
21.49
27.00
31.62
34.89
36.42
36.16
34.48
32.07
29.63
27.58
26.00
24.66
23.24
21.46
19.24
16.60
13.64
10.42
6.98
3.30
-0.61
-4.70
-8.87
-13.05
-17.23
-21.51
-25.96
-30.55
-34.97
-38.62
-40.73
-40.61
-37.91
-32.76
-25.77
-17.81
-9.80
-2.46
3.81
8.92
13.03
16.40
19.24
21.67
23.66
25.12
25.99
26.33
26.31
26.16
26.06
26.09
26.14
26.03
25.51
24.35
22.41
19.63
16.11
12.02
7.67
3.35
-0.72
-4.46
-7.97
-11.46
-15.21
-19.38
-24.03
-28.94
-33.64
-37.46
-39.64
-39.53
-36.85
-31.77
-24.92
-17.19
-9.43
-2.29
3.99
9.40
14.07
18.07
21.35
23.78
25.23
25.67
25.19
24.02
22.37
20.46
18.49
16.70
15.31
14.49
14.30
14.59
15.07
15.39
15.28
14.69
13.69
12.43
10.95
9.12
6.62
3.09
-1.76
-8.06
-15.67
-24.06
-32.41
-39.65
-44.74
-46.87
-45.71
-41.45
-34.71
-26.32
-17.08
-7.63
1.63
10.47
18.67
25.95
31.95
36.22
38.40
38.33
36.14
32.28
27.47
22.51
18.05
14.55
12.16
10.81
10.28
10.29
10.66
11.17
11.63
11.78
11.37
10.20
8.24
5.59
2.47
-0.95
-4.58
-8.48
-12.74
-17.47
-22.61
-27.91
-32.91
-36.98
-39.48
-39.89
-37.98
-33.84
-27.94
-20.94
-13.56
-6.38
0.24
6.12
11.21
15.45
18.79
21.20
22.75
23.64
24.14
24.52
24.91
25.34
25.68
25.78
25.52
24.86
23.82
22.47
20.87
19.07
17.12
15.00
12.70
10.18
7.47
4.61
1.69
-1.24
-4.23
-7.45
-11.07
-15.22
-19.82
-24.60
-29.03
-32.50
-34.41
-34.32
-32.06
-27.81
-21.99
-15.20
-8.09
-1.20
5.09
10.55
15.05
18.53
20.98
22.49
23.22
23.40
23.28
23.13
23.09
23.19
23.36
23.41
23.18
22.55
21.53
20.20
18.71
17.13
15.45
13.59
11.51
9.18
6.69
4.08
1.36
-1.53
-4.71
-8.26
-12.14
-16.21
-20.20
-23.74
-26.40
-27.75
-27.38
-25.11
-21.07
-15.73
-9.80
-4.04
1.03
5.25
8.74
11.73
14.31
16.32
17.39
17.26
15.90
13.73
11.43
9.65
8.84
9.03
9.97
11.28
12.64
13.81
14.67
15.05
14.74
13.53
11.32
8.22
4.56
0.73
-2.98
-6.47
-9.90
-13.52
-17.43
-21.46
-25.12
-27.75
-28.83
-28.04
-25.50
-21.59
-16.82
-11.66
-6.48
-1.53
2.95
6.69
9.44
10.98
11.25
10.43
8.84
6.89
4.90
3.04
1.28
-0.53
-2.59
-5.14
-8.34
-12.23
-16.62
-21.02
-24.69
-26.90
-27.18
-25.65
-22.93
-19.99
-17.73
-16.72
-17.07
-18.52
-20.67
-23.08
-25.31
-26.80
-26.93
-25.10
-20.93
-14.48
-6.28
2.76
11.64
19.50
25.83
30.45
33.44
34.97
35.17
34.15
32.08
29.27
26.14
23.14
20.60
18.59
16.91
15.25
13.33
11.01
8.33
5.43
2.48
-0.40
-3.20
-5.97
-8.88
-12.07
-15.69
-19.76
-24.05
-28.13
-31.41
-33.29
-33.33
-31.41
-27.70
-22.67
-16.85
-10.77
-4.84
0.64
5.48
9.52
12.66
14.88
16.26
16.95
17.14
17.00
16.62
16.04
15.27
14.32
13.20
11.93
10.54
9.08
7.57
6.05
4.54
3.00
1.34
-0.60
-2.96
-5.81
-9.17
-12.91
-16.83
-20.59
-23.81
-26.01
-26.79
-25.84
-23.12
-18.82
-13.39
-7.41
-1.45
4.04
8.75
12.55
15.43
17.40
18.49
18.75
18.29
17.27
15.94
14.53
13.28
12.24
11.34
10.41
9.24
7.71
5.82
3.69
1.54
-0.46
-2.23
-3.87
-5.62
-7.77
-10.56
-14.10
-18.29
-22.80
-27.15
-30.79
-33.15
-33.80
-32.50
-29.33
-24.68
-19.15
-13.41
-8.06
-3.49
0.16
2.88
4.70
5.66
5.71
4.87
3.20
0.90
-1.70
-4.22
-6.38
-8.08
-9.53
-11.16
-13.50
-16.91
-21.38
-26.51
-31.70
-36.49
-40.82
-45.13
-50.22
-56.81
-65.16
-74.83
-84.80
-93.83
-100.94
-105.86
-109.07
-111.53
-114.10
-117.13
-120.03
-121.58
-120.21
-114.61
-104.09
-88.91
-70.34
-50.53
-32.12
-17.51
-7.94
-2.69
1.18
8.13
22.75
48.03
84.12
127.97
174.29
217.07
251.28
273.92
284.32
283.65
273.98
257.43
235.81
210.72
184.15
158.92
138.50
126.11
123.43
129.73
142.08
156.54
169.97
181.14
190.58
199.22
206.67
210.42
206.54
191.47
163.93
125.74
81.11
34.91
-9.02
-48.67
-83.66
-114.36
-141.05
-163.57
-181.58
-194.67
-202.43
-204.29
-199.63
-188.16
-170.69
-149.59
-128.48
-111.08
-99.64
-94.20
-92.91
-93.39
-94.21
-95.50
-98.25
-102.97
-108.75
-113.21
-113.50
-107.55
-94.77
-75.97
-52.79
-27.17
-1.01
23.78
45.42
62.53
74.48
81.58
84.64
84.55
81.94
77.27
71.09
64.26
57.74
52.08
47.04
41.62
34.56
25.06
13.16
-0.26
-13.88
-26.61
-37.91
-47.82
-56.73
-65.01
-72.90
-80.44
-87.64
-94.53
-101.15
-107.43
-113.07
-117.47
-119.90
-119.59
-116.02
-109.06
-99.07
-86.89
-73.63
-60.40
-48.06
-37.07
-27.58
-19.48
-12.68
-7.09
-2.67
0.72
3.31
5.41
7.28
9.03
10.66
12.04
13.12
13.89
14.40
14.69
14.72
14.38
13.56
12.19
10.24
7.80
4.94
1.76
-1.74
-5.56
-9.75
-14.33
-19.17
-23.95
-28.06
-30.74
-31.22
-28.98
-23.94
-16.50
-7.47
2.16
11.47
19.81
26.85
32.49
36.77
39.72
41.43
42.02
41.79
41.11
40.39
39.84
39.47
39.08
38.44
37.40
35.95
34.16
32.11
29.80
27.19
24.28
21.13
17.91
14.75
11.70
8.66
5.45
1.84
-2.33
-7.09
-12.34
-17.80
-22.99
-27.24
-29.80
-30.00
-27.51
-22.44
-15.41
-7.34
0.73
7.99
13.96
18.54
21.85
24.08
25.36
25.78
25.42
24.43
23.04
21.52
20.09
18.88
17.84
16.86
15.76
14.41
12.74
10.71
8.37
5.77
3.00
0.13
-2.74
-5.59
-8.40
-11.21
-14.11
-17.22
-20.70
-24.58
-28.72
-32.72
-35.92
-37.55
-36.94
-33.80
-28.25
-20.93
-12.68
-4.40
3.26
9.96
15.59
20.16
23.67
26.05
27.31
27.52
26.98
26.08
25.29
24.91
25.06
25.65
26.42
27.03
27.17
26.62
25.28
23.21
20.61
17.72
14.74
11.81
8.94
6.05
3.02
-0.33
-4.14
-8.50
-13.35
-18.38
-22.97
-26.30
-27.55
-26.19
-22.19
-16.06
-8.74
-1.24
5.63
11.42
16.09
19.80
22.78
25.14
26.84
27.79
27.90
27.31
26.32
25.36
24.78
24.68
24.82
24.68
23.73
21.63
18.43
14.53
10.46
6.74
3.64
1.21
-0.63
-2.09
-3.41
-4.92
-7.03
-10.11
-14.31
-19.34
-24.43
-28.48
-30.48
-29.84
-26.64
-21.50
-15.32
-8.91
-2.80
2.74
7.58
11.57
14.58
16.59
17.81
18.68
19.62
20.85
22.15
23.03
23.00
21.85
19.86
17.62
15.76
14.61
14.04
13.61
12.81
11.36
9.33
7.02
4.80
2.84
1.07
-0.81
-3.13
-6.16
-9.95
-14.27
-18.61
-22.30
-24.60
-24.90
-22.95
-18.89
-13.25
-6.82
-0.37
5.54
10.62
14.80
18.18
20.78
22.58
23.48
23.43
22.50
20.95
19.14
17.43
16.00
14.82
13.66
12.22
10.34
8.04
5.53
3.05
0.73
-1.43
-3.59
-5.92
-8.49
-11.26
-14.16
-17.12
-20.24
-23.61
-27.25
-30.90
-34.01
-35.86
-35.75
-33.29
-28.53
-21.99
-14.47
-6.86
0.10
5.96
10.60
14.10
16.67
18.50
19.73
20.41
20.55
20.22
19.51
18.56
17.51
16.45
15.45
14.52
13.63
12.73
11.72
10.46
8.85
6.85
4.55
2.08
-0.38
-2.73
-5.00
-7.36
-10.07
-13.34
-17.26
-21.65
-26.05
-29.73
-31.87
-31.77
-29.06
-23.88
-16.86
-8.93
-1.06
6.04
12.05
16.97
20.99
24.29
26.89
28.70
29.59
29.52
28.58
26.99
25.00
22.80
20.53
18.24
15.96
13.73
11.59
9.55
7.57
5.53
3.30
0.78
-2.03
-5.00
-7.96
-10.73
-13.23
-15.53
-17.82
-20.32
-23.14
-26.12
-28.78
-30.39
-30.19
-27.65
-22.69
-15.74
-7.63
0.64
8.25
14.67
19.74
23.55
26.30
28.09
28.98
28.97
28.12
26.61
24.75
22.85
21.21
19.91
18.92
18.05
17.12
15.93
14.41
12.49
10.18
7.53
4.59
1.49
-1.65
-4.76
-7.86
-11.11
-14.77
-19.03
-23.89
-28.95
-33.45
-36.44
-37.03
-34.79
-29.90
-23.11
-15.45
-7.92
-1.23
4.32
8.72
12.10
14.52
15.98
16.43
15.87
14.50
12.69
10.87
9.37
8.29
7.50
6.69
5.56
3.94
1.83
-0.61
-3.19
-5.80
-8.41
-11.11
-14.02
-17.30
-21.09
-25.47
-30.48
-35.93
-41.39
-46.17
-49.49
-50.60
-49.09
-45.03
-38.95
-31.63
-23.92
-16.47
-9.67
-3.66
1.53
5.89
9.38
11.93
13.53
14.22
14.12
13.44
12.46
11.41
10.49
9.70
8.91
7.92
6.52
4.59
2.20
-0.48
-3.26
-6.03
-8.74
-11.49
-14.47
-17.91
-21.98
-26.69
-31.76
-36.54
-40.18
-41.79
-40.79
-37.11
-31.18
-23.81
-15.87
-8.05
-0.80
5.69
11.29
15.90
19.41
21.72
22.86
23.02
22.48
21.58
20.57
19.59
18.63
17.58
16.32
14.77
12.89
10.76
8.53
6.30
4.17
2.09
-0.14
-2.87
-6.46
-11.13
-16.80
-22.94
-28.66
-32.94
-34.87
-34.00
-30.41
-24.67
-17.58
-9.91
-2.24
5.10
11.89
17.93
22.94
26.65
28.87
29.59
29.04
27.62
25.74
23.74
21.86
20.17
18.65
17.21
15.74
14.15
12.44
10.61
8.68
6.61
4.31
1.64
-1.56
-5.42
-9.98
-15.13
-20.53
-25.60
-29.53
-31.50
-30.85
-27.39
-21.43
-13.72
-5.18
3.31
11.16
18.05
23.83
28.40
31.65
33.47
33.79
32.69
30.40
27.26
23.62
19.79
15.97
12.21
8.53
4.90
1.32
-2.16
-5.41
-8.29
-10.66
-12.45
-13.73
-14.74
-15.86
-17.50
-20.02
-23.61
-28.14
-33.16
-37.89
-41.37
-42.62
-40.96
-36.22
-28.82
-19.64
-9.76
-0.16
8.55
16.14
22.65
28.19
32.80
36.35
38.62
39.44
38.82
37.00
34.44
31.66
29.07
26.87
24.96
23.01
20.64
17.55
13.68
9.19
4.37
-0.51
-5.35
-10.19
-15.19
-20.56
-26.54
-33.33
-41.07
-49.63
-58.50
-66.62
-72.53
-74.74
-72.27
-65.02
-53.85
-40.26
-25.87
-11.92
0.90
12.44
22.76
32.01
40.26
47.56
53.94
59.46
64.13
67.86
70.52
71.98
72.18
71.16
69.09
66.15
62.53
58.29
53.34
47.52
40.58
32.39
23.03
12.85
2.38
-7.81
-17.33
-26.09
-34.28
-42.19
-49.95
-57.33
-63.74
-68.29
-70.08
-68.48
-63.34
-55.08
-44.56
-32.88
-21.10
-10.01
-0.02
8.72
16.24
22.58
27.73
31.67
34.40
36.01
36.72
36.76
36.34
35.56
34.39
32.78
30.70
28.20
25.38
22.33
19.09
15.63
11.88
7.80
3.42
-1.13
-5.70
-10.15
-14.49
-18.79
-23.30
-28.25
-33.81
-39.84
-45.85
-50.99
-54.23
-54.65
-51.78
-45.75
-37.28
-27.45
-17.35
-7.84
0.58
7.74
13.65
18.37
22.00
24.62
26.37
27.45
28.08
28.44
28.63
28.66
28.50
28.11
27.46
26.57
25.47
24.12
22.41
20.16
17.17
13.31
8.59
3.22
-2.42
-7.97
-13.17
-18.00
-22.67
-27.41
-32.30
-37.06
-41.04
-43.35
-43.18
-40.15
-34.42
-26.70
-18.01
-9.38
-1.61
4.86
9.89
13.59
16.12
17.68
18.38
18.34
17.67
16.49
14.94
13.28
11.77
10.65
10.01
9.70
9.39
8.64
7.04
4.32
0.71
-3.23
-6.82
-9.57
-11.53
-13.37
-16.06
-20.58
-27.55
-36.48
-46.07
-54.57
-60.50
-63.30
-63.34
-61.64
-59.31
-57.24
-54.98
-51.33
-44.92
-35.03
-22.07
-7.49
7.26
21.19
33.86
45.99
58.66
73.26
91.35
114.67
144.94
183.63
230.90
278.19
314.12
327.73
314.61
279.78
234.70
190.33
153.24
124.72
102.05
82.53
64.92
49.78
38.29
31.41
27.94
26.27
24.35
20.47
15.09
9.84
6.41
5.34
6.74
8.43
8.68
7.20
3.28
-2.87
-10.86
-21.21
-35.98
-53.23
-74.37
-101.16
-134.51
-175.88
-224.01
-273.96
-318.47
-350.86
-366.16
-367.89
-364.78
-352.37
-329.74
-295.88
-248.97
-188.59
-130.73
-79.09
-38.01
-11.12
0.68
2.18
-2.31
-8.65
-14.61
-20.21
-24.58
-28.58
-31.83
-32.29
-29.12
-22.61
-13.84
-4.80
2.23
7.34
10.17
11.33
12.37
13.93
15.83
17.52
17.99
16.07
12.06
6.01
-1.36
-8.56
-14.32
-17.75
-18.24
-15.72
-10.72
-3.56
4.89
13.81
22.59
30.68
37.46
42.48
45.40
46.12
45.01
42.47
38.95
34.80
30.20
25.23
20.07
15.07
10.75
7.66
6.16
6.39
8.21
11.33
15.36
19.97
24.87
29.87
34.84
39.66
44.23
48.38
51.88
54.51
56.12
56.73
56.50
55.73
54.70
53.56
52.24
50.51
48.09
44.77
40.55
35.64
30.37
25.06
19.96
15.13
10.57
6.21
1.97
-2.21
-6.47
-10.96
-15.82
-21.02
-26.27
-31.01
-34.49
-36.09
-35.49
-32.80
-28.54
-23.38
-17.91
-12.48
-7.23
-2.17
2.59
6.80
10.08
12.09
12.76
12.33
11.36
10.50
10.27
10.86
12.11
13.63
15.03
16.02
16.51
16.53
16.09
15.10
13.41
10.95
7.76
4.10
0.35
-3.20
-6.42
-9.43
-12.45
-15.68
-19.06
-22.24
-24.61
-25.50
-24.43
-21.20
-16.02
-9.45
-2.25
4.85
11.27
16.63
20.82
23.86
25.80
26.70
26.59
25.54
23.71
21.33
18.69
16.06
13.57
11.19
8.73
6.00
2.83
-0.75
-4.58
-8.40
-12.02
-15.38
-18.60
-21.88
-25.47
-29.56
-34.26
-39.51
-45.07
-50.51
-55.14
-58.13
-58.72
-56.46
-51.36
-43.92
-34.92
-25.08
-14.89
-4.55
5.93
16.54
27.22
37.97
49.03
61.03
74.88
91.43
111.02
133.15
156.46
179.05
198.74
213.40
221.06
220.29
210.65
193.17
170.37
145.82
123.06
104.49
90.77
81.04
73.61
66.94
60.08
52.68
44.65
35.91
26.35
16.06
5.36
-5.32
-15.63
-25.47
-34.86
-43.81
-52.16
-59.75
-66.63
-73.19
-80.13
-88.08
-97.31
-107.60
-118.42
-129.27
-139.90
-150.19
-159.91
-168.50
-175.07
-178.76
-179.12
-176.34
-171.12
-164.24
-156.29
-147.49
-137.96
-127.93
-117.92
-108.51
-100.04
-92.47
-85.42
-78.47
-71.46
-64.51
-57.80
-51.24
-44.32
-36.13
-25.73
-12.47
3.97
23.47
45.49
69.00
92.19
112.51
127.05
133.34
130.44
119.43
103.19
85.32
68.82
55.12
44.04
34.45
25.26
16.09
7.36
-0.24
-6.20
-10.56
-13.82
-16.62
-19.45
-22.42
-25.46
-28.37
-31.09
-33.73
-36.57
-39.88
-43.66
-47.49
-50.50
-51.70
-50.39
-46.48
-40.57
-33.61
-26.50
-19.66
-13.04
-6.23
1.04
8.81
16.72
24.32
31.24
37.38
42.84
47.77
52.19
56.00
59.05
61.31
62.95
64.30
65.66
67.20
68.77
69.96
70.25
69.25
66.99
63.96
61.03
59.11
58.75
59.77
61.25
61.81
60.10
55.33
47.64
38.05
28.23
19.96
14.64
12.91
14.50
18.33
22.82
26.25
27.33
25.62
21.94
18.25
17.03
20.23
28.11
38.91
49.18
55.25
54.65
47.18
34.74
20.37
6.71
-4.78
-14.02
-21.61
-28.09
-33.52
-37.65
-40.37
-42.02
-43.43
-45.51
-48.80
-53.16
-57.85
-61.89
-64.61
-65.95
-66.60
-67.68
-70.23
-74.77
-81.00
-87.91
-94.09
-98.22
-99.42
-97.48
-92.79
-86.13
-78.40
-70.33
-62.34
-54.48
-46.62
-38.63
-30.63
-23.02
-16.33
-11.02
-7.24
-4.77
-3.10
-1.73
-0.30
1.26
2.83
4.26
5.41
6.24
6.78
7.01
6.90
6.34
5.27
3.67
1.64
-0.64
-2.91
-4.87
-6.35
-7.30
-7.89
-8.44
-9.38
-11.09
-13.79
-17.48
-21.86
-26.39
-30.34
-33.00
-33.83
-32.57
-29.33
-24.48
-18.52
-11.98
-5.32
1.05
6.71
11.24
14.32
15.81
15.88
14.95
13.54
12.05
10.58
8.96
6.91
4.28
1.27
-1.62
-3.82
-4.98
-5.18
-4.92
-4.86
-5.42
-6.49
-7.34
-6.76
-3.22
4.80
18.61
38.85
65.14
95.73
127.61
157.13
180.96
197.21
205.91
208.86
208.72
208.02
208.13
209.06
209.82
209.10
206.03
200.50
193.07
184.56
175.48
165.74
154.75
141.92
127.13
111.04
94.76
79.24
64.65
50.16
34.34
15.84
-6.06
-31.23
-58.99
-88.39
-118.27
-147.11
-172.89
-193.49
-207.51
-215.10
-218.24
-220.08
-223.58
-230.34
-240.13
-251.37
-262.12
-270.87
-276.72
-278.96
-276.62
-268.28
-252.52
-228.44
-196.21
-157.02
-112.87
-66.12
-18.97
26.89
70.63
112.07
151.30
187.85
220.18
245.77
262.00
267.31
262.09
248.58
229.78
208.10
184.43
158.23
128.44
94.56
57.21
17.96
-21.22
-58.41
-91.84
-119.84
-140.90
-154.07
-159.42
-158.13
-152.01
-142.65
-130.78
-116.24
-98.53
-77.50
-53.72
-28.20
-1.83
24.89
51.64
77.67
101.24
119.70
130.34
131.40
122.93
106.91
86.74
66.21
48.71
36.79
32.27
36.54
50.66
75.14
109.38
151.15
196.58
240.57
277.74
303.27
313.45
305.91
279.71
235.80
177.55
111.05
44.46
-13.92
-58.01
-85.88
-99.94
-105.32
-107.38
-109.48
-112.31
-114.83
-116.00
-116.00
-116.40
-118.98
-124.51
-132.01
-139.25
-143.91
-144.83
-142.43
-138.29
-134.04
-130.45
-127.17
-123.04
-117.00
-108.75
-98.97
-89.01
-80.13
-73.06
-67.72
-63.55
-60.00
-56.84
-54.23
-52.62
-52.39
-53.75
-56.72
-61.17
-66.85
-73.47
-80.61
-87.88
-94.97
-101.68
-107.87
-113.26
-117.36
-119.35
-118.35
-113.63
-105.00
-92.95
-78.76
-64.21
-51.15
-40.82
-33.45
-28.14
-23.28
-17.38
-9.80
-1.12
7.06
12.97
15.33
13.85
9.04
2.06
-5.67
-12.40
-16.28
-15.81
-10.48
-1.20
10.05
21.13
31.27
41.77
55.55
75.35
101.44
130.39
155.63
169.98
168.93
152.92
127.32
100.24
79.19
68.27
67.29
72.80
80.44
87.04
91.50
94.39
96.74
99.10
101.32
103.00
103.81
103.48
101.20
94.90
81.33
57.11
20.62
-26.71
-80.25
-133.84
-182.25
-222.91
-256.15
-283.56
-305.97
-322.23
-329.69
-325.94
-310.86
-287.20
-259.84
-233.82
-212.53
-196.83
-185.46
-176.33
-167.77
-159.12
-150.61
-142.73
-135.56
-128.36
-119.97
-109.38
-96.48
-82.30
-68.59
-57.03
-48.36
-41.98
-36.27
-29.40
-20.17
-8.69
3.78
15.37
24.54
30.69
34.46
37.34
40.83
45.77
51.90
58.12
63.09
65.91
66.47
65.33
63.32
61.11
58.97
56.79
54.24
50.89
46.37
40.46
33.24
25.20
17.26
10.64
6.59
6.07
9.45
16.42
26.10
37.29
48.83
59.72
69.32
77.24
83.36
87.74
90.58
92.21
92.98
93.27
93.35
93.33
93.24
93.04
92.70
92.25
91.75
91.19
90.48
89.38
87.67
85.15
81.73
77.50
72.58
67.11
61.19
54.82
47.94
40.42
32.16
23.20
13.83
4.73
-3.10
-8.57
-10.81
-9.48
-4.83
2.28
10.72
19.38
27.44
34.43
40.17
44.66
47.93
49.95
50.70
50.29
48.96
47.12
45.26
43.82
43.03
42.88
43.14
43.50
43.64
43.34
42.47
40.99
38.89
36.18
32.91
29.16
25.05
20.67
16.08
11.19
5.84
-0.21
-7.06
-14.53
-22.01
-28.53
-32.90
-34.10
-31.62
-25.66
-17.03
-6.96
3.38
13.11
21.80
29.34
35.77
41.10
45.27
48.26
50.18
51.31
52.03
52.64
53.30
53.98
54.54
54.82
54.71
54.15
53.07
51.41
49.10
46.11
42.48
38.33
33.80
29.04
24.11
19.02
13.73
8.14
2.20
-4.08
-10.43
-16.30
-20.85
-23.12
-22.39
-18.44
-11.69
-3.11
6.11
14.93
22.65
28.96
33.75
37.02
38.79
39.19
38.53
37.26
35.88
34.77
34.04
33.66
33.45
33.24
32.88
32.24
31.20
29.66
27.58
25.04
22.19
19.17
16.07
12.85
9.43
5.74
1.74
-2.57
-7.26
-12.36
-17.87
-23.54
-28.78
-32.79
-34.68
-33.85
-30.17
-24.02
-16.21
-7.69
0.68
8.25
14.64
19.63
23.15
25.21
25.93
25.53
24.35
22.76
21.13
19.73
18.67
17.94
17.44
17.00
16.45
15.64
14.45
12.79
10.62
8.00
5.02
1.82
-1.51
-4.95
-8.59
-12.53
-16.86
-21.55
-26.49
-31.44
-35.97
-39.51
-41.34
-40.82
-37.59
-31.78
-23.98
-15.19
-6.40
1.61
8.40
13.89
18.11
21.11
22.84
23.31
22.64
21.15
19.32
17.61
16.36
15.66
15.31
14.96
14.25
12.92
10.90
8.29
5.29
2.06
-1.28
-4.71
-8.26
-11.93
-15.75
-19.74
-24.02
-28.76
-34.04
-39.74
-45.36
-50.06
-52.85
-52.94
-49.96
-44.14
-36.26
-27.31
-18.29
-9.95
-2.68
3.40
8.37
12.39
15.58
17.98
19.57
20.31
20.20
19.33
17.91
16.21
14.51
12.97
11.61
10.34
8.99
7.37
5.35
2.88
0.03
-3.05
-6.17
-9.21
-12.17
-15.18
-18.50
-22.37
-26.93
-32.06
-37.34
-42.01
-45.15
-45.91
-43.81
-38.90
-31.77
-23.32
-14.52
-6.08
1.59
8.35
14.16
18.91
22.45
24.69
25.66
25.60
24.85
23.74
22.47
21.03
19.32
17.22
14.75
12.04
9.37
6.97
4.99
3.38
1.89
0.24
-1.84
-4.41
-7.38
-10.59
-13.95
-17.53
-21.55
-26.18
-31.33
-36.45
-40.68
-43.03
-42.78
-39.70
-34.12
-26.84
-18.78
-10.85
-3.67
2.36
7.13
10.72
13.35
15.29
16.74
17.82
18.52
18.76
18.53
17.87
16.92
15.85
14.76
13.66
12.49
11.19
9.66
7.86
5.72
3.21
0.31
-2.89
-6.27
-9.66
-12.98
-16.19
-19.40
-22.75
-26.34
-30.14
-33.92
-37.20
-39.32
-39.61
-37.61
-33.24
-26.88
-19.25
-11.24
-3.66
2.92
8.23
12.24
15.07
16.92
18.01
18.57
18.81
18.86
18.77
18.56
18.25
17.84
17.30
16.60
15.65
14.38
12.71
10.70
8.41
5.92
3.29
0.51
-2.39
-5.37
-8.37
-11.37
-14.42
-17.67
-21.30
-25.42
-29.90
-34.29
-37.89
-39.89
-39.60
-36.70
-31.39
-24.30
-16.40
-8.64
-1.74
3.97
8.47
11.98
14.69
16.77
18.25
19.21
19.71
19.91
19.96
19.97
20.00
20.01
19.89
19.57
18.98
18.11
17.06
15.88
14.62
13.19
11.46
9.31
6.71
3.77
0.67
-2.45
-5.65
-9.08
-12.93
-17.12
-21.17
-24.28
-25.61
-24.54
-20.99
-15.38
-8.54
-1.33
5.50
11.50
16.40
20.06
22.34
23.16
22.55
20.70
17.98
14.88
11.87
9.26
7.24
5.77
4.72
3.89
3.07
2.06
0.73
-0.98
-3.00
-5.17
-7.34
-9.47
-11.61
-13.97
-16.73
-20.05
-23.93
-28.19
-32.49
-36.32
-39.12
-40.30
-39.41
-36.30
-31.18
-24.61
-17.30
-9.93
-3.03
3.02
7.93
11.42
13.28
13.42
12.05
9.69
7.00
4.67
3.15
2.53
2.61
2.98
3.15
2.74
1.53
-0.52
-3.24
-6.35
-9.57
-12.70
-15.71
-18.79
-22.23
-26.37
-31.32
-36.86
-42.37
-46.92
-49.55
-49.60
-46.85
-41.64
-34.68
-26.75
-18.51
-10.43
-2.72
4.39
10.70
15.95
19.93
22.56
23.93
24.29
23.94
23.14
22.08
20.85
19.52
18.07
16.51
14.80
12.93
10.88
8.66
6.29
3.76
1.05
-1.97
-5.45
-9.58
-14.51
-20.22
-26.45
-32.63
-37.91
-41.36
-42.20
-40.05
-35.08
-27.95
-19.57
-10.84
-2.45
5.23
12.05
17.98
23.00
27.02
29.90
31.54
31.96
31.32
29.94
28.23
26.52
24.98
23.58
22.13
20.43
18.36
15.92
13.24
10.43
7.56
4.62
1.55
-1.77
-5.47
-9.66
-14.49
-19.97
-25.94
-31.92
-37.15
-40.72
-41.84
-40.07
-35.49
-28.63
-20.32
-11.46
-2.79
5.20
12.25
18.28
23.30
27.38
30.57
32.95
34.53
35.33
35.33
34.63
33.39
31.85
30.24
28.72
27.31
25.96
24.53
22.89
20.94
18.60
15.84
12.66
9.14
5.38
1.49
-2.53
-6.82
-11.63
-17.15
-23.36
-29.86
-35.86
-40.36
-42.43
-41.52
-37.63
-31.33
-23.59
-15.48
-7.89
-1.32
4.11
8.53
12.12
14.95
16.93
17.89
17.75
16.64
14.92
13.08
11.51
10.41
9.74
9.33
8.98
8.61
8.12
7.40
6.28
4.59
2.22
-0.72
-3.97
-7.19
-10.16
-12.90
-15.64
-18.76
-22.56
-27.12
-32.22
-37.26
-41.40
-43.72
-43.52
-40.46
-34.71
-26.93
-18.08
-9.16
-1.00
5.92
11.42
15.58
18.55
20.48
21.52
21.84
21.64
21.11
20.43
19.72
18.98
18.16
17.21
16.10
14.84
13.43
11.80
9.89
7.62
4.97
2.00
-1.18
-4.45
-7.80
-11.27
-15.03
-19.25
-24.08
-29.47
-35.12
-40.46
-44.71
-47.06
-46.91
-44.05
-38.70
-31.50
-23.27
-14.81
-6.77
0.45
6.64
11.73
15.75
18.76
20.85
22.15
22.79
22.92
22.64
22.05
21.21
20.23
19.26
18.43
17.84
17.44
17.03
16.28
14.90
12.68
9.66
6.01
2.02
-2.04
-6.02
-9.92
-13.87
-18.03
-22.56
-27.47
-32.51
-37.12
-40.52
-41.90
-40.65
-36.62
-30.18
-22.11
-13.34
-4.70
3.22
10.15
15.98
20.67
24.23
26.69
28.16
28.86
29.05
28.94
28.64
28.18
27.49
26.55
25.40
24.13
22.80
21.42
19.89
18.06
15.76
12.87
9.36
5.31
0.86
-3.78
-8.44
-12.98
-17.45
-22.06
-27.10
-32.77
-38.97
-45.22
-50.70
-54.51
-55.90
-54.58
-50.72
-44.84
-37.58
-29.59
-21.41
-13.45
-6.08
0.43
5.91
10.34
13.83
16.49
18.48
19.85
20.69
21.02
20.93
20.49
19.79
18.92
17.93
16.90
15.80
14.53
12.90
10.71
7.86
4.42
0.63
-3.18
-6.69
-9.69
-12.18
-14.39
-16.77
-19.81
-23.84
-28.87
-34.38
-39.43
-42.92
-43.95
-42.08
-37.46
-30.68
-22.58
-13.95
-5.43
2.59
9.90
16.41
22.06
26.81
30.67
33.63
35.75
37.12
37.89
38.18
38.13
37.82
37.33
36.70
35.97
35.15
34.15
32.86
31.16
28.98
26.35
23.33
19.99
16.37
12.48
8.34
4.03
-0.37
-4.79
-9.29
-13.99
-19.02
-24.33
-29.62
-34.27
-37.46
-38.41
-36.68
-32.28
-25.76
-17.97
-9.82
-2.02
5.08
11.37
16.85
21.46
25.05
27.49
28.75
29.00
28.56
27.80
26.94
26.11
25.28
24.42
23.49
22.52
21.49
20.34
18.91
17.00
14.44
11.21
7.45
3.44
-0.48
-4.05
-7.14
-9.85
-12.41
-15.12
-18.27
-22.06
-26.47
-31.27
-35.90
-39.58
-41.49
-40.97
-37.70
-31.88
-24.10
-15.17
-5.95
2.89
10.85
17.67
23.19
27.33
30.07
31.46
31.65
30.91
29.58
27.96
26.30
24.71
23.14
21.49
19.69
17.76
15.84
14.04
12.36
10.63
8.57
5.98
2.86
-0.56
-3.95
-7.04
-9.82
-12.55
-15.62
-19.32
-23.69
-28.43
-32.93
-36.47
-38.35
-38.08
-35.44
-30.60
-23.96
-16.19
-8.03
-0.17
6.86
12.73
17.32
20.66
22.82
23.94
24.16
23.60
22.49
21.05
19.53
18.12
16.92
15.86
14.80
13.62
12.24
10.71
9.09
7.42
5.72
3.91
1.93
-0.24
-2.58
-5.07
-7.69
-10.44
-13.42
-16.68
-20.24
-23.93
-27.40
-30.09
-31.40
-30.84
-28.28
-23.97
-18.48
-12.58
-6.93
-2.03
1.82
4.50
5.95
6.23
5.47
3.96
2.06
0.14
-1.57
-2.94
-4.03
-4.94
-5.81
-6.79
-7.98
-9.43
-11.13
-13.01
-14.97
-16.91
-18.82
-20.75
-22.82
-25.20
-28.10
-31.66
-35.90
-40.59
-45.19
-48.88
-50.71
-49.97
-46.41
-40.35
-32.55
-24.00
-15.56
-7.75
-0.75
5.46
10.93
15.59
19.21
21.59
22.62
22.42
21.37
19.95
18.60
17.49
16.54
15.46
13.95
11.84
9.20
6.23
3.17
0.15
-2.85
-5.93
-9.29
-13.10
-17.56
-22.79
-28.80
-35.29
-41.62
-46.90
-50.17
-50.78
-48.49
-43.69
-37.13
-29.68
-22.14
-15.06
-8.70
-3.20
1.41
5.09
7.77
9.38
9.92
9.46
8.21
6.50
4.72
3.21
2.13
1.39
0.69
-0.39
-2.18
-4.79
-8.06
-11.64
-15.23
-18.73
-22.31
-26.35
-31.23
-37.09
-43.64
-50.17
-55.65
-59.13
-59.95
-58.01
-53.69
-47.68
-40.57
-32.60
-23.56
-12.92
-0.17
14.94
32.29
51.45
71.85
92.91
114.18
135.36
156.30
177.00
197.53
217.77
237.15
254.47
268.02
275.97
276.99
270.62
257.37
238.34
214.66
187.01
155.62
120.57
82.23
41.65
0.65
-38.51
-73.50
-102.40
-123.94
-137.54
-143.28
-141.78
-134.08
-121.56
-105.85
-88.68
-71.62
-55.93
-42.44
-31.52
-23.11
-16.91
-12.45
-9.27
-7.03
-5.56
-4.85
-4.96
-5.93
-7.73
-10.16
-12.95
-15.82
-18.57
-21.12
-23.55
-26.05
-28.89
-32.34
-36.56
-41.70
-47.81
-54.95
-63.17
-72.33
-81.99
-91.36
-99.30
-104.63
-106.36
-103.99
-97.59
-87.82
-75.68
-62.38
-48.95
-36.10
-24.05
-12.60
-1.35
10.00
21.35
32.17
41.67
49.07
53.91
56.14
56.06
54.12
50.76
46.32
41.09
35.15
28.46
20.76
11.59
0.43
-13.07
-28.87
-46.44
-64.73
-82.44
-98.32
-111.43
-121.35
-128.12
-132.09
-133.65
-133.04
-130.21
-124.95
-117.02
-106.34
-93.14
-77.95
-61.44
-44.30
-27.02
-9.93
6.83
23.13
38.77
53.39
66.59
77.96
87.28
94.52
99.83
103.46
105.64
106.51
106.13
104.57
101.92
98.31
93.86
88.60
82.51
75.58
67.89
59.70
51.39
43.38
35.98
29.36
23.55
18.49
14.04
9.99
6.10
2.06
-2.41
-7.46
-13.07
-18.96
-24.66
-29.63
-33.40
-35.73
-36.60
-36.16
-34.53
-31.66
-27.36
-21.41
-13.87
-5.24
3.54
11.29
16.96
19.89
20.00
17.59
13.21
7.45
0.82
-6.21
-13.21
-19.81
-25.71
-30.72
-34.84
-38.18
-40.98
-43.48
-45.87
-48.16
-50.06
-50.96
-50.03
-46.40
-39.57
-29.70
-17.84
-5.85
4.04
9.81
10.32
5.77
-2.32
-11.64
-19.88
-25.45
-28.01
-28.29
-27.60
-26.95
-26.38
-24.68
-19.79
-9.63
6.80
28.81
53.80
77.90
96.90
107.24
106.89
95.59
74.83
47.38
16.68
-13.79
-41.10
-63.23
-79.18
-88.75
-92.17
-89.81
-81.96
-68.86
-50.82
-28.60
-3.60
22.15
46.47
67.65
85.22
100.09
114.19
129.46
146.76
165.33
183.05
197.36
206.28
208.87
205.17
195.55
180.39
160.10
135.51
108.17
80.22
53.72
29.98
9.23
-9.13
-25.89
-41.32
-54.95
-65.90
-73.48
-77.61
-78.92
-78.52
-77.59
-77.14
-77.89
-80.31
-84.65
-90.76
-98.05
-105.47
-111.82
-116.11
-118.02
-117.89
-116.59
-115.12
-114.10
-113.64
-113.32
-112.56
-110.90
-108.33
-105.28
-102.48
-100.71
-100.45
-101.70
-103.94
-106.19
-107.18
-105.73
-101.05
-92.98
-82.06
-69.31
-55.95
-42.92
-30.77
-19.57
-9.22
0.43
9.37
17.47
24.49
30.20
34.49
37.33
38.81
39.14
38.64
37.65
36.49
35.42
34.53
33.82
33.21
32.60
31.84
30.79
29.26
27.11
24.25
20.75
16.87
12.93
9.31
6.29
3.96
2.16
0.55
-1.28
-3.68
-6.93
-11.15
-16.31
-22.25
-28.53
-34.45
-39.09
-41.53
-41.09
-37.56
-31.26
-22.93
-13.47
-3.70
5.80
14.70
22.83
30.05
36.22
41.19
44.90
47.43
48.99
49.90
50.47
50.96
51.42
51.83
52.04
51.94
51.51
50.81
49.98
49.12
48.24
47.25
45.98
44.26
41.99
39.23
36.12
32.88
29.67
26.58
23.56
20.44
17.05
13.23
8.96
4.23
-0.90
-6.32
-11.82
-16.99
-21.23
-23.81
-24.08
-21.72
-16.89
-10.17
-2.38
5.67
13.40
20.46
26.71
32.02
36.28
39.33
41.13
41.77
41.54
40.82
40.02
39.41
39.07
38.91
38.74
38.36
37.73
36.89
36.02
35.28
34.71
34.21
33.55
32.42
30.61
28.03
24.78
21.11
17.27
13.50
9.87
6.35
2.78
-1.01
-5.16
-9.79
-14.87
-20.16
-25.21
-29.37
-31.92
-32.27
-30.10
-25.52
-18.99
-11.22
-2.98
5.07
12.39
18.64
23.68
27.50
30.19
31.91
32.86
33.25
33.27
33.10
32.83
32.49
32.03
31.40
30.57
29.63
28.67
27.80
26.98
26.05
24.79
22.98
20.55
17.61
14.38
11.10
7.94
4.96
2.06
-0.95
-4.31
-8.25
-12.90
-18.23
-23.94
-29.45
-34.01
-36.81
-37.25
-35.09
-30.58
-24.34
-17.20
-9.93
-3.09
3.05
8.45
13.12
17.02
20.07
22.17
23.26
23.47
23.06
22.36
21.64
21.05
20.58
20.08
19.43
18.52
17.36
15.99
14.42
12.57
10.35
7.63
4.46
1.00
-2.48
-5.75
-8.70
-11.38
-13.98
-16.71
-19.77
-23.25
-27.14
-31.28
-35.31
-38.63
-40.54
-40.41
-37.86
-32.95
-26.16
-18.29
-10.18
-2.56
4.11
9.63
14.04
17.50
20.22
22.33
23.88
24.86
25.25
25.12
24.66
24.11
23.65
23.36
23.14
22.77
22.07
20.94
19.40
17.54
15.47
13.16
10.60
7.73
4.56
1.22
-2.14
-5.37
-8.46
-11.55
-14.92
-18.80
-23.20
-27.83
-32.03
-35.00
-36.02
-34.74
-31.27
-26.11
-19.98
-13.60
-7.47
-1.86
3.15
7.55
11.36
14.54
17.08
19.01
20.45
21.59
22.57
23.46
24.17
24.55
24.47
23.96
23.15
22.23
21.33
20.38
19.18
17.52
15.28
12.53
9.45
6.26
3.09
-0.08
-3.45
-7.26
-11.70
-16.76
-22.19
-27.41
-31.67
-34.19
-34.47
-32.43
-28.44
-23.19
-17.45
-11.87
-6.88
-2.70
0.55
2.81
4.04
4.28
3.71
2.59
1.26
-0.00
-1.09
-2.03
-2.96
-4.01
-5.25
-6.63
-8.06
-9.46
-10.80
-12.12
-13.50
-14.99
-16.66
-18.49
-20.47
-22.67
-25.21
-28.26
-31.91
-36.06
-40.29
-43.95
-46.24
-46.46
-44.33
-40.00
-34.09
-27.42
-20.75
-14.58
-9.09
-4.26
-0.03
3.62
6.60
8.76
10.00
10.31
9.83
8.78
7.44
6.05
4.83
3.82
2.99
2.21
1.31
0.16
-1.30
-3.05
-5.05
-7.22
-9.49
-11.82
-14.25
-16.89
-19.95
-23.64
-28.01
-32.85
-37.60
-41.45
-43.55
-43.28
-40.45
-35.37
-28.72
-21.35
-14.04
-7.33
-1.49
3.47
7.63
11.10
13.89
15.96
17.24
17.70
17.46
16.74
15.81
14.91
14.17
13.54
12.86
11.95
10.69
9.07
7.13
4.93
2.49
-0.21
-3.15
-6.25
-9.47
-12.80
-16.41
-20.60
-25.63
-31.48
-37.65
-43.22
-47.07
-48.26
-46.39
-41.63
-34.71
-26.53
-17.99
-9.76
-2.29
4.22
9.68
14.08
17.47
19.99
21.79
23.00
23.72
23.99
23.80
23.19
22.26
21.20
20.21
19.38
18.69
17.96
16.96
15.47
13.44
10.90
8.01
4.90
1.65
-1.71
-5.20
-8.88
-12.85
-17.29
-22.30
-27.90
-33.80
-39.41
-43.86
-46.23
-45.83
-42.44
-36.38
-28.45
-19.65
-10.92
-2.87
4.26
10.49
15.93
20.67
24.66
27.80
30.02
31.36
31.96
32.01
31.71
31.18
30.43
29.48
28.34
27.15
26.04
25.12
24.34
23.46
22.18
20.18
17.38
13.92
10.10
6.27
2.65
-0.74
-4.03
-7.41
-11.11
-15.33
-20.20
-25.70
-31.55
-37.14
-41.63
-44.11
-43.90
-40.83
-35.29
-28.03
-19.96
-11.80
-3.98
3.31
9.98
15.92
20.90
24.69
27.18
28.40
28.62
28.20
27.54
26.89
26.39
26.02
25.70
25.32
24.85
24.26
23.60
22.83
21.86
20.50
18.50
15.70
12.16
8.10
3.93
0.04
-3.36
-6.30
-9.01
-11.85
-15.15
-19.14
-23.86
-29.15
-34.60
-39.54
-43.15
-44.67
-43.61
-39.92
-33.96
-26.42
-18.01
-9.36
-0.94
6.89
13.84
19.63
24.10
27.15
28.90
29.63
29.70
29.47
29.21
29.00
28.75
28.23
27.24
25.67
23.56
21.12
18.56
16.04
13.55
10.91
7.91
4.45
0.55
-3.57
-7.67
-11.55
-15.22
-18.82
-22.62
-26.91
-31.85
-37.36
-43.09
-48.40
-52.47
-54.46
-53.80
-50.31
-44.30
-36.44
-27.51
-18.26
-9.21
-0.71
7.07
13.96
19.83
24.57
28.18
30.78
32.59
33.86
34.73
35.25
35.33
34.87
33.83
32.35
30.67
29.09
27.83
26.88
26.03
24.91
23.12
20.43
16.79
12.41
7.66
2.92
-1.51
-5.54
-9.25
-12.88
-16.80
-21.35
-26.74
-32.84
-39.12
-44.67
-48.44
-49.50
-47.45
-42.45
-35.22
-26.73
-17.89
-9.35
-1.44
5.75
12.20
17.85
22.64
26.44
29.22
30.99
31.91
32.16
31.99
31.58
31.02
30.34
29.54
28.62
27.62
26.59
25.53
24.35
22.91
21.01
18.55
15.54
12.09
8.41
4.70
1.11
-2.34
-5.72
-9.23
-13.08
-17.46
-22.44
-27.94
-33.68
-39.23
-44.03
-47.42
-48.81
-47.83
-44.43
-38.92
-31.85
-23.90
-15.65
-7.55
0.09
7.05
13.11
18.07
21.81
24.30
25.66
26.12
25.97
25.50
24.93
24.40
23.91
23.40
22.77
21.98
21.02
19.95
18.83
17.63
16.26
14.52
12.28
9.42
6.02
2.24
-1.65
-5.44
-8.98
-12.29
-15.53
-18.96
-22.84
-27.36
-32.50
-37.87
-42.81
-46.42
-47.89
-46.67
-42.69
-36.37
-28.47
-19.88
-11.42
-3.65
3.11
8.79
13.39
17.01
19.72
21.55
22.54
22.74
22.31
21.49
20.57
19.81
19.34
19.15
19.08
18.97
18.62
17.91
16.71
14.88
12.35
9.16
5.54
1.89
-1.35
-3.89
-5.75
-7.31
-9.14
-11.87
-15.91
-21.28
-27.70
-34.53
-40.97
-46.17
-49.37
-50.08
-48.08
-43.53
-36.83
-28.61
-19.57
-10.45
-1.91
5.56
11.68
16.42
19.94
22.49
24.21
25.17
25.35
24.78
23.62
22.14
20.64
19.24
17.91
16.44
14.60
12.28
9.52
6.53
3.55
0.70
-2.02
-4.76
-7.68
-10.88
-14.32
-17.89
-21.52
-25.25
-29.24
-33.57
-38.08
-42.20
-45.04
-45.68
-43.47
-38.38
-30.97
-22.20
-13.09
-4.49
3.10
9.47
14.54
18.30
20.80
22.21
22.80
22.93
22.96
23.12
23.52
24.12
24.85
25.71
26.74
27.98
29.39
30.76
31.77
32.04
31.23
29.21
26.00
21.85
17.06
11.92
6.61
1.10
-4.75
-11.18
-18.30
-25.96
-33.65
-40.49
-45.49
-47.82
-47.07
-43.40
-37.46
-30.21
-22.58
-15.26
-8.67
-2.91
2.04
6.23
9.67
12.34
14.18
15.14
15.17
14.28
12.55
10.18
7.46
4.77
2.42
0.63
-0.58
-1.36
-2.02
-2.85
-4.10
-5.79
-7.81
-9.88
-11.73
-13.27
-14.54
-15.81
-17.41
-19.72
-22.92
-26.94
-31.36
-35.39
-38.06
-38.41
-35.85
-30.34
-22.47
-13.23
-3.75
5.09
12.79
19.18
24.33
28.33
31.25
33.10
33.91
33.79
32.94
31.68
30.29
29.05
28.05
27.24
26.45
25.46
24.12
22.43
20.44
18.27
15.99
13.60
11.06
8.35
