1677653060.00
64.000000
-0.00
-0.00
-0.00
-0.00
-0.00
-0.00
-0.00
-0.00
-0.00
-0.00
0.00
0.01
0.01
-0.00
-0.03
-0.05
-0.05
0.00
0.13
0.36
0.66
1.01
1.37
1.72
2.06
2.40
2.79
3.24
3.80
4.42
5.06
5.66
6.20
6.68
7.15
7.68
8.31
9.14
10.09
11.04
11.88
12.56
13.14
13.76
14.65
15.96
17.91
20.32
22.90
25.38
27.58
29.57
31.68
34.32
37.81
42.54
48.15
54.10
59.83
64.97
69.58
74.14
79.34
85.71
93.76
103.00
112.62
121.73
129.77
136.75
143.30
150.75
157.77
166.64
177.95
191.79
206.97
220.57
228.25
225.36
208.53
176.87
132.76
80.05
23.07
-34.94
-92.44
-149.16
-205.23
-260.37
-313.74
-363.87
-409.83
-450.91
-486.50
-515.74
-537.23
-549.22
-549.96
-538.37
-514.21
-478.67
-433.88
-382.45
-327.02
-269.84
-212.63
-156.66
-102.95
-52.37
-5.90
35.58
71.43
101.35
125.50
144.38
158.69
169.15
176.37
180.75
182.57
182.07
179.51
175.23
169.65
163.18
156.15
148.81
141.30
133.69
126.02
118.33
110.69
103.16
95.80
88.68
81.83
75.25
68.95
62.95
57.25
51.86
46.79
42.03
37.59
33.45
29.61
26.06
22.80
19.83
17.15
14.74
12.56
10.57
8.75
7.07
5.56
4.25
3.17
2.33
1.72
1.28
0.95
0.65
0.35
0.07
-0.19
-0.35
-0.41
-0.40
-0.37
-0.45
-0.70
-1.14
-1.67
-2.13
-2.38
-2.32
-2.06
-1.79
-1.81
-2.32
-3.34
-4.63
-5.82
-6.51
-6.50
-5.91
-5.19
-4.91
-5.54
-7.14
-9.34
-11.44
-12.72
-12.79
-11.83
-10.54
-9.87
-10.60
-12.88
-16.13
-19.31
-21.45
-21.93
-20.87
-18.94
-17.10
-16.39
-17.73
-21.86
-28.75
-36.94
-43.01
-42.44
-31.19
-7.77
25.52
63.21
98.52
125.37
139.95
140.89
128.81
105.80
75.38
41.24
7.84
-20.52
-40.68
-50.98
-51.32
-42.88
-27.73
-8.71
10.47
26.36
36.59
40.76
40.66
39.37
39.78
43.36
49.69
56.88
62.74
65.68
64.97
60.81
53.82
44.40
32.66
18.43
1.83
-16.13
-33.39
-47.44
-56.32
-59.43
-57.83
-53.57
-48.79
-44.82
-41.94
-39.35
-36.19
-31.83
-26.22
-19.66
-12.49
-4.89
4.08
13.96
24.46
35.01
45.01
53.80
60.86
65.93
69.06
70.57
70.47
69.49
67.83
65.71
63.30
60.81
58.57
56.95
56.34
57.02
59.38
62.80
66.82
71.24
76.08
81.50
87.55
94.20
101.31
108.97
116.20
122.47
127.58
131.67
134.82
136.82
136.91
133.51
129.59
125.13
120.08
114.85
110.30
107.26
106.14
106.86
108.95
111.92
112.65
109.20
101.56
91.44
80.85
70.90
61.46
51.56
39.98
20.96
-8.97
-49.30
-95.83
-143.46
-188.70
-230.34
-269.17
-306.64
-351.23
-408.27
-476.94
-550.49
-620.54
-680.94
-728.79
-764.27
-788.65
-812.54
-843.10
-880.14
-916.44
-943.44
-955.92
-952.89
-936.97
-857.69
-694.47
-464.83
-216.98
2.74
172.24
292.84
378.90
446.50
508.95
563.89
604.57
625.60
626.50
609.97
579.58
544.10
505.44
466.93
425.73
380.86
334.76
292.66
258.62
231.10
209.05
190.28
175.71
163.13
152.38
144.07
140.49
143.17
151.29
162.94
174.45
184.76
192.03
196.05
198.42
202.61
212.23
223.68
233.52
228.19
197.15
134.73
44.61
-60.51
-162.17
-241.83
-286.54
-291.88
-264.27
-216.10
-161.94
-113.51
-77.14
-53.69
-40.75
-35.47
-35.45
-39.89
-47.10
-54.86
-60.16
-61.03
-57.25
-50.83
-45.14
-43.05
-46.32
-53.96
-63.26
-70.82
-74.37
-73.40
-68.93
-63.01
-57.39
-53.02
-49.24
-44.47
-36.48
-24.16
-7.67
11.68
31.87
50.95
67.48
80.98
90.10
96.06
99.83
101.97
102.61
101.66
99.03
94.79
89.33
83.09
76.94
71.26
66.21
61.76
57.73
53.95
50.35
46.86
43.40
40.24
37.29
34.33
31.06
27.25
22.73
17.53
12.63
7.68
3.05
-1.07
-4.63
-7.73
-10.55
-13.16
-15.43
-17.01
-17.62
-16.81
-14.56
-11.30
-7.73
-4.58
-2.30
-0.83
0.39
2.10
5.08
9.58
15.18
21.00
26.19
30.17
33.02
35.32
37.81
41.26
46.30
53.41
62.69
73.33
83.23
89.17
87.66
76.55
56.27
30.19
3.55
-18.40
-32.29
-37.46
-35.56
-29.20
-20.72
-11.57
-2.36
6.51
14.25
19.79
22.12
20.99
16.99
12.15
8.46
7.11
8.00
9.85
10.90
9.91
6.87
3.02
0.12
-0.59
0.98
3.90
6.82
8.87
10.04
11.05
12.78
15.71
19.53
23.47
26.61
28.43
28.88
28.31
27.06
25.30
22.95
19.73
15.48
10.29
4.42
-1.79
-8.09
-14.37
-20.64
-26.93
-33.21
-39.34
-45.10
-50.28
-54.71
-58.34
-61.26
-63.63
-65.68
-67.60
-69.44
-71.15
-72.55
-73.38
-73.47
-72.73
-71.21
-69.11
-66.68
-64.23
-61.97
-59.96
-58.09
-56.15
-53.91
-51.29
-48.45
-45.73
-43.50
-41.98
-41.11
-40.65
-40.30
-39.83
-39.20
-38.54
-38.01
-37.70
-37.61
-37.63
-37.68
-37.74
-37.86
-38.07
-38.30
-38.26
-37.52
-35.58
-32.09
-26.99
-20.55
-13.27
-5.79
1.32
7.63
12.84
16.74
19.30
20.61
20.97
20.85
20.84
21.39
22.79
25.07
28.05
31.42
34.88
38.15
40.99
43.16
44.46
44.74
43.92
42.01
39.13
35.40
30.98
25.92
20.24
13.95
7.21
0.39
-5.98
-11.31
-15.16
-17.48
-18.62
-19.26
-20.17
-21.94
-24.89
-28.98
-33.86
-38.88
-43.25
-46.23
-47.28
-46.14
-42.80
-37.41
-30.27
-21.71
-12.08
-1.86
8.39
17.96
26.21
32.63
37.03
39.27
39.45
37.80
34.77
30.81
26.29
21.48
16.53
11.59
6.40
0.72
-5.42
-11.50
-16.80
-20.69
-22.81
-23.07
-21.56
-19.32
-17.45
-16.30
-15.19
-13.04
-9.30
-4.22
1.30
6.49
9.69
10.03
8.36
7.09
8.87
14.97
24.92
36.76
48.06
54.35
51.22
36.02
8.98
-27.34
-69.28
-112.91
-154.84
-180.51
-178.54
-147.40
-97.33
-42.68
6.59
46.83
78.32
102.25
120.40
132.54
137.87
136.69
131.08
123.85
117.05
111.41
105.40
98.73
90.06
77.85
61.66
42.76
23.12
4.27
-9.33
-18.12
-22.88
-24.90
-25.65
-26.06
-25.83
-24.14
-20.36
-14.37
-6.78
-0.13
6.94
14.89
23.41
32.31
41.39
50.03
57.68
64.11
69.82
75.62
81.77
87.58
92.25
94.66
93.34
87.09
75.50
58.77
36.89
14.14
-7.05
-24.26
-34.99
-37.52
-30.74
-13.57
13.41
48.10
88.16
131.18
175.51
219.37
258.03
285.66
299.60
297.65
278.82
246.00
204.52
160.89
120.64
83.60
47.99
18.63
-1.94
-15.13
-22.22
-25.36
-27.49
-32.14
-47.68
-78.84
-114.64
-144.40
-163.97
-171.81
-171.21
-169.56
-175.73
-203.78
-261.43
-335.27
-412.58
-489.09
-562.32
-632.22
-700.15
-721.19
-668.41
-615.14
-594.87
-590.67
-595.62
-600.55
-594.14
-564.84
-504.98
-421.66
-328.53
-228.77
-129.41
-41.32
32.08
93.87
150.57
208.54
266.01
318.85
371.91
424.66
468.25
493.40
492.25
460.91
401.29
318.27
222.38
133.62
68.32
33.28
28.23
46.32
76.87
109.05
132.93
143.01
139.56
124.00
98.73
68.16
36.79
7.92
-16.50
-36.39
-52.85
-66.14
-77.34
-87.96
-98.83
-110.14
-121.39
-131.67
-140.07
-145.96
-150.85
-155.72
-161.08
-166.99
-173.08
-178.58
-182.44
-183.83
-182.43
-178.52
-172.44
-164.62
-155.41
-145.15
-133.95
-121.82
-108.80
-95.18
-81.46
-68.03
-55.23
-43.30
-32.40
-22.57
-13.76
-5.96
0.79
6.38
10.89
14.49
17.49
20.21
22.97
25.93
29.06
32.16
34.96
37.40
39.65
42.18
45.57
50.28
56.51
63.97
72.09
80.18
87.84
95.19
102.80
111.55
122.23
135.11
149.86
165.70
181.65
197.07
211.83
226.38
241.65
258.81
279.12
303.54
332.03
362.99
392.92
416.99
430.32
429.65
414.61
387.83
353.99
317.98
283.40
251.81
223.05
196.24
170.69
146.31
123.44
102.41
83.27
65.82
49.90
35.57
23.10
12.80
4.68
-1.77
-7.40
-13.18
-19.77
-27.31
-35.37
-43.13
-49.62
-53.96
-55.64
-54.58
-51.25
-46.53
-41.46
-36.91
-33.33
-30.60
-28.27
-25.87
-23.18
-20.41
-18.07
-16.64
-16.35
-16.98
-18.01
-18.84
-19.08
-18.73
-18.08
-17.56
-17.45
-17.75
-18.17
-18.32
-17.95
-17.10
-16.12
-15.49
-15.59
-16.45
-17.79
-19.13
-20.08
-20.57
-20.87
-21.39
-22.41
-23.90
-25.48
-26.60
-26.74
-25.64
-23.37
-20.24
-16.64
-12.94
-9.37
-6.07
-3.18
-0.90
0.50
0.80
-0.10
-2.00
-4.46
-6.93
-8.93
-10.17
-10.61
-10.35
-9.52
-8.22
-6.60
-4.91
-3.49
-2.68
-2.70
-3.50
-4.84
-6.40
-7.95
-9.43
-10.96
-12.63
-14.45
-16.25
-17.79
-18.86
-19.44
-19.69
-19.91
-20.41
-21.36
-22.69
-24.17
-25.39
-25.90
-25.35
-23.54
-20.56
-16.72
-12.51
-8.44
-4.89
-2.06
0.05
1.51
2.42
2.84
2.84
2.56
2.23
2.07
2.26
2.83
3.63
4.39
4.79
4.56
3.54
1.75
-0.59
-3.03
-5.02
-5.95
-5.38
-3.19
0.37
4.69
8.94
12.28
14.03
13.76
11.19
6.19
-1.44
-11.88
-25.09
-40.62
-57.35
-73.64
-87.70
-98.05
-103.98
-105.78
-104.43
-101.03
-96.09
-88.98
-78.05
-61.35
-37.69
-7.59
26.35
59.95
88.55
108.32
117.27
115.53
105.02
88.62
69.33
49.64
31.26
15.07
1.15
-11.20
-23.39
-37.30
-54.70
-76.28
-100.94
-125.44
-145.13
-155.41
-153.46
-139.45
-116.70
-90.54
-66.42
-48.17
-36.92
-31.03
-27.02
-20.76
-8.71
11.30
39.82
75.83
117.10
160.55
202.71
240.18
270.14
290.83
301.82
303.90
298.70
288.02
273.32
255.46
234.67
210.94
184.40
155.61
125.73
96.36
69.22
45.74
26.67
11.84
0.32
-9.20
-17.93
-26.64
-35.53
-44.43
-52.97
-60.88
-68.02
-74.42
-80.16
-85.39
-90.24
-94.92
-99.67
-104.69
-110.01
-115.52
-120.87
-125.62
-129.44
-132.15
-133.84
-134.76
-135.14
-135.04
-134.30
-132.62
-129.76
-125.78
-121.09
-116.46
-112.86
-111.26
-112.49
-116.93
-124.31
-133.50
-142.58
-149.12
-150.77
-145.95
-134.30
-116.79
-95.32
-72.25
-49.68
-29.27
-12.06
1.31
10.52
15.57
16.88
15.36
12.32
9.18
7.19
7.18
9.47
14.10
20.96
29.92
40.79
53.16
66.36
79.43
91.37
101.31
108.70
113.38
115.51
115.57
114.22
112.22
110.21
108.49
106.87
104.79
101.65
97.23
91.93
86.67
82.41
79.64
78.13
77.03
75.24
71.91
66.67
59.56
50.76
40.34
28.39
15.34
2.02
-10.47
-21.07
-29.18
-34.83
-38.54
-41.06
-42.98
-44.50
-45.58
-46.24
-46.56
-46.66
-46.61
-46.52
-46.74
-47.96
-50.58
-54.89
-60.92
-68.18
-75.61
-81.80
-85.50
-86.09
-83.75
-78.17
-69.55
-58.52
-46.05
-32.92
-19.44
-5.57
8.64
22.64
37.11
52.13
67.07
80.90
92.93
103.24
112.50
121.48
130.83
143.49
161.82
186.43
215.20
243.69
266.32
277.88
275.04
244.82
183.66
98.60
4.76
-82.75
-155.72
-212.78
-254.66
-280.67
-290.83
-283.67
-261.71
-232.67
-206.69
-191.10
-186.40
-186.55
-181.92
-164.74
-131.41
-85.35
-34.11
15.23
59.53
99.49
136.44
168.93
191.86
200.37
192.17
169.70
139.39
109.41
86.21
72.64
67.82
68.60
71.78
74.23
72.96
65.29
49.66
26.55
-0.99
-28.08
-49.66
-61.72
-62.41
-51.91
-31.71
-3.98
28.47
62.07
92.78
116.91
132.49
139.92
142.13
143.42
147.76
157.37
172.15
190.26
208.85
225.35
237.77
245.10
247.18
244.51
238.00
228.88
218.60
208.58
199.76
191.44
182.04
169.73
153.38
133.05
109.91
85.67
61.97
39.93
18.26
-4.46
-28.84
-54.03
-78.47
-101.06
-121.68
-140.97
-159.69
-181.75
-209.66
-243.57
-280.72
-317.15
-349.96
-378.32
-403.09
-425.85
-453.67
-491.30
-539.09
-591.44
-639.56
-675.81
-696.61
-702.68
-698.01
-695.47
-705.74
-734.07
-777.47
-827.60
-876.03
-917.26
-948.92
-923.54
-812.36
-614.22
-362.10
-103.23
125.37
306.59
439.15
530.04
589.00
615.45
614.13
589.67
549.72
503.14
456.49
412.34
370.34
329.10
281.88
228.21
170.73
116.84
74.90
49.69
40.76
44.04
54.67
65.63
73.01
75.44
74.85
74.32
76.00
80.44
87.38
96.53
106.05
114.72
121.44
126.36
130.23
133.61
136.53
138.74
140.12
140.16
138.75
135.60
130.66
123.93
115.36
104.97
93.09
80.44
67.99
56.77
47.38
39.97
34.23
29.51
25.07
20.45
15.57
10.69
6.23
2.33
-1.28
-5.19
-10.05
-16.17
-23.31
-30.74
-37.47
-42.63
-45.74
-46.78
-46.09
-44.19
-41.61
-38.81
-36.17
-34.01
-32.63
-32.35
-33.44
-36.07
-40.23
-45.74
-52.24
-59.45
-67.19
-75.42
-84.09
-92.95
-101.34
-108.15
-112.06
-111.89
-107.03
-97.61
-84.43
-68.70
-51.76
-34.73
-18.47
-3.50
10.00
22.15
33.21
43.33
52.36
59.72
64.54
66.10
64.24
59.69
53.83
48.22
44.00
41.52
40.44
40.04
39.57
38.48
36.61
34.20
31.93
30.92
32.35
37.12
45.29
55.87
67.08
77.03
84.45
89.13
91.90
94.11
97.04
101.43
107.40
114.54
122.17
129.35
135.01
138.00
137.29
132.19
122.52
108.71
91.73
73.04
54.39
37.58
24.13
14.90
9.92
8.41
9.14
10.90
12.89
14.74
16.35
17.69
18.53
18.63
17.89
16.54
15.13
14.33
14.68
16.39
19.33
23.11
27.19
31.00
34.10
36.19
37.25
37.47
37.05
36.09
34.41
31.69
27.64
22.24
15.88
9.24
3.08
-2.02
-5.80
-8.31
-9.74
-10.35
-10.50
-10.64
-11.33
-13.14
-16.49
-21.44
-27.63
-34.35
-40.72
-45.96
-49.61
-51.62
-52.27
-52.14
-51.83
-51.83
-52.28
-52.90
-53.13
-52.36
-50.21
-46.78
-42.47
-37.77
-32.96
-27.99
-22.56
-16.48
-9.86
-3.17
2.95
8.00
11.77
14.35
15.97
16.86
17.24
17.42
17.80
18.83
20.82
23.69
26.95
29.84
31.58
31.71
30.22
27.58
24.51
21.67
19.37
17.54
15.82
13.88
11.60
9.19
7.01
5.28
3.94
2.57
0.69
-2.02
-5.53
-9.50
-13.45
-16.93
-19.58
-21.13
-21.32
-19.92
-16.85
-12.27
-6.62
-0.57
5.18
10.12
14.02
16.89
18.90
20.19
20.82
20.79
20.10
18.80
17.08
15.18
13.35
11.78
10.60
9.83
9.45
9.38
9.52
9.71
9.82
9.72
9.31
8.53
7.32
5.67
3.65
1.43
-0.75
-2.71
-4.42
-6.10
-8.06
-10.60
-13.76
-17.30
-20.78
-23.77
-26.01
-27.39
-27.88
-27.43
-25.88
-23.07
-19.03
-14.00
-8.49
-3.02
1.89
5.92
8.83
10.50
10.92
10.21
8.63
6.54
4.33
2.25
0.42
-1.18
-2.60
-3.88
-4.97
-5.82
-6.38
-6.69
-6.83
-6.93
-7.16
-7.70
-8.70
-10.28
-12.40
-14.77
-16.94
-18.42
-18.95
-18.57
-17.65
-16.72
-16.22
-16.36
-17.13
-18.38
-19.89
-21.42
-22.72
-23.41
-23.08
-21.37
-18.05
-13.16
-7.01
-0.11
6.92
13.49
19.09
23.46
26.55
28.50
29.42
29.36
28.28
26.14
23.08
19.53
16.10
13.41
11.77
11.13
11.09
11.09
10.68
9.67
8.10
6.18
4.13
2.02
-0.19
-2.63
-5.32
-8.12
-10.70
-12.73
-14.03
-14.76
-15.36
-16.40
-18.29
-21.10
-24.56
-28.12
-31.20
-33.37
-34.35
-34.01
-32.28
-29.13
-24.63
-18.97
-12.54
-5.88
0.45
5.97
10.38
13.66
15.97
17.57
18.69
19.54
20.18
20.59
20.70
20.43
19.77
18.74
17.46
16.04
14.55
13.00
11.31
9.41
7.23
4.78
2.12
-0.68
-3.54
-6.36
-9.01
-11.31
-13.10
-14.30
-14.95
-15.28
-15.60
-16.24
-17.48
-19.41
-21.85
-24.35
-26.24
-26.86
-25.77
-22.91
-18.69
-13.72
-8.62
-3.83
0.51
4.42
8.00
11.28
14.21
16.67
18.57
19.81
20.32
20.08
19.10
17.46
15.30
12.86
10.42
8.37
7.04
6.75
7.57
9.38
11.79
14.26
16.24
17.33
17.33
16.31
14.48
12.11
9.38
6.35
2.97
-0.85
-5.10
-9.62
-14.11
-18.21
-21.57
-23.92
-25.07
-24.98
-23.71
-21.42
-18.30
-14.60
-10.56
-6.41
-2.38
1.28
4.34
6.74
8.51
9.84
10.87
11.64
12.08
12.07
11.55
10.64
9.52
8.36
7.23
6.10
4.93
3.74
2.61
1.60
0.73
-0.06
-0.85
-1.75
-2.81
-4.16
-5.96
-8.39
-11.51
-15.17
-18.96
-22.33
-24.76
-25.96
-25.89
-24.69
-22.51
-19.44
-15.56
-11.00
-6.03
-1.03
3.61
7.57
10.62
12.53
13.06
12.09
9.77
6.73
4.02
2.83
3.97
7.55
12.88
18.75
24.01
27.94
30.56
32.47
34.52
37.39
41.29
45.76
49.71
51.75
50.57
45.51
36.81
25.57
13.36
1.66
-8.60
-17.17
-24.39
-31.12
-38.62
-48.28
-60.97
-76.08
-90.85
-100.86
-101.68
-91.13
-71.01
-46.94
-26.13
-14.35
-13.42
-20.89
-31.78
-41.27
-46.82
-48.55
-48.03
-46.69
-44.80
-41.60
-36.23
-28.67
-19.92
-11.57
-4.91
-0.27
3.08
6.43
10.86
16.74
23.50
29.97
34.95
37.66
38.06
36.72
34.57
32.47
31.01
30.38
30.37
30.56
30.39
29.40
27.27
23.87
19.25
13.58
7.05
-0.12
-7.61
-14.94
-21.44
-26.37
-29.13
-29.52
-27.84
-24.83
-21.44
-18.44
-16.28
-14.96
-14.16
-13.34
-11.99
-9.73
-6.49
-2.55
1.41
4.49
5.79
4.75
1.40
-3.54
-8.89
-13.40
-16.16
-16.95
-16.31
-15.29
-15.12
-16.67
-20.24
-25.38
-31.08
-36.05
-39.02
-38.89
-34.90
-26.67
-14.30
1.58
19.92
39.45
59.03
77.76
95.07
110.47
123.39
133.23
139.65
142.87
143.80
143.63
143.16
142.09
138.97
131.74
118.85
100.11
76.99
52.06
28.04
6.93
-10.38
-23.90
-34.13
-41.71
-47.21
-51.27
-54.48
-57.29
-59.78
-61.63
-62.28
-61.33
-58.88
-55.55
-52.19
-49.42
-47.38
-45.71
-43.85
-41.44
-38.57
-35.83
-34.06
-34.04
-36.17
-40.38
-46.07
-52.32
-58.13
-62.63
-65.28
-65.88
-64.49
-61.25
-56.25
-49.51
-41.04
-31.10
-20.28
-9.51
0.20
8.03
13.63
17.12
18.94
19.61
19.65
19.53
19.70
20.62
22.60
25.66
29.41
33.12
35.98
37.36
36.95
34.78
31.07
26.17
20.52
14.66
9.16
4.57
1.21
-0.90
-2.01
-2.51
-2.78
-3.10
-3.58
-4.24
-5.00
-5.66
-5.97
-5.69
-4.61
-2.74
-0.22
2.63
5.48
8.01
9.96
11.13
11.35
10.47
8.39
5.13
0.95
-3.72
-8.33
-12.39
-15.65
-18.11
-19.94
-21.34
-22.37
-22.93
-22.87
-22.18
-21.04
-19.77
-18.69
-17.95
-17.49
-17.16
-16.84
-16.54
-16.37
-16.52
-17.10
-18.13
-19.57
-21.24
-22.86
-24.00
-24.10
-22.67
-19.52
-14.92
-9.55
-4.17
0.65
4.75
8.33
11.66
14.87
17.82
20.25
21.96
22.87
23.08
22.68
21.73
20.19
18.09
15.63
13.15
11.12
9.90
9.63
10.20
11.29
12.44
13.16
13.13
12.19
10.47
8.29
6.03
3.94
2.03
0.10
-2.19
-5.16
-8.95
-13.57
-18.81
-24.25
-29.29
-33.20
-35.23
-34.80
-31.76
-26.41
-19.47
-11.87
-4.46
2.10
7.46
11.54
14.52
16.76
18.71
20.78
23.14
25.65
27.94
29.50
30.01
29.35
27.70
25.33
22.51
19.42
16.22
13.07
10.22
7.85
5.98
4.46
2.98
1.27
-0.74
-2.94
-5.12
-7.15
-9.11
-11.26
-13.94
-17.38
-21.56
-26.13
-30.50
-33.90
-35.65
-35.25
-32.55
-27.86
-21.72
-14.85
-7.86
-1.15
5.00
10.39
14.82
18.15
20.31
21.41
21.65
21.25
20.33
18.96
17.14
14.99
12.69
10.47
8.46
6.70
5.13
3.64
2.18
0.75
-0.64
-1.98
-3.28
-4.56
-5.76
-6.84
-7.75
-8.49
-9.14
-9.81
-10.58
-11.57
-12.91
-14.78
-17.32
-20.44
-23.79
-26.78
-28.77
-29.31
-28.27
-25.82
-22.32
-18.10
-13.40
-8.40
-3.28
1.80
6.73
11.49
16.16
20.68
24.73
27.78
29.32
29.20
27.80
25.91
24.33
23.48
23.24
23.10
22.53
21.33
19.66
17.80
15.87
13.69
11.00
7.73
4.25
1.23
-0.70
-1.36
-1.17
-0.94
-1.50
-3.35
-6.49
-10.53
-14.92
-19.08
-22.46
-24.58
-25.04
-23.58
-20.28
-15.53
-9.98
-4.34
0.76
4.93
8.06
10.32
12.00
13.42
14.76
16.02
17.00
17.46
17.32
16.67
15.80
15.00
14.44
14.06
13.70
13.17
12.45
11.65
10.94
10.35
9.75
8.84
7.31
5.03
2.09
-1.23
-4.64
-7.97
-11.17
-14.34
-17.53
-20.75
-23.88
-26.70
-28.94
-30.31
-30.48
-29.17
-26.29
-21.97
-16.65
-10.95
-5.50
-0.73
3.22
6.55
9.62
12.80
16.20
19.64
22.65
24.77
25.73
25.71
25.18
24.75
24.80
25.33
25.90
25.96
25.06
23.10
20.29
16.95
13.40
9.80
6.27
2.90
-0.20
-2.98
-5.59
-8.32
-11.55
-15.49
-20.02
-24.77
-29.18
-32.72
-35.08
-36.09
-35.70
-33.86
-30.59
-26.07
-20.73
-15.14
-9.93
-5.50
-1.94
0.95
3.42
5.63
7.53
8.89
9.48
9.27
8.49
7.65
7.33
7.95
9.64
12.14
14.92
17.34
18.80
18.91
17.53
14.70
10.67
5.76
0.30
-5.41
-11.10
-16.53
-21.43
-25.48
-28.43
-30.14
-30.74
-30.60
-30.18
-29.95
-30.13
-30.72
-31.43
-31.88
-31.69
-30.60
-28.53
-25.53
-21.76
-17.43
-12.78
-8.06
-3.50
0.69
4.31
7.18
9.20
10.26
10.31
9.28
7.22
4.28
0.87
-2.45
-5.08
-6.62
-6.93
-6.13
-4.52
-2.44
-0.21
1.83
3.30
3.86
3.32
1.83
-0.17
-2.09
-3.53
-4.47
-5.22
-6.22
-7.70
-9.60
-11.65
-13.62
-15.58
-17.88
-20.91
-24.92
-29.90
-35.66
-42.08
-49.40
-58.17
-69.12
-82.91
-99.88
-119.79
-141.89
-165.14
-188.47
-210.80
-230.85
-246.90
-256.56
-257.29
-247.10
-225.32
-193.06
-152.73
-106.87
-57.13
-4.07
51.68
107.73
158.82
197.60
217.09
213.78
189.66
151.81
109.67
71.34
40.91
17.78
-1.51
-20.42
-40.12
-58.92
-73.53
-81.20
-81.36
-75.90
-68.03
-60.51
-54.38
-48.53
-40.83
-29.48
-13.95
5.00
26.22
49.17
74.19
102.04
132.75
164.95
195.82
222.07
241.07
251.65
254.21
250.26
241.70
230.30
217.40
203.78
189.72
174.96
158.91
140.84
120.30
97.28
72.25
45.97
19.43
-6.14
-29.13
-47.51
-59.17
-62.62
-57.68
-45.88
-30.16
-13.97
-0.21
9.58
15.47
18.69
20.93
23.59
27.39
32.37
37.98
43.44
47.94
50.87
51.88
51.02
48.62
45.25
41.40
37.32
32.91
27.94
22.37
16.63
11.63
8.53
8.15
10.61
15.30
21.11
26.95
32.06
36.07
38.83
40.14
39.70
37.29
33.03
27.48
21.53
16.01
11.45
7.89
5.01
2.43
-0.04
-2.28
-3.94
-4.64
-4.19
-2.80
-1.10
0.06
-0.12
-2.05
-5.52
-9.80
-13.91
-16.97
-18.60
-18.97
-18.65
-18.22
-17.96
-17.62
-16.60
-14.22
-10.13
-4.61
1.47
6.78
9.97
10.00
6.42
-0.55
-10.06
-20.94
-31.93
-41.95
-50.24
-56.31
-59.91
-60.93
-59.44
-55.79
-50.67
-45.16
-40.56
-38.17
-39.00
-43.55
-51.51
-61.59
-71.58
-78.69
-80.23
-74.41
-60.97
-41.37
-18.24
5.38
26.92
44.76
58.30
67.67
73.36
76.00
76.21
74.57
71.56
67.52
62.74
57.56
52.49
48.24
45.54
44.85
46.05
48.32
50.25
50.21
46.82
39.28
27.61
12.57
-4.62
-22.62
-40.17
-56.28
-70.21
-81.44
-89.68
-94.94
-97.47
-97.71
-96.21
-93.36
-89.40
-84.38
-78.31
-71.27
-63.53
-55.57
-47.95
-41.23
-35.79
-31.76
-28.97
-27.08
-25.64
-24.29
-22.93
-21.67
-20.80
-20.55
-20.96
-21.77
-22.49
-22.62
-21.83
-20.05
-17.47
-14.40
-11.21
-8.13
-5.30
-2.74
-0.34
2.04
4.58
7.33
10.17
12.79
14.67
15.21
13.98
10.87
6.22
0.79
-4.43
-8.44
-10.52
-10.34
-8.00
-3.97
1.12
6.57
11.77
16.22
19.66
21.97
23.20
23.43
22.79
21.40
19.45
17.22
15.08
13.39
12.29
11.70
11.34
10.94
10.33
9.53
8.67
7.80
6.77
5.32
3.22
0.41
-2.86
-6.23
-9.34
-12.08
-14.64
-17.36
-20.53
-24.23
-28.23
-32.14
-35.57
-38.26
-40.05
-40.90
-40.68
-39.14
-35.98
-31.05
-24.55
-17.06
-9.54
-3.00
1.79
4.55
5.51
5.23
4.39
3.45
2.61
1.79
0.84
-0.47
-2.32
-4.83
-7.96
-11.26
-13.67
-13.64
-9.60
-0.71
12.54
28.19
43.38
55.26
61.93
62.91
58.92
51.29
41.36
30.14
18.37
6.73
-4.11
-13.55
-21.29
-27.41
-32.23
-35.95
-38.48
-39.30
-37.74
-33.28
-25.92
-16.23
-5.21
5.92
16.07
24.45
30.57
34.26
35.58
34.75
32.19
28.41
24.03
19.63
15.71
12.58
10.37
9.04
8.48
8.51
8.96
9.61
10.26
10.66
10.61
10.03
8.95
7.50
5.75
3.67
1.09
-2.21
-6.33
-11.17
-16.40
-21.57
-26.24
-30.06
-32.83
-34.46
-34.84
-33.88
-31.44
-27.46
-22.03
-15.50
-8.44
-1.58
4.45
9.27
12.89
15.63
17.93
20.09
22.11
23.72
24.61
24.60
23.80
22.51
21.10
19.78
18.64
17.65
16.85
16.29
16.07
16.18
16.41
16.42
15.84
14.40
12.01
8.77
4.96
0.92
-3.01
-6.59
-9.68
-12.35
-14.74
-17.09
-19.64
-22.52
-25.72
-29.07
-32.21
-34.66
-35.87
-35.37
-32.84
-28.32
-22.14
-14.92
-7.39
-0.21
6.17
11.53
15.85
19.18
21.61
23.16
23.83
23.65
22.72
21.21
19.41
17.59
16.03
14.88
14.19
13.85
13.67
13.39
12.80
11.73
10.13
8.07
5.65
3.02
0.37
-2.17
-4.51
-6.63
-8.62
-10.54
-12.38
-14.01
-15.16
-15.62
-15.34
-14.54
-13.68
-13.23
-13.40
-14.05
-14.62
-14.40
-12.76
-9.44
-4.59
1.26
7.45
13.31
18.34
22.22
24.80
25.97
25.67
23.91
20.88
16.97
12.79
9.02
6.25
4.78
4.57
5.27
6.43
7.62
8.60
9.24
9.49
9.37
8.86
7.96
6.67
5.02
3.00
0.60
-2.17
-5.22
-8.39
-11.51
-14.49
-17.36
-20.30
-23.48
-26.92
-30.40
-33.45
-35.55
-36.22
-35.17
-32.36
-27.93
-22.22
-15.68
-8.86
-2.30
3.54
8.34
12.01
14.59
16.24
17.13
17.42
17.20
16.58
15.64
14.46
13.12
11.72
10.37
9.18
8.24
7.68
7.51
7.72
8.16
8.58
8.70
8.32
7.39
6.01
4.36
2.55
0.61
-1.53
-3.90
-6.46
-9.11
-11.74
-14.33
-17.05
-20.12
-23.68
-27.60
-31.47
-34.67
-36.55
-36.63
-34.71
-30.91
-25.54
-19.05
-11.94
-4.69
2.24
8.47
13.68
17.74
20.68
22.70
24.02
24.76
24.94
24.49
23.42
21.92
20.32
18.97
18.06
17.59
17.34
17.10
16.77
16.36
15.98
15.66
15.34
14.80
13.80
12.18
9.91
7.08
3.90
0.56
-2.78
-6.03
-9.17
-12.21
-15.22
-18.30
-21.52
-24.91
-28.40
-31.74
-34.51
-36.20
-36.30
-34.47
-30.61
-24.96
-18.05
-10.58
-3.29
3.22
8.61
12.81
15.93
18.24
19.95
21.21
22.04
22.43
22.35
21.81
20.86
19.57
18.04
16.41
14.84
13.49
12.43
11.64
10.96
10.23
9.31
8.14
6.75
5.21
3.52
1.66
-0.45
-2.85
-5.52
-8.38
-11.34
-14.33
-17.35
-20.43
-23.59
-26.79
-29.93
-32.81
-35.22
-36.87
-37.52
-36.94
-34.98
-31.60
-26.87
-20.98
-14.23
-7.05
0.09
6.69
12.28
16.49
19.19
20.47
20.64
20.09
19.21
18.23
17.24
16.26
15.28
14.34
13.52
12.81
12.16
11.47
10.63
9.65
8.63
7.71
6.96
6.32
5.61
4.57
3.06
1.06
-1.32
-3.90
-6.53
-9.16
-11.83
-14.61
-17.58
-20.78
-24.16
-27.60
-30.83
-33.50
-35.19
-35.48
-34.07
-30.87
-25.94
-19.57
-12.16
-4.28
3.43
10.31
15.84
19.75
22.11
23.24
23.57
23.45
23.09
22.54
21.85
21.07
20.32
19.71
19.24
18.86
18.47
18.02
17.52
16.96
16.28
15.27
13.68
11.31
8.16
4.45
0.58
-3.06
-6.15
-8.58
-10.43
-11.87
-13.15
-14.49
-16.10
-18.14
-20.74
-23.88
-27.42
-31.00
-34.09
-36.08
-36.36
-34.55
-30.56
-24.70
-17.62
-10.15
-3.03
3.23
8.50
12.89
16.65
19.89
22.55
24.41
25.27
25.09
24.10
22.65
21.13
19.82
18.77
17.95
17.27
16.68
16.20
15.87
15.67
15.49
15.14
14.36
12.92
10.72
7.81
4.37
0.74
-2.76
-5.90
-8.68
-11.26
-13.94
-16.97
-20.50
-24.47
-28.66
-32.77
-36.40
-39.16
-40.63
-40.41
-38.21
-33.96
-27.90
-20.57
-12.68
-4.94
2.15
8.35
13.67
18.19
21.98
25.01
27.16
28.37
28.63
28.11
27.04
25.68
24.22
22.79
21.43
20.15
18.99
17.98
17.13
16.39
15.63
14.68
13.39
11.68
9.59
7.16
4.50
1.67
-1.27
-4.29
-7.36
-10.49
-13.72
-17.08
-20.60
-24.23
-27.92
-31.53
-34.88
-37.70
-39.63
-40.27
-39.29
-36.53
-32.07
-26.28
-19.69
-12.84
-6.20
-0.06
5.42
10.24
14.40
17.93
20.79
22.86
24.01
24.16
23.38
21.92
20.19
18.58
17.40
16.73
16.44
16.29
16.05
15.57
14.82
13.83
12.60
11.13
9.38
7.32
4.97
2.37
-0.43
-3.39
-6.55
-9.95
-13.59
-17.42
-21.32
-25.15
-28.79
-32.08
-34.81
-36.70
-37.39
-36.53
-33.92
-29.54
-23.61
-16.58
-8.97
-1.35
5.83
12.19
17.46
21.47
24.18
25.63
25.99
25.49
24.43
23.09
21.73
20.51
19.51
18.72
18.10
17.59
17.12
16.68
16.24
15.77
15.19
14.38
13.19
11.44
9.03
5.98
2.41
-1.41
-5.22
-8.82
-12.17
-15.33
-18.44
-21.66
-25.09
-28.75
-32.53
-36.20
-39.37
-41.51
-42.02
-40.44
-36.57
-30.58
-23.03
-14.69
-6.36
1.36
8.13
13.87
18.68
22.64
25.75
27.90
28.95
28.87
27.83
26.20
24.40
22.79
21.50
20.47
19.56
18.67
17.78
16.98
16.34
15.89
15.48
14.93
14.01
12.55
10.50
7.87
4.78
1.33
-2.34
-6.10
-9.83
-13.45
-16.94
-20.38
-23.89
-27.57
-31.36
-34.95
-37.79
-39.20
-38.64
-35.84
-30.91
-24.25
-16.37
-7.67
1.59
11.31
21.36
31.52
41.31
50.13
57.27
62.12
64.38
64.26
62.48
60.19
58.63
58.78
60.98
64.79
69.13
72.67
74.38
73.92
71.84
69.28
67.47
67.08
67.82
68.49
67.43
63.19
55.06
43.27
28.72
12.56
-4.12
-20.47
-35.84
-49.70
-61.68
-71.64
-79.59
-85.65
-89.90
-92.34
-93.00
-92.06
-89.98
-87.45
-85.11
-83.39
-82.27
-81.30
-79.78
-76.90
-72.05
-65.03
-56.17
-46.31
-36.49
-27.57
-19.93
-13.31
-7.04
-0.46
6.77
14.48
22.05
28.70
33.73
36.70
37.49
36.30
33.53
29.69
25.20
20.44
15.77
11.60
8.35
6.25
5.12
4.27
2.62
-0.78
-6.32
-13.57
-21.45
-28.66
-34.26
-37.87
-39.56
-39.56
-38.01
-34.88
-30.17
-24.13
-17.35
-10.64
-4.77
-0.22
3.03
5.45
7.75
10.61
14.35
18.89
23.76
28.32
32.07
34.77
36.48
37.38
37.55
36.86
35.11
32.17
28.18
23.59
19.04
15.06
11.93
9.56
7.56
5.35
2.36
-1.73
-6.88
-12.67
-18.41
-23.44
-27.36
-30.22
-32.49
-34.80
-37.64
-41.16
-45.09
-48.83
-51.66
-52.92
-52.14
-49.09
-43.80
-36.58
-27.98
-18.73
-9.61
-1.29
5.76
11.40
15.75
19.13
21.87
24.14
25.92
27.05
27.41
27.00
26.03
24.77
23.46
22.18
20.92
19.62
18.28
16.98
15.84
14.93
14.23
13.57
12.74
11.45
9.50
6.78
3.39
-0.46
-4.46
-8.35
-12.06
-15.67
-19.39
-23.42
-27.79
-32.39
-36.91
-40.95
-44.06
-45.78
-45.72
-43.60
-39.33
-33.03
-25.10
-16.12
-6.77
2.26
10.39
17.21
22.54
26.37
28.90
30.40
31.19
31.52
31.57
31.40
31.04
30.52
29.90
29.25
28.57
27.82
26.86
25.54
23.82
21.75
19.53
17.37
15.41
13.63
11.88
9.92
7.58
4.83
1.83
-1.22
-4.19
-7.10
-10.13
-13.57
-17.58
-22.15
-27.05
-31.89
-36.23
-39.64
-41.75
-42.27
-40.95
-37.69
-32.51
-25.66
-17.60
-9.04
-0.78
6.45
12.19
16.40
19.40
21.65
23.55
25.20
26.42
26.93
26.63
25.67
24.47
23.46
22.87
22.65
22.57
22.36
21.89
21.21
20.48
19.80
19.18
18.43
17.33
15.70
13.53
11.02
8.47
6.10
3.92
1.64
-1.20
-5.02
-9.98
-15.91
-22.39
-28.87
-34.79
-39.55
-42.55
-43.22
-41.19
-36.50
-29.67
-21.61
-13.31
-5.60
1.03
6.44
10.66
13.76
15.76
16.67
16.53
15.41
13.49
11.00
8.21
5.40
2.78
0.43
-1.69
-3.71
-5.77
-7.91
-10.09
-12.23
-14.27
-16.31
-18.53
-21.23
-24.68
-29.08
-34.49
-40.71
-47.38
-54.05
-60.38
-66.33
-72.19
-78.48
-85.73
-94.21
-103.80
-113.89
-123.49
-131.51
-137.11
-139.98
-140.37
-138.86
-135.83
-131.07
-123.67
-112.62
-97.41
-78.54
-57.25
-34.83
-11.81
12.28
38.66
68.71
103.60
144.16
190.75
242.88
298.51
353.35
401.24
435.69
452.41
451.47
437.87
419.98
406.50
403.32
411.72
428.51
447.72
462.95
469.32
464.42
448.31
422.81
390.64
354.77
318.08
283.18
252.25
226.94
207.99
195.20
187.35
182.48
178.55
174.03
168.31
161.69
155.00
148.96
143.69
138.58
132.49
124.30
113.36
99.80
84.40
68.35
52.74
38.31
25.24
13.30
2.09
-8.66
-18.92
-28.39
-36.61
-43.16
-47.82
-50.64
-51.90
-51.99
-51.34
-50.32
-49.18
-48.13
-47.32
-46.88
-46.95
-47.64
-49.12
-51.52
-54.99
-59.65
-65.57
-72.74
-81.08
-90.44
-100.63
-111.48
-122.90
-134.85
-147.29
-160.15
-173.29
-186.44
-199.27
-211.47
-222.86
-233.49
-243.64
-253.77
-264.42
-276.15
-289.43
-304.61
-322.17
-342.37
-365.33
-391.16
-419.60
-450.48
-484.01
-520.88
-561.82
-606.79
-654.23
-701.04
-743.17
-776.71
-798.78
-807.75
-803.03
-784.69
-753.43
-710.80
-659.62
-603.76
-547.34
-493.68
-444.48
-399.76
-358.59
-319.95
-283.39
-249.02
-217.21
-188.13
-161.98
-138.74
-118.32
-100.87
-86.48
-75.24
-67.10
-61.84
-59.09
-58.36
-59.10
-60.81
-63.07
-65.53
-67.88
-69.80
-70.95
-71.00
-69.66
-66.75
-62.19
-56.00
-48.38
-39.84
-30.91
-22.03
-13.63
-6.11
0.22
5.16
8.75
11.11
12.25
12.36
11.77
10.81
9.84
9.22
9.40
11.03
14.53
19.58
25.82
32.95
40.71
49.10
58.59
70.13
85.73
107.05
133.87
165.66
201.80
240.97
281.59
322.18
361.66
400.94
440.50
477.83
511.09
539.88
563.72
582.40
596.22
606.02
615.71
628.91
645.37
666.33
693.94
727.01
759.99
783.61
787.55
767.00
720.59
646.47
548.86
437.22
321.46
211.28
116.05
23.59
-68.39
-130.27
-155.36
-157.71
-147.75
-133.47
-118.93
-104.59
-88.74
-65.38
-29.92
15.84
70.59
133.57
200.48
263.84
314.93
346.73
358.72
354.13
335.24
306.95
275.06
242.41
208.99
173.16
133.00
88.72
41.01
-10.37
-62.46
-108.83
-142.85
-160.43
-162.59
-155.97
-149.89
-153.53
-172.86
-206.96
-248.60
-288.44
-319.06
-337.47
-345.58
-348.11
-350.49
-357.52
-372.30
-396.27
-429.74
-471.31
-517.07
-559.95
-590.74
-600.35
-583.08
-538.81
-473.13
-395.15
-314.20
-236.57
-164.54
-97.17
-32.19
32.32
97.32
163.27
230.86
301.11
374.56
450.14
524.38
591.75
646.00
682.06
697.37
692.27
669.17
631.18
581.01
520.61
451.53
375.63
295.42
214.04
134.76
60.24
-7.99
-69.67
-125.73
-178.05
-228.89
-280.20
-333.30
-388.52
-444.90
-499.61
-547.75
-582.77
-598.20
-590.30
-560.79
-517.69
-473.32
-439.80
-423.77
-423.39
-429.07
-427.81
-408.83
-367.67
-306.64
-232.26
-151.74
-70.89
5.62
73.23
127.17
164.06
184.29
193.63
201.84
218.27
246.92
283.91
319.07
341.24
343.87
327.97
300.74
271.03
244.45
220.98
196.21
165.00
125.19
79.35
33.60
-5.41
-33.50
-50.55
-59.46
-63.96
-66.12
-65.60
-60.20
-48.17
-30.18
-9.89
7.48
17.72
19.68
15.79
10.81
9.79
16.36
31.94
55.45
83.76
112.06
134.58
145.80
142.55
125.48
98.86
68.48
38.44
9.30
-21.25
-55.31
-91.43
-123.40
-142.56
-142.08
-120.58
-83.16
-39.02
2.68
35.94
58.80
71.83
76.16
72.51
61.84
45.45
25.03
1.99
-22.77
-48.62
-74.64
-99.34
-120.82
-136.74
-145.93
-148.46
-144.91
-135.10
-117.48
-89.88
-51.14
-2.49
52.91
109.19
158.95
195.10
213.52
214.65
203.62
188.61
178.05
178.68
192.12
214.18
236.58
251.00
252.23
239.44
215.57
176.04
120.49
53.26
-17.94
-85.42
-143.26
-188.41
-220.65
-242.38
-258.03
-271.89
-285.68
-297.62
-303.40
-296.69
-272.19
-227.81
-165.54
-90.46
-8.54
72.77
145.26
193.66
205.46
176.11
112.27
29.81
-45.65
-102.88
-136.43
-144.44
-128.05
-90.95
-39.43
16.66
65.76
98.23
109.56
104.22
92.14
83.34
84.22
95.60
113.52
132.35
147.82
157.53
162.19
162.83
158.99
149.46
133.45
111.79
87.25
63.65
43.91
29.92
21.28
15.37
8.94
-0.37
-12.98
-27.34
-40.82
-51.41
-58.27
-62.23
-65.27
-69.15
-74.35
-79.72
-83.11
-82.42
-76.79
-66.83
-54.44
-42.14
-32.22
-26.09
-24.15
-25.92
-30.31
-35.92
-41.11
-44.19
-43.71
-39.01
-30.46
-19.55
-8.50
0.46
5.66
6.66
4.44
0.71
-2.88
-5.15
-5.68
-4.52
-1.93
1.41
4.93
8.54
12.11
15.32
18.00
20.24
22.63
25.97
29.92
33.56
35.96
36.01
32.83
26.32
17.03
5.82
-6.79
-22.14
-41.71
-65.42
-89.07
-106.66
-112.87
-106.15
-89.44
-68.46
-50.78
-44.98
-52.12
-69.90
-93.82
-117.92
-136.15
-144.11
-131.46
-97.03
-48.43
1.64
41.46
65.80
76.64
79.78
80.65
81.93
82.07
78.94
72.47
64.67
58.36
55.65
56.80
60.38
64.16
65.72
64.67
62.97
62.77
64.02
63.45
55.59
35.85
3.64
-37.28
-80.09
-117.36
-144.01
-158.96
-164.06
-161.52
-151.73
-133.16
-104.77
-68.00
-27.48
10.51
40.68
61.38
74.70
84.34
92.61
98.28
97.42
86.12
63.46
32.37
-1.47
-32.58
-58.50
-80.68
-103.21
-129.89
-161.94
-195.40
-223.91
-240.75
-241.36
-225.17
-195.87
-160.21
-125.72
-98.16
-79.75
-68.96
-61.26
-51.06
-33.70
-6.70
29.64
72.66
117.89
160.01
193.55
214.27
220.22
212.58
195.68
175.83
159.49
151.20
152.29
160.68
172.14
181.98
186.57
184.36
175.94
163.47
149.76
137.35
127.73
121.05
116.20
111.18
103.84
92.65
77.45
59.81
42.77
29.73
23.21
23.84
30.04
38.83
47.04
52.51
54.72
54.53
53.35
52.36
51.92
51.67
50.74
48.11
42.63
33.03
17.84
-4.17
-33.45
-69.01
-108.15
-146.84
-180.67
-205.95
-220.66
-224.66
-219.32
-206.72
-189.01
-168.16
-146.02
-124.54
-105.67
-90.95
-80.98
-75.18
-72.14
-70.53
-69.86
-70.72
-74.07
-80.21
-87.97
-94.84
-97.95
-95.45
-87.35
-75.56
-63.12
-53.09
-47.62
-47.40
-51.58
-57.93
-63.46
-65.32
-61.87
-53.33
-41.77
-30.25
-21.47
-16.72
-15.73
-17.19
-19.77
-22.55
-24.79
-25.66
-24.03
-19.15
-11.74
-4.26
0.07
-0.88
-6.38
-12.76
-15.59
-13.18
-9.15
-12.08
-31.33
-71.69
-129.70
-193.74
-248.32
-280.14
-283.52
-262.00
-226.10
-187.65
-155.06
-130.99
-113.12
-96.71
-77.04
-51.75
-21.02
13.37
51.31
94.31
144.20
200.56
259.42
314.83
359.66
388.27
397.38
389.72
371.84
351.16
332.67
317.94
308.06
302.66
300.84
299.64
299.12
300.84
306.76
316.93
329.60
344.50
360.39
375.05
382.70
381.15
370.79
354.06
332.81
290.90
220.09
121.18
23.11
-64.12
-137.91
-202.95
-258.79
-303.77
-336.01
-351.49
-347.83
-325.08
-289.06
-244.59
-196.35
-148.64
-106.39
-73.34
-48.82
-30.37
-15.49
-5.82
-3.07
-9.61
-27.19
-56.63
-96.17
-140.00
-181.23
-214.15
-237.38
-251.06
-256.52
-254.98
-247.39
-234.02
-214.30
-188.63
-159.06
-129.87
-104.89
-86.39
-73.96
-65.28
-57.27
-47.44
-35.03
-20.80
-6.71
5.72
15.81
24.47
33.14
42.95
53.92
65.04
75.07
82.76
87.29
88.03
85.55
81.23
76.85
74.00
73.79
76.89
82.79
89.71
94.54
95.18
90.99
82.92
72.95
59.93
44.41
28.14
17.28
12.86
13.97
16.98
18.87
17.23
11.12
1.51
-9.41
-19.17
-26.38
-30.68
-31.58
-28.93
-23.48
-14.89
-4.18
7.17
18.03
24.84
26.75
24.90
21.55
18.62
16.85
15.54
13.32
9.05
2.34
-5.20
-11.16
-13.54
-11.93
-7.51
-2.62
0.62
1.15
-0.95
-4.20
-6.91
-7.97
-7.30
-5.39
-3.12
-0.71
2.17
5.97
10.94
16.48
21.25
23.34
21.78
16.78
9.17
-0.57
-12.56
-26.55
-40.72
-51.15
-53.65
-46.33
-32.06
-18.26
-13.80
-24.21
-48.25
-78.42
-104.46
-119.27
-121.93
-117.42
-113.10
-114.62
-123.34
-136.27
-149.08
-154.92
-148.28
-125.80
-87.36
-37.04
16.79
63.15
91.83
97.50
82.50
55.78
29.38
13.35
11.85
22.55
39.14
55.17
67.01
74.53
79.41
83.36
86.97
89.86
91.85
93.48
95.50
97.88
99.35
97.41
89.62
75.06
54.97
32.54
11.83
-3.65
-12.12
-13.95
-11.73
-9.40
-11.05
-19.72
-36.23
-58.99
-84.61
-108.93
-128.20
-140.05
-143.83
-140.60
-132.72
-123.08
-114.13
-106.93
-100.98
-94.60
-86.10
-74.82
-61.64
-48.54
-37.61
-30.12
-26.19
-25.03
-25.48
-26.46
-26.98
-26.07
-22.93
-17.23
-9.61
-1.77
4.03
5.90
3.31
-2.63
-9.53
-14.68
-16.04
-12.61
-4.36
8.28
24.76
44.37
66.00
87.86
107.61
122.82
131.70
133.62
129.23
120.07
108.11
95.19
82.81
72.07
63.77
58.35
55.92
56.13
58.24
61.35
64.66
67.67
70.24
72.29
73.60
73.60
71.50
66.57
58.49
47.58
34.71
21.15
8.24
-2.87
-11.37
-16.98
-19.93
-20.86
-20.57
-19.77
-18.86
-18.00
-17.26
-16.85
-17.19
-18.76
-21.88
-26.43
-31.92
-37.60
-42.79
-46.98
-49.90
-51.33
-50.98
-48.46
-43.42
-35.83
-26.17
-15.43
-4.91
4.13
10.90
15.23
17.60
18.79
19.60
20.52
21.66
22.83
23.74
24.18
24.11
23.60
22.75
21.61
20.14
18.23
15.84
12.99
9.81
6.48
3.12
-0.28
-3.83
-7.70
-11.99
-16.69
-21.69
-26.75
-31.55
-35.68
-38.70
-40.13
-39.50
-36.49
-31.04
-23.34
-13.95
-3.77
6.05
14.26
19.78
21.92
20.59
16.40
10.56
4.51
-0.45
-3.51
-4.53
-3.93
-2.41
-0.67
0.84
1.87
2.33
2.15
1.37
0.14
-1.14
-1.97
-1.92
-0.95
0.50
1.64
1.65
0.05
-3.13
-7.46
-12.27
-16.92
-20.90
-23.79
-25.15
-24.57
-21.82
-17.02
-10.84
-4.33
1.32
5.24
7.18
7.50
6.94
6.25
5.83
5.64
5.29
4.39
2.78
0.64
-1.55
-3.25
-4.12
-4.16
-3.65
-3.06
-2.82
-3.20
-4.26
-5.91
-7.98
-10.25
-12.57
-14.83
-16.98
-19.06
-21.22
-23.69
-26.66
-30.18
-33.95
-37.32
-39.36
-39.09
-35.83
-29.34
-20.04
-8.85
3.01
14.33
24.15
31.93
37.60
41.42
43.86
45.33
46.06
45.97
44.78
42.13
37.77
31.66
24.07
15.48
6.46
-2.48
-11.00
-18.95
-26.35
-33.24
-39.58
-45.20
-49.88
-53.43
-55.87
-57.46
-58.71
-60.27
-62.67
-66.13
-70.36
-74.47
-77.04
-76.38
-70.92
-59.65
-42.59
-20.95
2.98
26.33
46.42
61.41
70.83
75.48
77.03
77.23
77.29
77.58
77.73
77.13
75.36
72.34
68.34
63.63
58.23
51.92
44.37
35.55
25.93
16.44
8.19
1.95
-2.11
-4.57
-6.41
-8.54
-11.38
-14.68
-17.83
-20.31
-22.12
-23.92
-26.73
-31.30
-37.52
-44.15
-49.10
-50.23
-46.19
-37.02
-24.13
-9.65
4.43
17.01
27.96
37.81
47.07
55.72
63.10
68.22
70.28
69.00
64.75
58.25
50.27
41.40
32.02
22.48
13.28
5.11
-1.27
-5.29
-6.90
-6.56
-5.17
-3.83
-3.45
-4.49
-6.93
-10.36
-14.16
-17.76
-20.74
-22.96
-24.48
-25.61
-26.78
-28.47
-30.94
-34.15
-37.63
-40.54
-41.97
-41.20
-37.95
-32.44
-25.19
-16.83
-7.89
1.21
10.07
18.22
25.19
30.59
34.20
36.04
36.30
35.22
33.04
29.99
26.34
22.47
18.76
15.55
13.06
11.34
10.36
10.04
10.27
10.89
11.63
12.13
11.96
10.82
8.62
5.51
1.80
-2.09
-5.89
-9.45
-12.85
-16.32
-20.14
-24.52
-29.50
-34.85
-40.08
-44.50
-47.36
-48.04
-46.18
-41.79
-35.19
-26.96
-17.82
-8.55
0.13
7.64
13.60
17.94
20.86
22.74
23.98
24.78
25.15
24.92
23.96
22.40
20.57
18.96
17.88
17.35
17.11
16.82
16.22
15.30
14.24
13.18
12.10
10.78
8.92
6.34
3.06
-0.67
-4.51
-8.22
-11.68
-14.93
-18.10
-21.29
-24.54
-27.86
-31.24
-34.68
-38.12
-41.33
-43.93
-45.38
-45.12
-42.70
-37.96
-31.04
-22.43
-12.82
-2.95
6.50
14.97
22.12
27.78
31.92
34.62
36.02
36.33
35.81
34.80
33.63
32.57
31.74
31.11
30.53
29.82
28.86
27.56
25.91
23.90
21.56
18.92
16.08
13.20
10.40
7.70
5.01
2.14
-1.12
-4.88
-9.09
-13.58
-18.12
-22.53
-26.75
-30.84
-34.90
-39.00
-43.05
-46.79
-49.77
-51.37
-51.01
-48.22
-42.85
-35.14
-25.69
-15.36
-5.07
4.40
12.53
19.10
24.13
27.81
30.38
32.07
33.06
33.46
33.33
32.71
31.68
30.36
28.87
27.37
25.93
24.58
23.27
21.93
20.50
18.97
17.34
15.60
13.75
11.76
9.56
7.08
4.22
0.97
-2.61
-6.35
-10.03
-13.45
-16.60
-19.61
-22.77
-26.35
-30.45
-34.96
-39.59
-43.96
-47.71
-50.42
-51.67
-51.02
-48.15
-43.00
-35.89
-27.43
-18.43
-9.61
-1.49
5.71
11.94
17.27
21.79
25.53
28.47
30.56
31.71
31.88
31.13
29.68
27.85
26.07
24.62
23.65
23.11
22.83
22.61
22.31
21.83
21.13
20.16
18.87
17.24
15.25
12.89
10.10
6.84
3.11
-0.99
-5.23
-9.35
-13.15
-16.57
-19.77
-23.06
-26.84
-31.52
-37.35
-44.24
-51.66
-58.61
-63.86
-66.26
-65.19
-60.70
-53.52
-44.67
-35.18
-25.76
-16.83
-8.59
-1.19
5.25
10.63
14.93
18.32
20.97
23.11
24.83
26.18
27.15
27.73
27.95
27.86
27.55
27.04
26.35
25.46
24.40
23.23
22.01
20.79
19.55
18.18
16.51
14.37
11.65
8.35
4.53
0.31
-4.19
-8.83
-13.44
-17.80
-21.75
-25.22
-28.29
-31.15
-33.90
-36.42
-38.27
-38.80
-37.39
-33.72
-27.95
-20.67
-12.65
-4.64
2.82
9.39
14.89
19.21
22.31
24.21
25.07
25.10
24.59
23.72
22.62
21.32
19.84
18.26
16.72
15.38
14.37
13.76
13.51
13.48
13.41
13.04
12.14
10.60
8.43
5.76
2.77
-0.37
-3.53
-6.63
-9.69
-12.78
-16.01
-19.55
-23.52
-27.98
-32.79
-37.66
-42.09
-45.50
-47.32
-47.09
-44.58
-39.78
-32.97
-24.66
-15.48
-6.13
2.79
10.82
17.74
23.46
28.01
31.38
33.56
34.48
34.18
32.85
30.88
28.79
26.99
25.73
24.91
24.24
23.41
22.22
20.71
19.08
17.52
16.11
14.77
13.27
11.41
9.07
6.25
3.03
-0.48
-4.19
-8.02
-11.90
-15.74
-19.47
-23.07
-26.61
-30.21
-33.95
-37.85
-41.71
-45.13
-47.53
-48.26
-46.80
-42.94
-36.83
-28.94
-20.01
-10.80
-1.96
6.03
12.90
18.51
22.81
25.81
27.54
28.13
27.78
26.81
25.58
24.39
23.44
22.77
22.32
21.93
21.50
20.99
20.45
19.91
19.35
18.68
17.71
16.30
14.30
11.67
8.46
4.79
0.83
-3.22
-7.20
-11.05
-14.77
-18.51
-22.44
-26.67
-31.19
-35.74
-39.85
-42.91
-44.32
-43.64
-40.68
-35.55
-28.69
-20.71
-12.40
-4.48
2.51
8.31
12.94
16.58
19.41
21.48
22.72
23.02
22.44
21.20
19.70
18.35
17.40
16.88
16.65
16.56
16.50
16.48
16.54
16.60
16.47
15.87
14.55
12.47
9.78
6.78
3.72
0.67
-2.45
-5.77
-9.37
-13.18
-17.05
-20.89
-24.72
-28.66
-32.74
-36.71
-39.96
-41.69
-41.17
-38.07
-32.61
-25.53
-17.78
-10.23
-3.41
2.54
7.72
12.28
16.24
19.45
21.70
22.86
22.96
22.19
20.83
19.21
17.61
16.26
15.32
14.83
14.72
14.81
14.89
14.80
14.45
13.82
12.86
11.50
9.62
7.13
4.05
0.54
-3.16
-6.84
-10.37
-13.79
-17.25
-20.98
-25.13
-29.66
-34.21
-38.11
-40.49
-40.58
-37.99
-32.85
-25.78
-17.64
-9.24
-1.13
6.43
13.29
19.34
24.41
28.28
30.82
32.01
31.97
30.93
29.15
26.91
24.49
22.17
20.17
18.61
17.48
16.67
15.96
15.19
14.19
12.87
11.16
9.01
6.42
3.42
0.16
-3.15
-6.32
-9.26
-12.07
-14.98
-18.28
-22.15
-26.58
-31.30
-35.86
-39.71
-42.31
-43.22
-42.10
-38.88
-33.67
-26.82
-18.86
-10.39
-1.99
5.84
12.74
18.47
22.91
26.08
28.08
29.07
29.22
28.68
27.57
26.00
24.10
22.04
19.98
18.09
16.43
14.97
13.66
12.43
11.21
9.92
8.43
6.62
4.37
1.63
-1.54
-4.99
-8.54
-12.00
-15.25
-18.27
-21.17
-24.12
-27.26
-30.62
-33.99
-36.91
-38.77
-38.95
-37.04
-32.91
-26.80
-19.23
-10.88
-2.44
5.44
12.31
17.89
22.15
25.16
27.11
28.13
28.26
27.48
25.81
23.43
20.69
17.98
15.65
13.84
12.50
11.49
10.70
10.08
9.59
9.13
8.46
7.27
5.32
2.61
-0.63
-3.99
-7.15
-9.96
-12.55
-15.17
-18.06
-21.37
-25.10
-29.10
-33.10
-36.67
-39.24
-40.16
-38.86
-35.11
-29.06
-21.32
-12.75
-4.18
3.76
10.80
16.90
22.09
26.35
29.59
31.69
32.62
32.50
31.54
29.99
28.11
26.07
24.00
22.03
20.24
18.69
17.38
16.22
15.12
13.90
12.38
10.39
7.78
4.54
0.83
-3.04
-6.69
-9.85
-12.52
-14.93
-17.47
-20.52
-24.30
-28.72
-33.44
-37.93
-41.55
-43.64
-43.60
-41.08
-36.07
-28.95
-20.47
-11.53
-2.95
4.76
11.44
17.16
22.06
26.18
29.39
31.47
32.32
31.99
30.80
29.16
27.47
25.95
24.65
23.44
22.17
20.80
19.36
17.97
16.69
15.50
14.23
12.68
10.63
8.01
4.91
1.52
-1.92
-5.26
-8.47
-11.66
-15.06
-18.87
-23.19
-27.90
-32.65
-36.81
-39.69
-40.63
-39.24
-35.50
-29.73
-22.48
-14.43
-6.18
1.77
9.00
15.23
20.23
23.93
26.36
27.67
28.03
27.66
26.73
25.40
23.86
22.26
20.73
19.27
17.85
16.39
14.86
13.31
11.83
10.45
9.12
7.69
5.95
3.75
1.07
-2.00
-5.24
-8.49
-11.68
-14.91
-18.36
-22.23
-26.59
-31.23
-35.66
-39.21
-41.21
-41.16
-38.88
-34.49
-28.34
-20.97
-12.93
-4.76
3.01
9.96
15.78
20.36
23.76
26.13
27.63
28.34
28.33
27.67
26.51
25.09
23.64
22.28
21.00
19.67
18.17
16.48
14.71
13.01
11.45
9.93
8.24
6.15
3.57
0.59
-2.53
-5.56
-8.39
-11.10
-13.89
-16.95
-20.39
-24.18
-28.15
-32.03
-35.46
-37.98
-39.06
-38.28
-35.43
-30.67
-24.50
-17.59
-10.57
-3.83
2.46
8.28
13.59
18.25
22.02
24.68
26.15
26.52
26.06
25.09
23.89
22.60
21.26
19.79
18.14
16.30
14.39
12.59
11.08
9.91
8.99
8.09
6.93
5.29
3.13
0.53
-2.27
-5.06
-7.67
-10.11
-12.47
-14.97
-17.82
-21.17
-24.99
-29.02
-32.78
-35.63
-36.92
-36.18
-33.20
-28.16
-21.51
-13.90
-6.02
1.55
8.39
14.25
19.02
22.69
25.26
26.76
27.26
26.89
25.84
24.38
22.76
21.16
19.69
18.37
17.16
16.00
14.84
13.67
12.51
11.35
10.13
8.74
7.01
4.83
2.18
-0.83
-3.99
-7.08
-9.97
-12.69
-15.40
-18.33
-21.67
-25.48
-29.60
-33.68
-37.15
-39.41
-39.87
-38.13
-34.09
-27.97
-20.27
-11.66
-2.86
5.47
12.80
18.76
23.19
26.09
27.64
28.08
27.69
26.72
25.35
23.73
21.95
20.12
18.34
16.64
15.06
13.59
12.28
11.19
10.35
9.70
9.04
8.07
6.52
4.29
1.49
-1.60
-4.66
-7.48
-10.05
-12.54
-15.23
-18.34
-21.96
-25.97
-30.05
-33.71
-36.37
-37.50
-36.69
-33.76
-28.82
-22.25
-14.64
-6.66
1.01
7.83
13.44
17.71
20.66
22.46
23.31
23.40
22.94
22.09
21.01
19.78
18.44
16.99
15.44
13.84
12.30
10.97
9.97
9.29
8.77
8.15
7.15
5.62
3.61
1.30
-1.11
-3.47
-5.76
-8.06
-10.45
-13.00
-15.74
-18.73
-22.02
-25.60
-29.29
-32.64
-34.93
-35.45
-33.67
-29.53
-23.41
-16.04
-8.24
-0.72
6.07
11.85
16.54
20.09
22.49
23.79
24.10
23.60
22.53
21.14
19.63
18.08
16.47
14.70
12.76
10.70
8.74
7.12
6.00
5.30
4.75
3.93
2.48
0.25
-2.63
-5.82
-8.99
-11.86
-14.40
-16.77
-19.18
-21.87
-24.93
-28.37
-31.99
-35.51
-38.48
-40.38
-40.65
-38.89
-34.97
-29.06
-21.66
-13.44
-5.10
2.82
9.91
15.97
20.90
24.69
27.39
29.06
29.82
29.79
29.18
28.22
27.11
25.99
24.88
23.74
22.48
21.12
19.77
18.58
17.60
16.73
15.67
14.09
11.76
8.68
5.09
1.33
-2.29
-5.65
-8.82
-12.03
-15.52
-19.42
-23.75
-28.29
-32.70
-36.49
-39.13
-40.13
-39.08
-35.81
-30.42
-23.32
-15.16
-6.73
1.26
8.25
13.99
18.46
21.73
23.97
25.23
25.61
25.21
24.27
23.07
21.86
20.79
19.80
18.77
17.59
16.27
14.96
13.83
12.94
12.21
11.38
10.21
8.53
6.32
3.65
0.69
-2.39
-5.43
-8.30
-10.93
-13.34
-15.70
-18.24
-21.09
-24.14
-26.94
-28.77
-28.86
-26.63
-21.91
-15.03
-6.69
2.23
10.88
18.59
24.91
29.64
32.76
34.40
34.69
33.72
31.54
28.12
23.46
17.67
11.03
3.97
-3.03
-9.45
-14.88
-19.07
-21.89
-23.38
-23.77
-23.41
-22.76
-22.27
-22.31
-23.03
-24.40
-26.13
-27.85
-29.19
-29.95
-30.27
-30.61
-31.58
-33.68
-36.95
-40.87
-44.41
-46.33
-45.63
-41.81
-35.04
-26.06
-16.04
-6.32
1.81
7.43
10.14
10.18
8.34
5.64
2.97
0.82
-0.80
-2.16
-3.53
-4.92
-6.07
-6.55
-6.04
-4.53
-2.38
-0.20
1.41
2.08
1.82
0.97
0.03
-0.48
-0.19
1.05
3.07
5.42
7.45
8.44
7.85
5.45
1.45
-3.69
-9.31
-14.84
-19.86
-23.91
-26.45
-26.71
-23.89
-17.50
-7.69
4.59
17.83
30.38
40.89
48.62
53.52
55.97
56.54
55.78
54.13
52.01
49.82
48.01
46.80
46.20
45.96
45.71
45.14
44.13
42.78
41.29
39.83
38.47
37.11
35.64
33.92
31.89
29.59
27.07
24.39
21.62
18.77
15.85
12.76
9.35
5.42
0.86
-4.28
-9.70
-14.83
-19.02
-21.63
-22.28
-20.93
-17.83
-13.46
-8.40
-3.19
1.70
5.89
9.07
11.09
11.93
11.74
10.79
9.43
7.93
6.44
4.98
3.50
1.96
0.39
-1.11
-2.46
-3.64
-4.77
-6.04
-7.63
-9.65
-12.08
-14.82
-17.76
-20.80
-23.91
-27.03
-30.07
-32.92
-35.47
-37.76
-39.96
-42.25
-44.73
-47.25
-49.34
-50.33
-49.52
-46.47
-41.09
-33.72
-24.99
-15.64
-6.37
2.29
10.01
16.62
21.96
25.92
28.41
29.41
29.06
27.70
25.78
23.79
22.07
20.74
19.71
18.73
17.56
16.06
14.26
12.28
10.24
8.23
6.20
4.04
1.68
-0.91
-3.64
-6.37
-9.02
-11.62
-14.29
-17.23
-20.60
-24.41
-28.48
-32.40
-35.56
-37.26
-36.90
-34.13
-29.01
-22.04
-13.96
-5.61
2.34
9.48
15.63
20.71
24.64
27.34
28.77
29.06
28.44
27.21
25.66
23.95
22.19
20.40
18.60
16.84
15.11
13.39
11.66
9.90
8.10
6.25
4.30
2.19
-0.15
-2.77
-5.60
-8.58
-11.65
-14.78
-18.00
-21.34
-24.87
-28.58
-32.37
-36.01
-39.11
-41.16
-41.64
-40.09
-36.36
-30.62
-23.34
-15.19
-6.86
1.05
8.14
14.19
19.09
22.87
25.56
27.23
27.95
27.81
26.94
25.51
23.75
21.85
19.97
18.20
16.57
15.07
13.69
12.39
11.12
9.77
8.24
6.42
4.30
1.88
-0.78
-3.66
-6.78
-10.18
-13.87
-17.79
-21.85
-25.99
-30.20
-34.45
-38.66
-42.50
-45.42
-46.76
-45.94
-42.67
-37.06
-29.53
-20.69
-11.13
-1.38
8.11
16.89
24.53
30.66
35.10
37.89
39.26
39.53
38.98
37.78
35.99
33.70
31.03
28.18
25.41
22.86
20.63
18.65
16.80
14.93
12.91
10.63
8.06
5.17
2.01
-1.34
-4.79
-8.30
-11.87
-15.57
-19.56
-23.97
-28.82
-33.93
-38.89
-43.06
-45.76
-46.37
-44.54
-40.29
-33.97
-26.12
-17.40
-8.41
0.29
8.25
15.10
20.65
24.84
27.79
29.68
30.71
30.98
30.58
29.62
28.30
26.89
25.64
24.69
24.00
23.39
22.68
21.71
20.42
18.73
16.57
13.83
10.45
6.52
2.30
-1.89
-5.75
-9.18
-12.28
-15.32
-18.61
-22.38
-26.67
-31.41
-36.35
-41.04
-44.93
-47.29
-47.42
-44.85
-39.54
-32.00
-23.10
-13.90
-5.30
2.19
8.41
13.46
17.46
20.50
22.54
23.59
23.71
23.08
21.96
20.57
19.09
17.60
16.16
14.82
13.62
12.61
11.79
11.11
10.44
9.60
8.37
6.57
4.11
1.08
-2.30
-5.73
-8.94
-11.80
-14.39
-16.94
-19.74
-23.02
-26.81
-30.92
-34.92
-38.20
-40.09
-39.94
-37.37
-32.37
-25.33
-17.01
-8.24
0.21
7.77
14.17
19.28
23.11
25.69
27.10
27.50
27.11
26.18
24.94
23.55
22.11
20.70
19.39
18.24
17.32
16.71
16.38
16.23
15.98
15.28
13.79
11.31
7.94
3.97
-0.15
-4.05
-7.55
-10.72
-13.76
-16.94
-20.45
-24.37
-28.69
-33.20
-37.55
-41.15
-43.30
-43.33
-40.83
-35.75
-28.50
-19.83
-10.57
-1.50
6.84
14.20
20.45
25.54
29.38
31.87
32.93
32.65
31.26
29.16
26.81
24.62
22.79
21.32
20.07
18.86
17.60
16.28
15.00
13.77
12.50
10.97
8.96
6.31
3.11
-0.40
-3.92
-7.21
-10.24
-13.17
-16.21
-19.59
-23.40
-27.65
-32.19
-36.72
-40.77
-43.67
-44.72
-43.32
-39.22
-32.61
-24.12
-14.65
-5.10
3.79
11.55
17.95
22.92
26.54
28.93
30.28
30.73
30.44
29.52
28.11
26.37
24.52
22.79
21.34
20.24
19.42
18.74
18.01
17.10
15.95
14.51
12.78
10.72
8.30
5.52
2.48
-0.66
-3.72
-6.60
-9.35
-12.26
-15.68
-19.93
-25.05
-30.70
-36.23
-40.78
-43.51
-43.81
-41.44
-36.55
-29.62
-21.35
-12.55
-3.95
3.87
10.55
15.94
20.00
22.78
24.34
24.77
24.26
23.04
21.46
19.83
18.41
17.31
16.52
15.94
15.48
15.11
14.78
14.46
14.01
13.25
11.97
10.03
7.46
4.41
1.10
-2.27
-5.63
-9.00
-12.44
-16.02
-19.80
-23.82
-28.15
-32.77
-37.47
-41.76
-44.88
-46.02
-44.59
-40.41
-33.83
-25.55
-16.42
-7.20
1.48
9.16
15.51
20.32
23.52
25.17
25.51
24.89
23.69
22.30
21.03
20.07
19.48
19.20
19.11
19.08
19.04
18.99
18.95
18.87
18.60
17.93
16.64
14.62
11.88
8.58
4.97
1.31
-2.23
-5.62
-8.99
-12.55
-16.50
-20.95
-25.85
-30.99
-35.99
-40.30
-43.28
-44.26
-42.77
-38.67
-32.22
-24.09
-15.13
-6.18
2.12
9.38
15.45
20.28
23.90
26.37
27.72
28.05
27.50
26.28
24.70
23.08
21.74
20.88
20.58
20.75
21.22
21.76
22.20
22.35
22.08
21.22
19.65
17.29
14.18
10.50
6.52
2.50
-1.40
-5.16
-8.88
-12.72
-16.82
-21.31
-26.19
-31.33
-36.42
-40.92
-44.07
-45.09
-43.40
-38.82
-31.70
-22.78
-12.97
-3.09
6.24
14.67
21.96
27.89
32.31
35.14
36.50
36.74
36.35
35.83
35.50
35.46
35.59
35.72
35.64
35.28
34.66
33.90
33.10
32.29
31.43
30.35
28.89
26.85
24.11
20.64
16.51
11.85
6.86
1.70
-3.57
-9.01
-14.80
-21.15
-28.09
-35.43
-42.61
-48.84
-53.30
-55.32
-54.65
-51.44
-46.17
-39.53
-32.23
-24.97
-18.31
-12.70
-8.41
-5.52
-3.90
-3.25
-3.23
-3.47
-3.70
-3.75
-3.58
-3.30
-3.09
-3.17
-3.67
-4.53
-5.51
-6.23
-6.35
-5.72
-4.51
-3.10
-2.01
-1.67
-2.28
-3.79
-5.96
-8.47
-11.06
-13.66
-16.35
-19.33
-22.78
-26.74
-31.09
-35.48
-39.46
-42.47
-43.94
-43.34
-40.27
-34.57
-26.46
-16.52
-5.68
5.03
14.59
22.35
27.98
31.54
33.36
33.86
33.43
32.37
30.88
29.06
27.01
24.87
22.79
20.93
19.42
18.25
17.37
16.63
15.90
15.03
13.88
12.32
10.26
7.69
4.72
1.60
-1.43
-4.19
-6.66
-9.01
-11.49
-14.37
-17.81
-21.78
-26.05
-30.22
-33.74
-35.96
-36.27
-34.23
-29.69
-22.90
-14.43
-5.13
4.11
12.52
19.53
24.84
28.38
30.24
30.64
29.90
28.36
26.40
24.32
22.31
20.49
18.90
17.53
16.37
15.44
14.77
14.42
14.36
14.48
14.52
14.12
12.91
10.70
7.50
3.62
-0.49
-4.44
-7.98
-11.13
-14.07
-17.03
-20.19
-23.59
-27.14
-30.63
-33.68
-35.79
-36.36
-34.88
-31.04
-24.97
-17.18
-8.45
0.34
8.46
15.46
21.13
25.38
28.18
29.47
29.29
27.85
25.57
22.97
20.53
18.51
16.87
15.39
13.88
12.29
10.80
9.67
9.05
8.84
8.72
8.25
7.10
5.16
2.55
-0.49
-3.68
-6.86
-9.98
-13.10
-16.34
-19.79
-23.51
-27.44
-31.40
-35.04
-37.85
-39.30
-38.88
-36.28
-31.51
-24.84
-16.82
-8.16
0.43
8.29
14.89
19.90
23.18
24.82
25.06
24.25
22.74
20.83
18.72
16.56
14.45
12.50
10.77
9.29
8.07
7.17
6.69
6.78
7.52
8.81
10.33
11.60
12.09
11.45
9.63
6.86
3.55
0.09
-3.32
-6.70
-10.24
-14.20
-18.66
-23.42
-27.95
-31.52
-33.39
-33.04
-30.33
-25.46
-18.94
-11.40
-3.53
4.05
10.82
16.32
20.25
22.44
22.97
22.11
20.32
18.11
15.92
14.04
12.50
11.20
10.01
8.88
7.91
7.31
7.24
7.69
8.39
8.93
8.88
8.01
6.30
3.97
1.32
-1.39
-4.06
-6.73
-9.54
-12.64
-16.13
-19.99
-24.04
-27.93
-31.13
-33.00
-32.94
-30.57
-25.92
-19.42
-11.83
-3.97
3.44
9.96
15.34
19.44
22.16
23.41
23.21
21.75
19.41
16.68
13.94
11.46
9.34
7.62
6.33
5.54
5.25
5.30
5.40
5.19
4.36
2.83
0.72
-1.71
-4.20
-6.58
-8.76
-10.82
-12.90
-15.19
-17.90
-21.19
-25.08
-29.36
-33.50
-36.76
-38.33
-37.55
-34.14
-28.28
-20.56
-11.88
-3.14
4.88
11.73
17.27
21.61
24.99
27.60
29.51
30.74
31.23
31.06
30.35
29.32
28.20
27.12
26.15
25.32
24.65
24.14
23.79
23.49
23.06
22.26
20.91
18.92
16.33
13.26
9.85
6.16
2.11
-2.54
-8.17
-15.12
-23.52
-33.03
-42.85
-51.81
-58.67
-62.50
-62.89
-60.01
-54.42
-46.87
-38.09
-28.74
-19.43
-10.81
-3.50
2.02
5.53
7.14
7.33
6.80
6.38
6.88
9.01
13.26
19.71
27.98
37.15
45.97
53.07
57.32
58.01
54.97
48.46
39.10
27.75
15.46
3.39
-7.28
-15.56
-20.83
-23.10
-23.04
-21.84
-20.83
-21.07
-22.99
-26.28
-30.08
-33.39
-35.52
-36.36
-36.39
-36.38
-37.04
-38.72
-41.23
-43.90
-45.80
-45.92
-43.46
-38.00
-29.59
-18.67
-5.98
7.77
22.18
37.29
53.49
71.02
89.45
107.33
122.33
132.04
134.88
130.83
121.36
108.67
94.67
80.18
64.97
48.30
29.76
9.69
-10.78
-30.29
-47.70
-62.41
-74.24
-83.18
-89.25
-92.40
-92.73
-90.75
-87.65
-85.30
-85.93
-91.43
-102.48
-117.93
-134.66
-148.45
-155.21
-152.38
-139.69
-119.21
-94.54
-69.64
-47.72
-30.41
-17.57
-7.51
2.25
14.05
29.23
47.61
67.38
85.68
99.33
105.70
103.42
92.74
75.69
55.83
37.57
25.10
21.23
26.55
39.51
57.23
76.81
96.31
115.11
133.57
152.37
172.11
193.21
216.03
240.94
268.04
296.74
325.39
351.38
371.72
383.81
386.02
378.05
360.71
335.52
304.20
268.25
228.63
185.84
140.05
91.31
39.72
-14.40
-70.19
-126.02
-179.28
-226.71
-265.08
-292.26
-308.08
-314.38
-314.14
-309.91
-302.54
-290.94
-273.22
-248.58
-218.81
-188.38
-162.85
-146.45
-140.14
-141.26
-144.86
-146.00
-141.54
-130.77
-114.45
-93.56
-68.51
-39.42
-7.14
25.85
55.49
77.34
88.27
87.85
78.66
65.35
53.03
45.64
44.88
50.05
58.44
66.33
70.14
67.49
57.94
43.00
25.49
8.37
-6.39
-18.40
-28.73
-38.96
-50.04
-61.61
-72.11
-79.56
-82.69
-81.69
-78.21
-74.63
-73.03
-74.24
-77.58
-81.24
-82.98
-81.00
-74.40
-63.26
-48.43
-31.34
-13.92
1.55
12.75
18.03
17.12
11.51
4.01
-2.53
-6.91
-10.60
-17.22
-30.58
-52.29
-80.48
-110.38
-136.82
-156.99
-172.01
-186.32
-205.51
-233.83
-272.66
-320.41
-373.25
-426.03
-472.97
-508.29
-527.12
-526.74
-507.52
-472.81
-427.69
-377.18
-324.72
-271.77
-218.50
-164.89
-111.38
-58.88
-8.10
40.92
88.82
136.60
185.16
235.23
287.42
341.92
397.68
451.31
496.43
524.49
527.38
500.73
446.36
372.39
290.68
213.16
148.67
101.97
74.53
66.18
75.88
101.38
138.24
179.66
217.60
245.01
257.77
255.41
240.36
216.17
186.03
152.17
116.12
79.41
43.77
11.01
-17.51
-41.39
-61.33
-78.74
-95.04
-111.10
-126.86
-141.45
-153.73
-162.65
-167.53
-167.90
-163.22
-152.83
-136.24
-113.63
-86.19
-55.93
-24.95
5.30
34.39
62.56
89.80
115.17
136.71
152.22
160.38
161.48
157.37
150.64
143.59
137.56
132.90
129.45
126.96
125.25
124.08
122.94
121.09
117.95
113.49
108.34
103.80
101.19
101.36
104.30
109.10
114.23
118.06
119.45
118.14
114.78
110.61
106.92
104.62
104.20
105.91
110.17
117.64
128.86
143.51
159.74
174.07
182.14
179.84
164.57
135.77
94.70
43.57
-15.24
-79.55
-147.10
-215.14
-280.40
-339.36
-389.07
-427.99
-456.18
-474.96
-486.24
-491.69
-492.50
-489.37
-482.93
-473.95
-463.04
-450.23
-434.27
-412.61
-381.93
-339.20
-282.68
-212.51
-130.83
-41.28
51.50
142.54
227.15
301.52
363.19
411.32
446.59
470.57
484.96
490.96
489.05
479.36
462.18
438.39
409.65
378.16
346.12
315.16
285.91
257.91
229.89
200.45
168.71
134.67
99.04
62.74
26.31
-10.36
-47.58
-85.12
-121.56
-154.55
-181.50
-200.85
-212.77
-219.15
-222.96
-227.15
-233.88
-244.13
-257.88
-274.49
-292.91
-311.80
-329.25
-342.83
-349.81
-347.89
-336.11
-315.63
-289.41
-261.13
-233.49
-206.97
-179.96
-150.37
-117.81
-84.91
-56.72
-38.66
-34.15
-43.34
-63.47
-90.28
-119.30
-146.40
-167.63
-179.14
-177.81
-162.35
-134.16
-97.03
-55.84
-14.81
23.75
59.50
93.34
126.10
157.69
186.97
212.22
231.96
245.55
253.42
256.71
256.74
254.34
249.63
242.22
231.75
218.30
202.55
185.58
168.48
152.09
136.92
123.26
111.39
101.49
93.64
87.65
82.90
78.39
73.01
65.70
55.78
42.97
27.38
9.28
-10.95
-32.83
-55.73
-78.66
-100.19
-118.53
-131.69
-137.78
-135.29
-123.49
-102.81
-74.97
-42.94
-10.36
19.21
43.11
60.04
70.12
74.55
75.02
73.20
70.54
68.20
67.03
67.44
69.25
71.74
74.08
75.64
76.42
77.21
79.38
84.44
93.24
105.57
119.91
134.15
145.79
152.70
153.72
149.14
140.61
130.46
120.56
111.07
100.30
84.64
60.07
24.06
-22.86
-77.18
-133.60
-186.99
-234.30
-274.49
-307.14
-331.27
-346.37
-353.39
-354.17
-349.51
-337.35
-316.88
-284.31
-238.40
-182.16
-122.02
-64.96
-15.44
24.22
55.16
80.79
105.25
130.57
156.32
180.43
200.67
215.87
226.16
232.57
236.11
237.67
237.29
234.93
230.88
225.89
220.80
215.98
211.15
205.38
197.75
187.52
174.60
159.50
142.97
125.86
108.80
92.35
76.87
62.54
49.05
35.78
21.97
6.95
-9.55
-27.37
-45.88
-64.28
-81.89
-98.46
-114.16
-129.43
-144.79
-160.54
-176.66
-192.70
-207.79
-220.81
-230.54
-235.88
-236.04
-230.71
-220.06
-204.75
-185.81
-164.57
-142.58
-121.36
-102.23
-86.08
-73.18
-63.20
-55.44
-49.07
-43.46
-38.30
-33.57
-29.39
-25.81
-22.73
-19.94
-17.17
-14.28
-11.22
-8.10
-5.06
-2.22
0.35
2.67
4.74
6.52
7.91
8.74
8.81
7.95
5.99
2.82
-1.57
-7.06
-13.26
-19.50
-24.89
-28.47
-29.40
-27.20
-21.88
-13.88
-4.01
6.72
17.31
26.85
34.70
40.49
44.14
45.80
45.79
44.43
42.00
38.73
34.83
30.55
26.22
22.16
18.69
15.95
14.00
12.73
11.92
11.29
10.55
9.46
7.91
5.94
3.68
1.30
-1.13
-3.62
-6.33
-9.46
-13.17
-17.53
-22.43
-27.49
-32.13
-35.53
-36.89
-35.60
-31.40
-24.50
-15.52
-5.29
5.27
15.37
24.36
31.85
37.62
41.70
44.20
45.31
45.19
43.92
41.62
38.56
35.25
32.40
30.67
30.37
31.29
32.74
33.80
33.74
32.22
29.38
25.58
21.23
16.59
11.79
6.97
2.24
-2.34
-7.01
-12.24
-18.54
-25.99
-33.86
-40.53
-43.91
-42.19
-34.50
-21.32
-4.28
14.35
32.30
47.82
59.78
67.70
71.57
71.79
69.03
64.15
58.06
51.40
44.49
37.26
29.41
20.69
11.03
0.68
-9.82
-19.78
-28.48
-35.36
-40.12
-42.74
-43.45
-42.61
-40.65
-37.94
-34.84
-31.70
-28.89
-26.80
-25.77
-26.06
-27.78
-30.92
-35.29
-40.44
-45.63
-49.87
-52.05
-51.23
-46.92
-39.29
-29.06
-17.31
-5.20
6.23
16.22
24.24
30.05
33.62
35.13
34.95
33.50
31.22
28.47
25.60
22.86
20.47
18.55
17.10
16.02
15.18
14.41
13.61
12.65
11.42
9.81
7.85
5.68
3.58
1.78
0.33
-0.96
-2.44
-4.47
-7.32
-11.05
-15.53
-20.47
-25.43
-29.79
-32.88
-33.99
-32.59
-28.52
-22.04
-13.77
-4.59
4.63
13.11
20.35
26.10
30.38
33.32
35.15
36.00
35.97
35.10
33.50
31.31
28.79
26.16
23.63
21.30
19.23
17.43
15.92
14.71
13.76
12.93
12.03
10.86
9.28
7.23
4.77
2.01
-0.94
-3.94
-6.94
-9.94
-12.99
-16.16
-19.42
-22.58
-25.25
-26.84
-26.78
-24.68
-20.48
-14.56
-7.58
-0.31
6.57
12.60
17.53
21.31
23.96
25.53
26.12
25.86
24.95
23.66
22.25
20.96
19.92
19.10
18.38
17.56
16.47
15.04
13.34
11.49
9.62
7.82
6.06
4.25
2.32
0.23
-1.97
-4.18
-6.36
-8.54
-10.88
-13.60
-16.89
-20.80
-25.10
-29.25
-32.53
-34.14
-33.50
-30.37
-24.91
-17.63
-9.24
-0.52
7.81
15.17
21.12
25.44
28.11
29.31
29.28
28.29
26.58
24.33
21.77
19.12
16.64
14.50
12.79
11.50
10.50
9.67
8.86
7.97
6.86
5.45
3.65
1.48
-0.97
-3.55
-6.11
-8.52
-10.76
-12.93
-15.23
-17.90
-21.09
-24.75
-28.50
-31.72
-33.66
-33.74
-31.67
-27.59
-21.98
-15.46
-8.67
-2.13
3.84
9.03
13.30
16.58
18.81
20.05
20.39
19.96
18.90
17.29
15.19
12.69
10.02
7.58
5.92
5.57
6.81
9.54
13.20
16.96
19.90
21.31
20.82
18.38
14.16
8.43
1.49
-6.30
-14.45
-22.35
-29.40
-35.13
-39.34
-42.10
-43.59
-43.92
-43.04
-40.77
-36.99
-31.77
-25.52
-18.98
-12.97
-8.24
-5.13
-3.47
-2.59
-1.47
0.88
5.10
11.24
18.65
26.30
32.98
37.62
39.46
38.09
33.50
26.18
17.23
8.27
1.07
-2.90
-2.97
0.64
6.99
14.83
22.99
30.47
36.43
40.05
40.59
37.65
31.35
22.44
12.10
1.53
-8.31
-16.85
-23.88
-29.40
-33.51
-36.29
-37.78
-37.89
-36.40
-33.01
-27.56
-20.11
-11.04
-1.05
8.99
18.14
25.54
30.51
32.69
32.11
29.15
24.53
18.98
13.14
7.41
2.06
-2.69
-6.54
-9.15
-10.29
-10.01
-8.64
-6.77
-5.08
-4.10
-4.10
-5.03
-6.58
-8.32
-9.86
-11.00
-11.71
-12.15
-12.53
-13.12
-14.13
-15.72
-17.95
-20.69
-23.57
-25.96
-27.09
-26.33
-23.32
-18.16
-11.38
-3.79
3.79
10.67
16.41
20.82
23.93
25.87
26.84
27.05
26.66
25.77
24.44
22.68
20.53
18.07
15.44
12.78
10.23
7.81
5.54
3.40
1.39
-0.47
-2.13
-3.62
-4.99
-6.37
-7.84
-9.42
-11.03
-12.59
-14.06
-15.51
-17.12
-19.09
-21.57
-24.58
-27.92
-31.28
-34.23
-36.34
-37.30
-36.83
-34.75
-30.90
-25.19
-17.67
-8.66
1.22
11.12
20.15
27.61
33.15
36.79
38.84
39.69
39.68
39.00
37.66
35.63
32.83
29.25
25.01
20.36
15.67
11.30
7.54
4.52
2.24
0.56
-0.70
-1.71
-2.65
-3.63
-4.80
-6.23
-7.97
-10.05
-12.48
-15.35
-18.78
-22.92
-27.85
-33.44
-39.24
-44.51
-48.31
-49.79
-48.39
-44.03
-37.06
-28.17
-18.12
-7.69
2.46
11.71
19.53
25.50
29.41
31.29
31.40
30.21
28.22
25.90
23.61
21.55
19.79
18.35
17.18
16.24
15.50
14.89
14.32
13.69
12.83
11.59
9.89
7.65
4.93
1.81
-1.52
-4.88
-8.08
-11.01
-13.64
-16.05
-18.42
-20.95
-23.80
-27.01
-30.44
-33.74
-36.38
-37.70
-37.10
-34.14
-28.74
-21.20
-12.14
-2.38
7.22
15.96
23.31
28.98
32.84
34.85
35.14
33.91
31.54
28.47
25.17
21.99
19.10
16.58
14.38
12.45
10.78
9.34
8.14
7.10
6.14
5.09
3.79
2.07
-0.18
-2.93
-6.05
-9.25
-12.23
-14.78
-16.85
-18.58
-20.27
-22.21
-24.59
-27.35
-30.20
-32.64
-34.08
-34.01
-32.06
-28.13
-22.40
-15.27
-7.33
0.75
8.32
14.87
20.06
23.73
25.95
26.89
26.78
25.85
24.30
22.31
20.05
17.66
15.28
13.04
10.98
9.17
7.61
6.31
5.23
4.32
3.41
2.29
0.75
-1.33
-3.88
-6.66
-9.39
-11.83
-13.90
-15.71
-17.45
-19.31
-21.41
-23.84
-26.59
-29.59
-32.62
-35.21
-36.73
-36.48
-34.01
-29.23
-22.48
-14.47
-6.00
2.16
9.45
15.52
20.21
23.53
25.63
26.69
26.93
26.48
25.41
23.77
21.59
18.99
16.11
13.16
10.31
7.73
5.51
3.69
2.25
1.09
0.09
-0.91
-2.10
-3.64
-5.69
-8.38
-11.70
-15.49
-19.40
-22.99
-25.83
-27.60
-28.21
-27.75
-26.41
-24.41
-21.91
-18.99
-15.67
-11.96
-7.88
-3.46
1.21
5.97
10.63
14.94
18.69
21.71
23.89
25.22
25.78
25.70
25.21
24.55
23.90
23.33
22.73
21.90
20.61
18.76
16.44
13.94
11.62
9.86
8.85
8.60
8.87
9.20
9.02
7.78
5.16
1.15
-3.88
-9.25
-14.22
-18.12
-20.62
-21.79
-21.99
-21.82
-21.83
-22.32
-23.26
-24.28
-24.80
-24.20
-22.07
-18.31
-13.13
-7.00
-0.53
5.72
11.27
15.82
19.23
21.58
23.03
23.84
24.27
24.50
24.67
24.79
24.84
24.76
24.48
23.97
23.20
22.14
20.80
19.13
17.14
14.84
12.29
9.59
6.81
4.02
1.24
-1.51
-4.18
-6.66
-8.82
-10.54
-11.83
-12.84
-13.81
-15.04
-16.78
-19.14
-22.04
-25.17
-28.04
-30.04
-30.54
-29.07
-25.45
-19.86
-12.77
-4.87
3.14
10.68
17.25
22.50
26.20
28.16
28.42
27.18
24.83
21.87
18.78
15.87
13.29
11.00
8.91
6.96
5.11
3.39
1.80
0.30
-1.17
-2.70
-4.34
-6.10
-7.95
-9.86
-11.76
-13.61
-15.39
-17.12
-18.85
-20.69
-22.74
-25.08
-27.69
-30.39
-32.86
-34.63
-35.22
-34.24
-31.47
-26.94
-20.93
-13.89
-6.40
0.98
7.79
13.65
18.29
21.56
23.42
23.94
23.32
21.86
19.86
17.63
15.41
13.32
11.43
9.76
8.31
7.06
6.02
5.16
4.38
3.59
2.64
1.41
-0.14
-2.01
-4.12
-6.33
-8.55
-10.69
-12.75
-14.82
-17.04
-19.59
-22.66
-26.26
-30.16
-33.81
-36.39
-37.07
-35.26
-30.81
-24.11
-15.93
-7.21
1.20
8.71
15.01
19.97
23.64
26.09
27.46
27.88
27.48
26.38
24.68
22.52
20.08
17.57
15.23
13.28
11.83
10.90
10.41
10.17
9.97
9.58
8.79
7.49
5.65
3.30
0.51
-2.60
-5.92
-9.34
-12.72
-15.96
-19.04
-22.06
-25.22
-28.63
-32.18
-35.48
-37.83
-38.45
-36.75
-32.54
-26.14
-18.19
-9.54
-1.00
6.79
13.37
18.49
22.04
24.12
24.95
24.88
24.24
23.24
21.95
20.30
18.22
15.70
12.88
10.03
7.46
5.47
4.22
3.74
3.86
4.29
4.60
4.43
3.50
1.72
-0.80
-3.77
-6.85
-9.75
-12.29
-14.44
-16.22
-17.67
-18.78
-19.48
-19.60
-18.91
-17.15
-14.08
-9.54
-3.58
3.49
11.09
18.48
24.95
29.94
33.14
34.46
33.99
31.92
28.50
24.08
19.08
14.04
9.52
6.01
3.82
2.97
3.27
4.33
5.70
6.96
7.82
8.09
7.66
6.46
4.43
1.58
-1.94
-5.82
-9.66
-13.11
-15.99
-18.43
-20.78
-23.47
-26.88
-31.10
-35.89
-40.73
-44.92
-47.68
-48.34
-46.41
-41.75
-34.59
-25.54
-15.51
-5.46
3.72
11.44
17.39
21.56
24.10
25.25
25.26
24.36
22.79
20.78
18.55
16.27
14.06
11.99
10.12
8.49
7.18
6.21
5.57
5.12
4.68
3.99
2.83
1.05
-1.30
-4.05
-6.93
-9.66
-12.09
-14.21
-16.20
-18.35
-20.94
-24.09
-27.70
-31.37
-34.47
-36.27
-36.11
-33.60
-28.69
-21.70
-13.20
-3.90
5.50
14.40
22.32
28.93
34.09
37.75
39.99
40.91
40.62
39.21
36.82
33.66
30.10
26.57
23.50
21.20
19.80
19.19
19.17
19.46
19.80
19.93
19.64
18.75
17.10
14.64
11.44
7.63
3.40
-1.00
-5.34
-9.45
-13.23
-16.76
-20.25
-24.03
-28.34
-33.23
-38.37
-43.08
-46.48
-47.72
-46.24
-41.91
-35.02
-26.17
-16.15
-5.75
4.33
13.47
21.22
27.21
31.27
33.36
33.68
32.56
30.44
27.82
25.11
22.63
20.51
18.74
17.20
15.80
14.52
13.44
12.60
12.00
11.43
10.58
9.10
6.81
3.73
0.09
-3.78
-7.58
-11.10
-14.29
-17.15
-19.77
-22.27
-24.79
-27.47
-30.40
-33.48
-36.38
-38.53
-39.22
-37.82
-33.99
-27.84
-19.90
-10.99
-2.00
6.38
13.67
19.65
24.20
27.26
28.77
28.78
27.51
25.30
22.65
20.00
17.63
15.60
13.84
12.22
10.71
9.33
8.20
7.37
6.81
6.39
5.91
5.16
3.99
2.32
0.17
-2.33
-4.97
-7.53
-9.86
-11.92
-13.86
-15.93
-18.42
-21.48
-25.04
-28.70
-31.84
-33.71
-33.64
-31.18
-26.28
-19.27
-10.83
-1.80
6.96
14.73
21.03
25.63
28.47
29.64
29.31
27.73
25.22
22.15
18.91
15.87
13.27
11.25
9.81
8.82
8.12
7.56
7.01
6.38
5.61
4.67
3.53
2.18
0.62
-1.18
-3.23
-5.52
-7.97
-10.53
-13.08
-15.62
-18.22
-21.03
-24.23
-27.87
-31.78
-35.52
-38.43
-39.74
-38.85
-35.47
-29.70
-22.07
-13.35
-4.38
4.12
11.69
18.04
23.04
26.58
28.58
29.03
28.07
26.04
23.39
20.57
17.86
15.35
12.96
10.60
8.25
6.01
4.06
2.52
1.44
0.83
0.66
0.91
1.47
2.18
2.73
2.79
2.12
0.62
-1.62
-4.44
-7.70
-11.34
-15.41
-19.92
-24.74
-29.58
-33.89
-36.97
-38.09
-36.63
-32.37
-25.53
-16.83
-7.25
2.23
10.87
18.33
24.53
29.50
33.22
35.60
36.52
35.99
34.24
31.62
28.52
25.26
22.02
18.90
15.94
13.22
10.89
9.06
7.79
6.99
6.48
5.97
5.19
3.98
2.33
0.30
-2.00
-4.48
-7.08
-9.75
-12.44
-15.08
-17.69
-20.33
-23.20
-26.45
-30.06
-33.71
-36.77
-38.42
-37.95
-34.97
-29.55
-22.18
-13.62
-4.70
3.80
11.23
17.18
21.41
23.92
24.90
24.64
23.52
21.87
19.96
18.02
16.17
14.54
13.13
11.92
10.81
9.73
8.67
7.68
6.87
6.30
5.94
5.67
5.24
4.41
2.95
0.80
-1.95
-5.02
-8.07
-10.80
-13.10
-15.10
-17.10
-19.47
-22.36
-25.62
-28.75
-31.01
-31.65
-30.11
-26.20
-20.14
-12.53
-4.19
4.00
11.27
17.12
21.33
23.91
25.01
24.86
23.71
21.81
19.45
16.91
14.43
12.18
10.21
8.53
7.15
6.12
5.51
5.34
5.54
5.90
6.11
5.88
5.05
3.64
1.77
-0.34
-2.50
-4.59
-6.56
-8.43
-10.31
-12.36
-14.76
-17.61
-20.79
-23.90
-26.30
-27.23
-26.11
-22.71
-17.24
-10.30
-2.63
5.01
12.01
17.96
22.64
25.91
27.80
28.40
27.88
26.46
24.39
21.90
19.16
16.33
13.56
10.98
8.67
6.76
5.31
4.41
4.01
3.98
4.08
3.97
3.34
2.01
-0.01
-2.55
-5.33
-8.11
-10.74
-13.23
-15.74
-18.52
-21.74
-25.47
-29.56
-33.63
-37.11
-39.38
-39.81
-37.99
-33.82
-27.51
-19.64
-11.01
-2.50
5.15
11.47
16.27
19.62
21.71
22.72
22.79
22.04
20.60
18.65
16.44
14.21
12.17
10.42
8.97
7.78
6.78
5.93
5.21
4.57
3.97
3.28
2.35
1.01
-0.80
-3.08
-5.67
-8.34
-10.87
-13.17
-15.31
-17.51
-20.03
-23.06
-26.59
-30.30
-33.59
-35.68
-35.85
-33.60
-28.86
-22.01
-13.77
-5.02
3.39
10.84
16.94
21.53
24.63
26.35
26.86
26.37
25.12
23.37
21.36
19.36
17.57
16.13
15.06
14.28
13.69
13.21
12.82
12.55
12.41
12.30
12.05
11.43
10.30
8.66
6.66
4.56
2.56
0.77
-0.86
-2.46
-4.25
-6.42
-9.04
-11.96
-14.78
-16.88
-17.53
-16.13
-12.32
-6.10
2.18
11.92
22.38
32.82
42.54
51.05
58.09
63.74
68.41
72.64
76.96
81.67
86.73
91.85
96.72
101.18
105.43
109.99
115.50
122.50
131.18
141.18
151.58
160.91
167.63
170.50
169.29
165.23
160.93
159.60
163.88
174.60
190.20
206.94
220.03
225.02
219.01
201.18
172.61
135.64
93.06
47.47
0.98
-45.04
-90.07
-134.43
-178.87
-223.78
-268.39
-310.24
-345.57
-370.42
-382.02
-379.81
-365.59
-342.68
-314.77
-285.03
-255.70
-228.34
-203.91
-182.71
-164.04
-146.00
-125.94
-101.40
-71.21
-36.23
0.83
36.24
66.35
88.69
102.50
108.82
109.90
108.50
106.92
106.28
106.20
105.02
100.49
90.71
74.88
53.54
28.45
2.01
-23.38
-45.74
-63.71
-76.59
-84.23
-87.05
-85.98
-82.37
-77.79
-73.71
-71.26
-71.03
-73.14
-77.39
-83.52
-91.37
-100.86
-111.84
-123.87
-136.09
-147.24
-155.97
-161.21
-162.42
-159.96
-154.98
-149.35
-145.18
-144.29
-147.73
-155.44
-166.03
-177.00
-184.98
-186.25
-177.34
-155.83
-121.15
-75.21
-22.41
31.15
79.23
117.31
143.95
160.98
172.33
182.08
192.66
204.03
214.19
220.63
221.85
218.23
211.80
205.15
200.30
197.93
197.39
197.35
196.61
194.75
192.18
189.88
188.91
190.08
193.83
200.24
209.16
220.06
231.91
243.00
251.22
254.47
251.32
241.35
225.07
203.42
177.12
146.29
110.47
69.07
21.87
-30.47
-86.13
-142.21
-195.05
-240.86
-276.57
-300.66
-313.50
-316.98
-313.52
-304.86
-291.53
-273.02
-248.72
-218.89
-185.16
-149.97
-115.66
-83.55
-53.53
-24.59
4.38
33.73
62.67
89.73
113.59
133.83
151.07
166.55
181.08
194.20
204.01
207.99
204.35
193.24
177.04
159.43
143.83
131.86
122.67
113.46
100.83
82.43
57.93
29.07
-1.30
-30.56
-57.54
-82.99
-109.05
-138.31
-172.75
-213.21
-259.30
-309.56
-361.73
-412.72
-458.66
-495.31
-518.99
-527.64
-521.52
-503.00
-475.52
-442.18
-404.69
-363.42
-318.71
-272.59
-229.58
-195.71
-175.90
-171.01
-176.50
-183.58
-182.67
-167.32
-136.70
-95.10
-49.19
-4.67
36.05
73.95
111.90
152.78
198.32
248.61
302.21
356.17
406.13
446.93
473.65
483.04
474.28
449.33
412.07
366.91
317.66
266.66
214.49
160.22
102.48
41.26
-20.52
-76.50
-118.35
-138.89
-135.46
-111.85
-77.46
-44.26
-22.86
-19.41
-34.44
-63.67
-99.89
-135.17
-162.75
-178.47
-181.65
-174.96
-163.56
-153.12
-147.71
-148.40
-153.22
-158.08
-158.23
-149.57
-129.26
-95.94
-49.66
7.82
72.77
139.58
201.40
251.53
285.09
300.24
298.56
284.16
262.11
236.82
210.94
185.24
158.89
130.13
97.00
58.16
13.73
-34.22
-81.72
-123.79
-155.70
-174.24
-178.22
-168.27
-146.30
-115.01
-77.79
-38.73
-2.33
27.52
48.72
61.81
69.80
76.99
87.19
102.33
122.05
144.23
166.11
185.37
200.48
210.76
216.10
216.71
213.10
206.07
196.57
185.39
172.90
158.90
142.83
124.19
102.94
79.81
56.12
33.35
12.70
-5.32
-20.86
-34.49
-46.76
-57.94
-67.88
-76.24
-82.69
-87.17
-89.98
-91.66
-92.80
-93.83
-94.86
-95.68
-95.93
-95.30
-93.69
-91.26
-88.32
-85.12
-81.68
-77.79
-73.16
-67.65
-61.48
-55.15
-49.22
-43.99
-39.32
-34.67
-29.39
-23.05
-15.67
-7.78
-0.18
6.31
11.04
13.77
14.75
14.53
13.77
13.10
12.95
13.61
15.25
17.91
21.54
25.99
30.99
36.18
41.24
45.93
50.20
54.11
57.50
60.19
62.02
62.98
63.26
63.26
63.46
64.38
66.61
70.09
74.77
80.52
87.11
94.06
100.51
105.44
108.15
108.52
105.71
99.23
88.86
74.57
56.36
34.08
7.40
-23.95
-59.93
-102.10
-151.09
-205.72
-262.54
-316.26
-361.43
-394.22
-413.48
-420.83
-422.34
-424.07
-430.02
-441.32
-456.82
-475.08
-495.60
-518.71
-526.49
-504.63
-444.47
-348.06
-227.81
-100.55
18.85
120.71
200.76
258.76
294.11
308.30
304.94
290.04
270.94
254.25
243.71
240.25
242.39
245.26
244.68
238.26
225.62
207.44
184.02
155.14
121.18
84.40
48.32
19.00
2.87
4.01
23.70
58.03
99.58
140.23
174.00
194.23
197.62
185.08
160.87
130.12
96.76
63.60
33.11
7.57
-11.75
-24.19
-30.51
-32.74
-33.32
-34.16
-35.73
-37.15
-36.94
-33.60
-26.28
-15.22
-1.69
12.70
26.61
39.53
51.91
64.90
79.86
98.44
120.98
145.73
168.91
185.65
191.88
186.12
170.25
146.27
119.83
96.90
81.44
74.53
74.75
79.52
86.37
93.47
99.68
104.55
107.56
108.27
106.79
103.93
100.81
98.16
95.35
90.15
79.40
59.85
29.48
-11.39
-59.96
-111.68
-161.57
-205.42
-240.40
-264.72
-277.28
-277.22
-264.05
-238.48
-203.31
-163.72
-126.28
-96.95
-78.99
-71.97
-72.44
-75.93
-79.24
-81.76
-85.26
-92.47
-105.44
-124.46
-148.00
-173.21
-196.36
-213.31
-220.18
-214.16
-194.49
-163.04
-123.98
-82.77
-44.63
-13.46
8.57
20.80
23.74
18.97
9.25
-1.70
-9.82
-11.83
-6.13
6.77
24.58
44.12
62.31
76.80
86.32
90.77
91.02
88.62
85.24
82.20
80.04
78.53
77.08
75.19
72.80
70.08
67.09
63.54
58.78
52.30
44.16
35.17
26.69
20.15
16.44
15.75
17.67
21.48
26.41
31.68
36.42
39.63
40.27
37.59
31.44
22.41
11.68
0.64
-9.56
-18.29
-25.43
-31.17
-35.72
-39.11
-41.16
-41.64
-40.53
-38.12
-34.92
-31.46
-28.08
-24.82
-21.50
-17.99
-14.41
-11.16
-8.87
-8.10
-9.14
-11.98
-16.29
-21.61
-27.31
-32.65
-36.73
-38.57
-37.30
-32.36
-23.73
-11.98
1.94
16.80
31.44
44.87
56.36
65.46
71.98
75.93
77.59
77.40
75.86
73.45
70.50
67.18
63.59
59.81
55.97
52.29
48.93
45.95
43.22
40.43
37.26
33.46
28.99
24.00
18.80
13.71
9.00
4.83
1.29
-1.67
-4.16
-6.39
-8.63
-11.11
-13.92
-16.95
-19.81
-21.89
-22.56
-21.33
-18.05
-12.95
-6.56
0.43
7.39
13.79
19.26
23.54
26.42
27.76
27.56
25.97
23.32
20.08
16.75
13.72
11.22
9.33
7.95
6.99
6.36
6.01
5.91
5.96
5.94
5.58
4.57
2.72
0.06
-3.17
-6.62
-9.96
-13.02
-15.84
-18.56
-21.34
-24.28
-27.36
-30.48
-33.42
-35.84
-37.23
-36.98
-34.57
-29.74
-22.66
-13.86
-4.14
5.72
15.11
23.61
30.95
36.87
41.14
43.59
44.17
43.02
40.45
36.83
32.55
27.96
23.32
18.84
14.62
10.66
6.92
3.43
0.26
-2.46
-4.65
-6.46
-8.25
-10.56
-13.91
-18.58
-24.46
-31.07
-37.77
-43.94
-49.20
-53.48
-56.97
-60.00
-62.85
-65.60
-68.04
-69.68
-69.81
-67.74
-63.00
-55.39
-45.11
-32.63
-18.64
-3.96
10.54
24.05
35.91
45.70
53.31
58.86
62.62
64.87
65.72
65.20
63.27
59.88
55.12
49.20
42.46
35.34
28.33
21.88
16.30
11.67
7.81
4.32
0.69
-3.49
-8.37
-13.81
-19.44
-24.87
-29.86
-34.40
-38.67
-42.95
-47.36
-51.87
-56.29
-60.35
-63.74
-66.17
-67.30
-66.77
-64.26
-59.63
-53.01
-44.85
-35.85
-26.79
-18.36
-11.12
-5.42
-1.49
0.59
0.92
-0.20
-2.23
-4.41
-5.94
-6.19
-4.83
-1.91
2.15
6.84
11.69
16.42
21.02
25.60
30.27
35.04
39.75
44.12
47.83
50.66
52.57
53.64
54.01
53.79
52.98
51.46
49.03
45.54
40.86
34.95
27.90
19.96
11.62
3.57
-3.40
-8.58
-11.52
-12.13
-10.61
-7.40
-3.02
1.95
6.95
11.49
15.12
17.54
18.59
18.23
16.52
13.57
9.54
4.68
-0.70
-6.26
-11.75
-17.03
-22.03
-26.68
-30.81
-34.16
-36.42
-37.41
-37.14
-35.91
-34.17
-32.50
-31.34
-30.96
-31.36
-32.39
-33.85
-35.58
-37.52
-39.69
-42.05
-44.36
-46.13
-46.60
-44.86
-40.10
-31.84
-20.07
-5.28
11.65
29.68
47.72
64.83
80.20
93.18
103.30
110.29
114.15
115.19
113.97
111.19
107.48
103.30
98.82
93.91
88.30
81.71
74.03
65.39
56.16
46.77
37.58
28.80
20.43
12.39
4.62
-2.96
-10.35
-17.59
-24.76
-32.00
-39.41
-47.02
-54.76
-62.44
-69.79
-76.48
-82.22
-86.81
-90.10
-91.94
-92.07
-90.15
-85.84
-79.03
-69.92
-59.16
-47.65
-36.27
-25.75
-16.50
-8.73
-2.54
2.02
4.94
6.28
6.23
5.06
3.05
0.43
-2.64
-6.00
-9.42
-12.62
-15.29
-17.16
-18.10
-18.13
-17.42
-16.26
-14.97
-13.84
-13.10
-12.90
-13.26
-14.08
-15.19
-16.37
-17.45
-18.36
-19.19
-20.16
-21.57
-23.58
-26.13
-28.81
-30.89
-31.45
-29.69
-25.13
-17.83
-8.40
2.14
12.68
22.23
30.18
36.29
40.57
43.21
44.38
44.26
42.99
40.80
37.92
34.61
31.09
27.48
23.86
20.28
16.82
13.61
10.78
8.39
6.37
4.47
2.38
-0.20
-3.43
-7.22
-11.27
-15.19
-18.70
-21.72
-24.43
-27.18
-30.32
-34.08
-38.44
-43.12
-47.57
-51.06
-52.75
-51.87
-47.95
-41.00
-31.55
-20.50
-8.92
2.29
12.48
21.31
28.66
34.48
38.73
41.38
42.49
42.22
40.77
38.39
35.31
31.77
28.04
24.44
21.35
19.09
17.85
17.57
17.98
18.66
19.12
18.93
17.83
15.69
12.58
8.70
4.33
-0.23
-4.72
-9.05
-13.27
-17.61
-22.31
-27.51
-33.02
-38.29
-42.45
-44.57
-43.93
-40.25
-33.78
-25.18
-15.33
-5.08
4.82
13.78
21.36
27.23
31.24
33.45
34.12
33.66
32.55
31.17
29.74
28.29
26.74
24.94
22.82
20.44
17.98
15.69
13.75
12.23
10.99
9.76
8.25
6.20
3.56
0.40
-3.10
-6.74
-10.37
-13.93
-17.44
-20.96
-24.66
-28.74
-33.32
-38.32
-43.30
-47.46
-49.80
-49.45
-45.94
-39.40
-30.47
-20.12
-9.37
0.92
10.13
17.85
23.87
28.18
30.89
32.28
32.65
32.28
31.39
30.12
28.59
26.89
25.12
23.33
21.56
19.85
18.24
16.78
15.50
14.34
13.16
11.73
9.85
7.40
4.40
0.96
-2.72
-6.51
-10.32
-14.24
-18.38
-22.93
-28.00
-33.49
-38.98
-43.74
-46.84
-47.39
-44.87
-39.27
-31.18
-21.51
-11.27
-1.31
7.79
15.75
22.42
27.69
31.53
33.90
34.84
34.51
33.14
31.09
28.74
26.43
24.39
22.68
21.21
19.85
18.51
17.21
16.03
15.02
14.09
12.98
11.36
8.92
5.56
1.39
-3.34
-8.32
-13.36
-18.42
-23.59
-29.03
-34.82
-40.94
-47.11
-52.89
-57.61
-60.51
-60.89
-58.24
-52.45
-43.83
-33.08
-21.16
-9.03
2.45
12.72
21.40
28.34
33.49
36.90
38.71
39.13
38.50
37.19
35.58
34.00
32.67
31.64
30.83
30.09
29.31
28.51
27.79
27.24
26.81
26.27
25.28
23.46
20.65
16.86
12.33
7.38
2.32
-2.60
-7.22
-11.53
-15.63
-19.80
-24.32
-29.37
-34.73
-39.77
-43.54
-45.03
-43.54
-38.90
-31.48
-22.04
-11.48
-0.70
9.50
18.43
25.56
30.51
33.18
33.72
32.50
29.96
26.55
22.66
18.59
14.58
10.83
7.38
4.21
1.19
-1.76
-4.61
-7.20
-9.32
-10.83
-11.79
-12.44
-13.14
-14.23
-15.87
-17.99
-20.32
-22.58
-24.53
-26.17
-27.69
-29.50
-32.09
-35.87
-40.99
-47.18
-53.76
-59.70
-63.83
-65.12
-62.85
-56.85
-47.46
-35.52
-22.13
-8.53
4.21
15.29
24.28
31.10
35.96
39.18
41.09
41.96
41.99
41.32
40.05
38.30
36.26
34.14
32.18
30.57
29.41
28.68
28.23
27.88
27.45
26.82
25.92
24.65
22.95
20.76
18.07
15.02
11.83
8.76
5.99
3.52
1.16
-1.42
-4.56
-8.44
-12.97
-17.72
-21.96
-24.84
-25.56
-23.61
-18.91
-11.82
-3.04
6.49
15.87
24.36
31.47
36.98
40.90
43.41
44.68
44.86
44.05
42.33
39.84
36.80
33.51
30.27
27.29
24.68
22.42
20.45
18.72
17.17
15.78
14.50
13.21
11.74
9.85
7.31
3.91
-0.38
-5.45
-10.97
-16.53
-21.73
-26.35
-30.39
-34.08
-37.78
-41.83
-46.37
-51.19
-55.73
-59.09
-60.33
-58.69
-53.87
-46.08
-36.03
-24.73
-13.28
-2.68
6.34
13.36
18.30
21.32
22.80
23.15
22.66
21.52
19.72
17.25
14.22
10.90
7.69
5.02
3.13
2.04
1.50
1.13
0.53
-0.49
-1.93
-3.58
-5.16
-6.53
-7.71
-8.95
-10.50
-12.52
-14.96
-17.63
-20.30
-22.89
-25.49
-28.28
-31.45
-35.07
-39.08
-43.36
-47.69
-51.76
-55.12
-57.23
-57.50
-55.58
-51.51
-45.78
-39.30
-33.14
-28.32
-25.54
-25.02
-26.48
-29.21
-32.27
-34.76
-36.09
-36.05
-34.80
-32.61
-29.67
-25.92
-21.08
-14.88
-7.32
1.17
9.82
17.73
24.22
28.97
32.08
33.87
34.73
34.99
34.92
34.79
34.83
35.20
35.82
36.39
36.41
35.43
33.21
29.94
26.18
22.68
20.24
19.42
20.50
23.44
27.98
33.68
40.03
46.46
52.41
57.42
61.13
63.40
64.24
63.72
61.93
58.91
54.68
49.34
43.14
36.39
29.44
22.48
15.60
8.77
1.98
-4.66
-10.90
-16.34
-20.54
-23.12
-23.80
-22.54
-19.49
-15.00
-9.64
-4.10
0.90
4.76
7.11
7.93
7.41
5.86
3.60
0.90
-1.90
-4.26
-5.45
-4.67
-1.43
4.22
11.63
19.74
27.43
33.85
38.50
41.20
41.90
40.63
37.55
33.02
27.63
22.08
16.98
12.61
8.93
5.64
2.37
-1.13
-4.92
-8.93
-12.99
-16.95
-20.69
-24.14
-27.21
-29.86
-32.08
-33.95
-35.63
-37.25
-38.87
-40.41
-41.71
-42.62
-43.09
-43.23
-43.27
-43.37
-43.54
-43.52
-42.86
-41.05
-37.74
-32.86
-26.68
-19.67
-12.34
-5.08
1.83
8.22
13.93
18.79
22.67
25.52
27.38
28.43
28.83
28.70
28.02
26.78
25.06
23.09
21.21
19.81
19.11
19.16
19.76
20.60
21.33
21.72
21.66
21.19
20.40
19.44
18.40
17.30
16.05
14.45
12.17
8.86
4.23
-1.73
-8.64
-15.72
-21.88
-26.02
-27.34
-25.59
-21.13
-14.74
-7.40
0.01
6.77
12.39
16.50
18.84
19.24
17.74
14.63
10.37
5.49
0.42
-4.58
-9.40
-13.96
-18.18
-21.94
-25.13
-27.74
-29.85
-31.70
-33.46
-35.30
-37.25
-39.27
-41.27
-43.14
-44.72
-45.91
-46.61
-46.87
-46.85
-46.82
-47.04
-47.66
-48.53
-49.25
-49.17
-47.63
-44.10
-38.41
-30.77
-21.74
-12.10
-2.64
5.94
13.15
18.79
22.90
25.74
27.69
29.14
30.40
31.67
32.91
34.00
34.70
34.79
34.18
32.96
31.44
30.01
29.06
28.78
29.09
29.63
29.92
29.52
28.13
25.69
22.28
18.07
13.26
7.93
2.12
-4.26
-11.24
-18.72
-26.30
-33.23
-38.55
-41.30
-40.88
-37.22
-30.87
-22.82
-14.17
-5.91
1.26
6.95
11.00
13.36
14.11
13.39
11.52
9.03
6.57
4.81
4.16
4.58
5.61
6.55
6.80
6.14
4.80
3.29
2.14
1.58
1.48
1.40
0.83
-0.58
-2.91
-6.05
-9.75
-13.81
-18.12
-22.76
-27.89
-33.52
-39.39
-44.84
-48.89
-50.48
-48.82
-43.58
-34.96
-23.63
-10.52
3.34
16.85
28.94
38.63
45.18
48.30
48.19
45.49
41.09
35.85
30.47
25.44
21.10
17.74
15.51
14.38
14.07
14.07
13.85
13.00
11.42
9.30
6.99
4.77
2.74
0.72
-1.61
-4.57
-8.40
-13.12
-18.59
-24.57
-30.69
-36.49
-41.37
-44.66
-45.66
-43.88
-39.14
-31.72
-22.32
-11.94
-1.65
7.65
15.39
21.43
25.91
29.14
31.38
32.73
33.20
32.77
31.54
29.74
27.67
25.54
23.49
21.51
19.57
17.68
15.88
14.15
12.41
10.44
8.03
5.05
1.54
-2.28
-6.14
-9.85
-13.39
-16.89
-20.62
-24.80
-29.55
-34.78
-40.14
-44.94
-48.26
-49.12
-46.78
-40.96
-32.07
-21.09
-9.39
1.68
11.10
18.38
23.53
26.94
29.11
30.52
31.44
31.97
32.07
31.62
30.52
28.72
26.29
23.40
20.38
17.58
15.33
13.79
12.86
12.19
11.26
9.65
7.13
3.80
0.02
-3.80
-7.40
-10.69
-13.82
-17.02
-20.50
-24.40
-28.74
-33.38
-37.95
-41.85
-44.25
-44.30
-41.37
-35.28
-26.40
-15.63
-4.05
7.23
17.40
25.98
32.82
37.97
41.52
43.59
44.26
43.65
41.93
39.42
36.45
33.36
30.35
27.48
24.73
22.08
19.59
17.44
15.74
14.43
13.25
11.72
9.42
6.12
1.95
-2.69
-7.29
-11.46
-15.08
-18.31
-21.50
-25.04
-29.21
-34.01
-39.16
-44.04
-47.86
-49.78
-49.15
-45.64
-39.34
-30.73
-20.55
-9.71
0.87
10.38
18.21
24.07
27.99
30.28
31.37
31.63
31.26
30.31
28.76
26.66
24.20
21.61
19.15
16.97
15.11
13.57
12.35
11.45
10.82
10.36
9.82
8.86
7.22
4.78
1.66
-1.88
-5.52
-9.00
-12.29
-15.49
-18.86
-22.68
-27.15
-32.27
-37.71
-42.81
-46.61
-48.08
-46.42
-41.37
-33.32
-23.20
-12.22
-1.54
7.95
15.79
21.83
26.12
28.84
30.16
30.30
29.49
27.99
26.08
23.96
21.85
19.88
18.19
16.86
15.97
15.52
15.46
15.64
15.89
16.01
15.85
15.35
14.47
13.25
11.68
9.75
7.43
4.72
1.70
-1.52
-4.79
-8.12
-11.62
-15.57
-20.22
-25.63
-31.52
-37.24
-41.93
-44.76
-45.17
-43.02
-38.55
-32.30
-24.89
-16.96
-9.06
-1.60
5.10
10.83
15.51
19.10
21.65
23.24
23.99
24.05
23.60
22.81
21.79
20.61
19.27
17.84
16.40
15.11
14.11
13.40
12.89
12.39
11.73
10.84
9.71
8.38
6.82
4.92
2.55
-0.34
-3.70
-7.33
-10.96
-14.34
-17.33
-19.93
-22.31
-24.73
-27.49
-30.69
-34.10
-37.11
-38.82
-38.41
-35.39
-29.86
-22.42
-13.96
-5.34
2.86
10.39
17.15
23.10
28.14
32.06
34.72
36.07
36.18
35.19
33.31
30.72
27.68
24.50
21.59
19.26
17.70
16.81
16.20
15.36
13.85
11.50
8.50
5.37
2.72
1.02
0.33
0.18
-0.32
-2.20
-6.28
-12.81
-21.36
-30.84
-39.81
-46.95
-51.40
-53.09
-52.57
-50.69
-48.22
-45.47
-42.29
-38.21
-32.81
-25.94
-17.74
-8.62
0.88
10.14
18.48
25.22
29.79
31.91
31.67
29.44
25.70
20.90
15.41
9.63
4.07
-0.66
-4.00
-5.67
-5.72
-4.44
-2.12
1.18
5.54
11.04
17.39
23.82
29.25
32.65
33.36
31.39
27.30
21.96
16.25
10.81
5.93
1.68
-2.07
-5.50
-8.80
-12.17
-15.78
-19.80
-24.28
-29.11
-33.92
-38.10
-40.88
-41.58
-39.80
-35.55
-29.22
-21.46
-12.94
-4.26
4.05
11.55
17.89
22.85
26.41
28.77
30.22
31.01
31.28
31.09
30.49
29.62
28.69
27.90
27.38
27.11
27.00
26.88
26.59
26.01
25.04
23.65
21.84
19.66
17.12
14.22
10.91
7.13
2.87
-1.79
-6.67
-11.55
-16.22
-20.54
-24.38
-27.71
-30.62
-33.28
-35.98
-39.00
-42.46
-46.21
-49.76
-52.44
-53.46
-52.26
-48.59
-42.60
-34.88
-26.24
-17.54
-9.50
-2.54
3.20
7.83
11.52
14.40
16.51
17.82
18.32
18.07
17.21
15.94
14.51
13.16
12.10
11.48
11.34
11.57
11.96
12.21
12.08
11.44
10.32
8.81
7.07
5.21
3.30
1.35
-0.66
-2.74
-4.90
-7.14
-9.43
-11.71
-13.92
-16.07
-18.22
-20.49
-23.01
-25.73
-28.39
-30.49
-31.38
-30.51
-27.56
-22.57
-15.92
-8.24
-0.24
7.37
13.97
19.11
22.48
24.00
23.78
22.13
19.43
16.12
12.59
9.16
6.12
3.74
2.20
1.62
1.94
2.95
4.34
5.75
6.88
7.52
7.59
7.09
6.08
4.64
2.89
0.95
-1.09
-3.18
-5.34
-7.58
-9.88
-12.13
-14.13
-15.71
-16.82
-17.57
-18.20
-18.90
-19.72
-20.49
-20.87
-20.54
-19.34
-17.35
-14.82
-12.14
-9.63
-7.48
-5.70
-4.11
-2.43
-0.34
2.34
5.63
9.34
13.22
17.03
20.66
24.09
27.32
30.25
32.66
34.31
35.10
35.13
34.76
34.40
34.29
34.36
34.20
33.28
31.12
27.54
22.66
16.83
10.51
4.09
-2.13
-7.96
-13.28
-18.04
-22.24
-25.88
-29.04
-31.79
-34.29
-36.67
-39.01
-41.19
-42.86
-43.47
-42.41
-39.25
-33.92
-26.78
-18.49
-9.86
-1.55
5.92
12.29
17.38
21.13
23.52
24.64
24.74
24.12
23.09
21.89
20.63
19.35
18.12
17.00
16.11
15.51
15.17
14.98
14.76
14.33
13.57
12.35
10.59
8.29
5.48
2.30
-1.01
-4.21
-7.15
-9.78
-12.20
-14.60
-17.18
-20.13
-23.58
-27.54
-31.85
-36.10
-39.69
-41.92
-42.25
-40.36
-36.35
-30.58
-23.59
-15.93
-8.08
-0.52
6.32
11.90
15.71
17.34
16.72
14.21
10.71
7.46
5.80
6.69
10.44
16.45
23.42
29.75
34.03
35.48
34.06
30.32
25.15
19.41
13.81
8.85
4.79
1.74
-0.39
-1.81
-2.87
-3.90
-5.20
-6.94
-9.15
-11.79
-14.75
-17.88
-21.05
-24.19
-27.20
-29.96
-32.27
-33.77
-34.02
-32.64
-29.40
-24.41
-18.10
-11.19
-4.49
1.32
5.85
9.06
11.21
12.71
13.90
14.99
15.96
16.61
16.68
15.93
14.22
11.56
8.27
4.88
2.14
0.77
1.20
3.35
6.51
9.62
11.57
11.67
9.80
6.39
2.16
-2.18
-6.09
-9.28
-11.64
-13.13
-13.87
-14.24
-14.81
-16.29
-19.24
-23.75
-29.34
-34.95
-39.30
-41.16
-39.74
-34.81
-26.78
-16.49
-5.00
6.61
17.44
26.88
34.65
40.64
44.95
47.71
49.11
49.39
48.81
47.66
46.16
44.49
42.74
40.95
39.16
37.38
35.63
33.88
32.10
30.28
28.45
26.70
25.15
23.79
22.48
21.01
19.13
16.79
14.11
11.32
8.65
6.12
3.53
0.53
-3.22
-7.96
-13.72
-20.36
-27.52
-34.69
-41.14
-45.99
-48.33
-47.52
-43.32
-36.04
-26.52
-16.04
-6.17
1.53
5.81
6.20
3.24
-1.55
-6.11
-8.52
-7.67
-3.57
2.88
10.37
17.87
24.95
31.68
38.29
44.73
50.54
54.98
57.35
57.36
55.18
51.32
46.33
40.58
34.22
27.32
20.07
12.74
5.54
-1.71
-9.69
-19.37
-31.54
-46.33
-62.81
-79.31
-93.89
-104.95
-111.60
-113.65
-111.35
-105.07
-95.20
-82.21
-66.86
-50.21
-33.51
-17.92
-4.23
7.29
16.77
24.52
30.77
35.51
38.51
39.48
38.32
35.29
31.03
26.40
22.20
18.88
16.36
14.23
12.03
9.66
7.54
6.50
7.24
9.86
13.52
16.63
17.51
15.05
9.34
1.63
-5.99
-11.29
-12.56
-9.07
-1.38
8.67
18.20
24.04
23.71
16.58
4.40
-9.01
-19.03
-21.82
-15.57
-0.69
20.94
47.10
76.19
107.34
139.92
172.87
204.34
231.88
252.97
265.59
268.75
262.60
248.37
227.82
202.54
173.04
138.12
95.10
41.05
-25.18
-101.35
-181.37
-256.58
-318.16
-359.61
-378.07
-374.26
-351.43
-314.32
-268.50
-220.07
-175.22
-139.20
-115.02
-102.59
-99.05
-100.28
-102.83
-105.16
-107.52
-110.74
-114.83
-118.43
-119.29
-115.40
-105.98
-91.73
-74.20
-54.95
-35.00
-14.92
4.68
22.75
37.70
47.87
52.25
50.95
45.24
37.12
28.65
21.37
16.12
13.08
12.12
12.99
15.49
19.51
25.15
32.65
42.25
53.86
66.86
80.06
92.18
102.38
110.74
118.16
125.78
134.17
142.86
150.50
155.48
156.67
153.75
147.04
137.16
124.76
110.52
95.36
80.48
67.14
56.25
48.00
41.92
37.18
32.98
28.84
24.61
20.34
16.09
11.95
8.04
4.54
1.62
-0.72
-2.68
-4.59
-6.82
-9.51
-12.61
-15.85
-18.96
-21.76
-24.28
-26.65
-29.06
-31.70
-34.69
-38.03
-41.64
-45.35
-48.93
-52.17
-54.97
-57.40
-59.68
-62.15
-65.19
-69.00
-73.56
-78.55
-83.38
-87.33
-89.68
-89.92
-87.85
-83.54
-77.38
-69.86
-61.55
-52.97
-44.61
-36.88
-30.12
-24.50
-20.04
-16.60
-13.90
-11.70
-9.85
-8.36
-7.33
-6.88
-7.08
-7.86
-9.00
-10.22
-11.24
-11.88
-12.15
-12.20
-12.30
-12.65
-13.34
-14.23
-15.07
-15.59
-15.59
-15.03
-13.99
-12.62
-11.11
-9.64
-8.40
-7.44
-6.67
-5.71
-3.97
-0.78
4.34
11.47
20.25
29.89
39.46
48.07
55.03
59.95
62.68
63.30
62.12
59.57
56.17
52.39
48.57
44.86
41.24
37.62
33.93
30.19
26.50
23.03
19.96
17.43
15.52
14.16
13.15
12.21
10.98
9.19
6.69
3.56
0.02
-3.65
-7.23
-10.71
-14.27
-18.19
-22.60
-27.33
-31.80
-35.10
-36.31
-34.75
-30.25
-23.23
-14.53
-5.22
3.64
11.26
17.14
21.16
23.42
24.25
24.01
23.08
21.77
20.24
18.60
16.84
14.92
12.85
10.67
8.53
6.58
4.93
3.61
2.50
1.43
0.21
-1.29
-3.15
-5.36
-7.88
-10.64
-13.58
-16.66
-19.92
-23.51
-27.64
-32.44
-37.84
-43.43
-48.44
-51.95
-53.09
-51.39
-46.87
-40.05
-31.75
-22.81
-13.95
-5.61
2.00
8.81
14.80
19.91
24.07
27.20
29.24
30.19
30.09
29.06
27.30
25.07
22.71
20.49
18.58
16.96
15.47
13.84
11.84
9.33
6.38
3.15
-0.11
-3.27
-6.31
-9.39
-12.72
-16.48
-20.74
-25.44
-30.41
-35.42
-40.18
-44.25
-47.06
-47.85
-45.90
-40.69
-32.19
-20.91
-7.81
5.92
19.23
31.30
41.73
50.38
57.30
62.63
66.51
69.11
70.57
71.02
70.51
69.03
66.52
63.00
58.62
53.70
48.61
43.61
38.84
34.27
29.76
25.26
20.75
16.26
11.77
7.22
2.48
-2.50
-7.62
-12.68
-17.44
-21.72
-25.49
-28.90
-32.21
-35.74
-39.76
-44.40
-49.44
-54.26
-57.97
-59.57
-58.33
-54.00
-46.92
-37.81
-27.54
-16.91
-6.52
3.18
11.77
18.92
24.34
27.93
29.77
30.15
29.37
27.81
25.79
23.66
21.78
20.42
19.76
19.84
20.62
21.97
23.75
25.74
27.62
28.96
29.40
28.72
26.97
24.44
21.51
18.52
15.55
12.50
9.11
5.16
0.60
-4.43
-9.61
-14.58
-19.09
-23.08
-26.72
-30.34
-34.24
-38.50
-42.91
-46.87
-49.59
-50.27
-48.39
-43.78
-36.72
-27.74
-17.57
-6.96
3.35
12.67
20.42
26.20
29.90
31.75
32.29
32.17
31.98
32.02
32.29
32.59
32.67
32.36
31.64
30.61
29.38
28.04
26.60
25.05
23.41
21.68
19.90
18.06
16.07
13.79
11.12
7.98
4.48
0.79
-2.84
-6.20
-9.17
-11.70
-13.86
-15.69
-17.24
-18.57
-19.77
-21.00
-22.47
-24.36
-26.75
-29.64
-32.88
-36.28
-39.60
-42.48
-44.45
-44.98
-43.55
-39.84
-33.88
-26.09
-17.20
-8.06
0.56
8.12
14.35
19.20
22.71
24.97
26.02
26.01
25.16
23.89
22.70
21.98
21.92
22.40
23.06
23.50
23.41
22.68
21.40
19.78
18.02
16.33
14.86
13.72
12.96
12.49
12.07
11.35
9.94
7.60
4.29
0.23
-4.17
-8.45
-12.16
-14.98
-16.79
-17.67
-17.91
-17.94
-18.24
-19.21
-21.07
-23.82
-27.20
-30.76
-33.82
-35.64
-35.50
-32.93
-27.84
-20.60
-11.93
-2.68
6.38
14.75
22.24
28.76
34.22
38.40
40.97
41.73
40.70
38.28
35.16
32.06
29.59
27.96
27.13
26.80
26.71
26.75
26.93
27.34
28.01
28.80
29.44
29.61
29.06
27.61
25.27
22.15
18.50
14.62
10.79
7.20
3.91
0.81
-2.26
-5.47
-8.87
-12.47
-16.18
-19.94
-23.70
-27.45
-31.14
-34.63
-37.67
-39.96
-41.13
-40.86
-38.98
-35.48
-30.59
-24.75
-18.59
-12.84
-8.16
-5.08
-3.82
-4.25
-5.95
-8.29
-10.75
-13.00
-14.99
-16.89
-18.84
-20.85
-22.77
-24.39
-25.53
-26.20
-26.44
-26.27
-25.53
-23.97
-21.38
-17.78
-13.50
-9.09
-5.11
-1.98
0.11
1.15
1.20
0.34
-1.33
-3.67
-6.45
-9.41
-12.25
-14.78
-16.87
-18.53
-19.84
-20.89
-21.68
-22.07
-21.78
-20.47
-17.85
-13.83
-8.63
-2.67
3.49
9.37
14.66
19.20
22.97
25.92
27.93
28.86
28.56
27.02
24.41
21.08
17.54
14.29
11.71
9.98
9.04
8.67
8.53
8.32
7.83
7.04
6.01
4.90
3.81
2.75
1.69
0.55
-0.69
-1.99
-3.33
-4.75
-6.40
-8.48
-11.09
-14.19
-17.57
-20.90
-23.98
-26.75
-29.28
-31.63
-33.74
-35.33
-35.97
-35.24
-32.91
-28.96
-23.63
-17.33
-10.52
-3.64
2.91
8.83
13.87
17.89
20.81
22.63
23.44
23.34
22.52
21.19
19.61
18.06
16.76
15.87
15.36
15.12
14.91
14.49
13.70
12.48
10.92
9.16
7.38
5.68
4.08
2.50
0.82
-1.11
-3.34
-5.90
-8.70
-11.65
-14.66
-17.76
-21.01
-24.57
-28.52
-32.82
-37.20
-41.13
-43.95
-44.98
-43.76
-40.11
-34.26
-26.77
-18.40
-9.98
-2.23
4.36
9.55
13.36
16.00
17.73
18.82
19.47
19.78
19.78
19.45
18.82
17.91
16.80
15.64
14.56
13.75
13.38
13.47
13.96
14.57
14.95
14.73
13.63
11.56
8.59
5.00
1.11
-2.69
-6.09
-8.93
-11.20
-13.12
-15.01
-17.26
-20.09
-23.51
-27.27
-30.91
-33.92
-35.81
-36.20
-34.86
-31.70
-26.79
-20.37
-12.87
-4.87
3.00
10.12
16.03
20.43
23.23
24.47
24.30
22.98
20.84
18.35
15.99
14.16
13.04
12.55
12.29
11.74
10.42
8.11
4.89
1.06
-2.97
-6.85
-10.35
-13.39
-15.99
-18.24
-20.26
-22.16
-24.11
-26.23
-28.67
-31.44
-34.42
-37.25
-39.33
-39.98
-38.60
-34.82
-28.67
-20.43
-10.57
0.43
12.17
24.25
36.24
47.62
57.77
66.08
72.02
75.19
75.37
72.66
67.49
60.61
52.97
45.51
38.90
33.45
29.15
25.77
23.08
20.90
19.10
17.57
16.23
14.98
13.82
12.77
11.87
11.07
10.19
8.90
6.89
3.88
-0.16
-5.08
-10.54
-16.06
-21.20
-25.60
-29.09
-31.74
-33.90
-36.07
-38.72
-42.01
-45.68
-48.99
-50.93
-50.54
-47.23
-40.96
-32.24
-21.97
-11.21
-0.97
7.88
14.79
19.49
22.06
22.85
22.37
21.15
19.63
18.13
16.83
15.86
15.27
15.12
15.38
15.94
16.57
17.06
17.18
16.86
16.11
15.03
13.70
12.15
10.37
8.28
5.83
3.04
-0.01
-3.19
-6.33
-9.32
-12.16
-14.96
-17.98
-21.47
-25.48
-29.73
-33.50
-35.80
-35.66
-32.51
-26.40
-18.01
-8.42
1.18
9.86
16.99
22.28
25.69
27.30
27.36
26.24
24.41
22.37
20.45
18.81
17.37
15.94
14.43
12.92
11.71
11.11
11.32
12.22
13.34
14.05
13.79
12.29
9.62
6.13
2.35
-1.29
-4.48
-7.09
-9.18
-10.97
-12.89
-15.41
-19.01
-23.89
-29.86
-36.19
-41.72
-45.17
-45.49
-42.17
-35.47
-26.31
-16.02
-5.96
2.85
9.87
15.10
18.85
21.63
23.91
25.99
27.88
29.31
29.82
29.01
26.74
23.28
19.25
15.40
12.33
10.31
9.33
9.27
10.02
11.52
13.76
16.57
19.68
22.75
25.51
27.77
29.48
30.56
30.88
30.29
28.70
26.12
22.67
18.48
13.63
8.21
2.43
-3.20
-7.91
-10.88
-11.61
-10.22
-7.45
-4.51
-2.63
-2.70
-5.09
-9.75
-16.49
-25.03
-34.98
-45.71
-56.26
-65.44
-72.17
-75.78
-76.20
-73.73
-68.77
-61.53
-51.97
-40.07
-26.21
-11.33
3.27
16.38
27.43
36.61
44.66
52.36
60.18
68.16
76.15
84.01
91.55
98.31
103.19
104.32
99.52
86.97
66.10
38.03
5.57
-27.32
-56.46
-78.32
-90.80
-93.57
-88.16
-77.46
-64.87
-53.34
-44.64
-39.18
-36.26
-34.67
-33.12
-30.54
-26.19
-19.67
-11.02
-0.80
9.94
19.90
27.98
33.70
37.31
39.60
41.39
43.09
44.48
44.85
43.41
39.69
33.79
26.31
18.18
10.30
3.18
-3.16
-9.13
-15.27
-21.90
-28.82
-35.37
-40.60
-43.66
-44.09
-41.96
-37.81
-32.35
-26.24
-19.87
-13.30
-6.47
0.53
7.28
12.89
16.32
16.66
13.64
7.87
0.79
-5.77
-10.14
-11.31
-9.11
-4.10
2.78
10.62
18.82
27.16
35.69
44.46
53.28
61.50
68.03
71.55
70.87
65.38
55.27
41.50
25.44
8.39
-8.68
-25.29
-41.20
-56.22
-70.01
-82.11
-92.06
-99.51
-104.26
-106.20
-105.27
-101.47
-94.93
-86.05
-75.45
-63.96
-52.44
-41.64
-32.14
-24.33
-18.33
-14.03
-11.10
-9.08
-7.55
-6.16
-4.77
-3.37
-2.03
-0.76
0.48
1.82
3.35
5.12
7.09
9.12
11.01
12.57
13.67
14.27
14.41
14.19
13.71
13.01
12.09
10.83
9.08
6.66
3.43
-0.59
-5.14
-9.68
-13.41
-15.53
-15.44
-12.98
-8.48
-2.64
3.73
9.92
15.47
20.14
23.84
26.51
28.10
28.61
28.10
26.74
24.82
22.68
20.64
18.92
17.62
16.67
16.00
15.50
15.18
15.09
15.27
15.65
16.02
16.10
15.61
14.43
12.63
10.37
7.87
5.25
2.52
-0.46
-3.85
-7.83
-12.50
-17.83
-23.60
-29.39
-34.55
-38.34
-40.10
-39.39
-36.15
-30.73
-23.79
-16.16
-8.64
-1.85
3.76
8.07
11.17
13.38
15.13
16.81
18.65
20.60
22.49
24.03
25.09
25.69
25.99
26.25
26.63
27.19
27.74
27.97
27.50
26.01
23.36
19.66
15.23
10.53
5.99
1.85
-1.83
-5.22
-8.57
-12.17
-16.21
-20.75
-25.72
-30.78
-35.39
-38.79
-40.23
-39.17
-35.41
-29.26
-21.39
-12.68
-4.02
3.88
10.55
15.70
19.23
21.21
21.83
21.46
20.56
19.63
19.04
18.97
19.29
19.75
20.05
20.02
19.76
19.51
19.54
20.01
20.84
21.76
22.41
22.54
22.00
20.82
19.09
16.92
14.40
11.64
8.83
6.13
3.62
1.22
-1.27
-3.98
-6.84
-9.41
-11.00
-10.92
-8.79
-4.67
0.85
6.92
12.68
17.57
21.36
24.09
25.97
27.15
27.62
27.28
25.99
23.73
20.68
17.20
13.70
10.51
7.79
5.54
3.72
2.27
1.22
0.60
0.31
0.13
-0.29
-1.28
-2.99
-5.31
-7.92
-10.43
-12.56
-14.25
-15.71
-17.30
-19.37
-22.17
-25.71
-29.69
-33.55
-36.50
-37.70
-36.55
-32.83
-26.83
-19.30
-11.18
-3.37
3.54
9.23
13.62
16.69
18.38
18.69
17.69
15.61
12.84
9.83
6.93
4.37
2.24
0.57
-0.59
-1.21
-1.32
-0.99
-0.46
0.04
0.30
0.22
-0.17
-0.79
-1.56
-2.43
-3.43
-4.55
-5.82
-7.31
-9.14
-11.44
-14.24
-17.37
-20.39
-22.64
-23.47
-22.43
-19.39
-14.62
-8.67
-2.22
4.07
9.68
14.22
17.54
19.64
20.64
20.72
20.06
18.77
16.93
14.66
12.09
9.48
7.09
5.11
3.68
2.78
2.33
2.16
2.11
1.95
1.45
0.43
-1.19
-3.36
-5.87
-8.45
-10.85
-12.95
-14.83
-16.70
-18.86
-21.58
-24.94
-28.74
-32.41
-35.13
-35.99
-34.31
-29.89
-23.11
-14.82
-6.10
2.09
9.04
14.38
18.03
20.11
20.87
20.62
19.66
18.28
16.71
15.06
13.42
11.83
10.31
8.89
7.59
6.42
5.41
4.59
3.98
3.49
2.94
2.10
0.76
-1.17
-3.55
-6.15
-8.67
-10.94
-12.95
-14.86
-16.88
-19.26
-22.13
-25.43
-28.90
-32.02
-34.07
-34.29
-32.09
-27.31
-20.25
-11.73
-2.77
5.63
12.73
18.13
21.82
23.98
24.95
25.08
24.70
24.05
23.29
22.44
21.48
20.30
18.87
17.20
15.45
13.80
12.44
11.51
10.97
10.62
10.15
9.26
7.72
5.49
2.71
-0.38
-3.49
-6.40
-9.00
-11.36
-13.69
-16.33
-19.61
-23.64
-28.17
-32.56
-35.84
-37.07
-35.63
-31.45
-25.03
-17.25
-9.02
-1.11
5.99
12.01
16.81
20.29
22.40
23.25
23.09
22.27
21.14
19.96
18.84
17.72
16.52
15.16
13.63
12.06
10.62
9.53
8.87
8.59
8.45
8.09
7.17
5.51
3.16
0.36
-2.52
-5.19
-7.51
-9.54
-11.50
-13.70
-16.40
-19.78
-23.75
-27.94
-31.68
-34.13
-34.51
-32.37
-27.72
-21.08
-13.32
-5.37
1.97
8.19
13.02
16.39
18.33
18.98
18.59
17.52
16.16
14.77
13.52
12.35
11.15
9.80
8.24
6.55
4.91
3.53
2.62
2.25
2.30
2.46
2.31
1.50
-0.14
-2.49
-5.23
-7.96
-10.41
-12.55
-14.59
-16.90
-19.83
-23.58
-28.04
-32.71
-36.78
-39.27
-39.32
-36.52
-31.02
-23.49
-14.90
-6.16
2.01
9.24
15.32
20.18
23.76
26.03
27.03
26.92
25.99
24.60
23.12
21.84
20.84
20.04
19.20
18.09
16.60
14.85
13.06
11.46
10.13
8.96
7.66
5.98
3.78
1.14
-1.71
-4.54
-7.21
-9.73
-12.28
-15.08
-18.36
-22.24
-26.71
-31.57
-36.40
-40.54
-43.22
-43.67
-41.37
-36.25
-28.73
-19.63
-9.92
-0.52
7.94
15.05
20.64
24.62
27.02
27.99
27.78
26.80
25.44
24.09
22.94
22.04
21.34
20.69
19.96
19.10
18.15
17.18
16.30
15.49
14.62
13.47
11.78
9.37
6.25
2.60
-1.29
-5.14
-8.78
-12.17
-15.42
-18.74
-22.33
-26.33
-30.73
-35.27
-39.38
-42.28
-43.15
-41.44
-37.06
-30.46
-22.49
-14.10
-6.06
1.15
7.37
12.61
16.86
20.11
22.33
23.52
23.80
23.31
22.23
20.65
18.58
15.99
12.94
9.62
6.41
3.82
2.30
2.05
2.96
4.57
6.30
7.69
8.50
8.80
8.86
8.94
9.16
9.54
9.93
10.17
10.00
9.08
7.03
3.53
-1.48
-7.59
-13.85
-19.03
-21.89
-21.66
-18.21
-12.07
-4.21
4.26
12.35
19.36
24.85
28.65
30.76
31.33
30.63
28.99
26.76
24.26
21.76
19.41
17.26
15.21
13.15
11.02
8.89
6.96
5.49
4.63
4.33
4.26
3.98
3.06
1.25
-1.38
-4.57
-7.90
-11.04
-13.80
-16.23
-18.56
-21.12
-24.26
-28.20
-32.90
-38.00
-42.75
-46.17
-47.30
-45.46
-40.53
-33.04
-23.97
-14.48
-5.57
2.11
8.32
13.07
16.52
18.88
20.32
20.98
20.97
20.42
19.48
18.33
17.17
16.20
15.54
15.19
15.11
15.17
15.24
15.19
14.96
14.49
13.71
12.55
10.93
8.80
6.15
3.06
-0.30
-3.70
-6.95
-9.96
-12.75
-15.49
-18.39
-21.65
-25.38
-29.54
-33.84
-37.79
-40.66
-41.74
-40.53
-36.97
-31.54
-25.02
-18.29
-11.96
-6.26
-1.12
3.61
7.97
11.75
14.62
16.26
16.50
15.46
13.49
11.12
8.92
7.40
6.91
7.59
9.36
11.98
15.13
18.46
21.71
24.72
27.41
29.77
31.68
32.95
33.25
32.19
29.52
25.19
19.46
12.81
5.77
-1.25
-8.09
-14.74
-21.10
-26.82
-31.22
-33.49
-32.99
-29.57
-23.73
-16.40
-8.67
-1.35
5.16
10.87
15.91
20.29
23.79
26.01
26.63
25.60
23.23
20.09
16.76
13.71
11.10
8.94
7.13
5.67
4.66
4.21
4.35
4.87
5.42
5.53
4.86
3.25
0.79
-2.19
-5.31
-8.23
-10.82
-13.19
-15.64
-18.52
-22.16
-26.64
-31.76
-37.01
-41.67
-44.90
-45.97
-44.45
-40.32
-34.03
-26.37
-18.24
-10.43
-3.46
2.49
7.48
11.67
15.20
18.09
20.21
21.44
21.66
20.93
19.48
17.66
15.85
14.37
13.35
12.79
12.55
12.44
12.33
12.08
11.59
10.75
9.46
7.64
5.28
2.47
-0.58
-3.63
-6.47
-9.03
-11.41
-13.85
-16.68
-20.15
-24.35
-29.12
-33.98
-38.25
-41.13
-41.93
-40.23
-36.00
-29.61
-21.67
-12.94
-4.19
3.88
10.72
15.97
19.54
21.69
22.87
23.60
24.23
24.83
25.20
25.08
24.33
23.01
21.38
19.68
18.10
16.70
15.50
14.55
13.89
13.54
13.36
13.03
12.14
10.35
7.56
3.93
-0.18
-4.36
-8.27
-11.80
-15.00
-18.01
-21.00
-24.06
-27.06
-29.64
-31.22
-31.15
-28.90
-24.28
-17.61
-9.67
-1.52
5.85
11.75
15.99
18.76
20.45
21.45
22.01
22.25
22.24
22.04
21.69
21.15
20.30
18.99
17.16
14.95
12.73
10.98
10.05
9.96
10.37
10.70
10.32
8.83
6.20
2.71
-1.15
-4.95
-8.41
-11.54
-14.48
-17.44
-20.65
-24.17
-28.02
-32.05
-35.94
-39.16
-41.04
-40.89
-38.25
-33.09
-25.82
-17.25
-8.32
0.09
7.35
13.12
17.29
19.96
21.36
21.83
21.76
21.47
21.14
20.77
20.23
19.41
18.29
17.01
15.84
14.99
14.57
14.54
14.69
14.73
14.34
13.29
11.42
8.72
5.34
1.57
-2.26
-5.81
-8.89
-11.47
-13.74
-16.01
-18.65
-22.01
-26.19
-30.97
-35.73
-39.55
-41.44
-40.62
-36.84
-30.42
-22.15
-13.02
-3.97
4.32
11.44
17.18
21.47
24.28
25.68
25.90
25.26
24.18
23.00
21.89
20.80
19.53
17.83
15.64
13.13
10.63
8.50
6.93
5.83
4.90
3.84
2.45
0.73
-1.20
-3.27
-5.48
-7.91
-10.63
-13.58
-16.66
-19.82
-23.15
-26.78
-30.74
-34.67
-37.84
-39.27
-38.09
-33.89
-26.90
-17.89
-7.95
1.84
10.63
17.88
23.37
27.09
29.18
29.82
29.25
27.78
25.71
23.36
20.99
18.85
17.07
15.71
14.76
14.18
13.88
13.72
13.50
13.00
12.00
10.36
8.06
5.25
2.17
-0.88
-3.64
-5.99
-7.99
-9.88
-12.00
-14.71
-18.24
-22.63
-27.59
-32.52
-36.60
-38.90
-38.70
-35.68
-30.11
-22.66
-14.25
-5.76
2.19
9.27
15.38
20.48
24.57
27.58
29.49
30.29
30.05
28.89
27.02
24.72
22.28
20.01
18.12
16.72
15.81
15.29
15.06
14.92
14.64
13.96
12.59
10.38
7.36
3.75
-0.09
-3.83
-7.31
-10.56
-13.78
-17.25
-21.15
-25.49
-30.06
-34.46
-38.13
-40.45
-40.86
-39.01
-34.92
-28.91
-21.61
-13.72
-5.89
1.39
7.81
13.16
17.30
20.15
21.70
22.11
21.63
20.58
19.26
17.87
16.54
15.33
14.27
13.38
12.71
12.26
12.00
11.85
11.73
11.51
11.01
10.09
8.65
6.64
4.14
1.33
-1.61
-4.54
-7.44
-10.44
-13.75
-17.57
-21.93
-26.63
-31.14
-34.73
-36.62
-36.23
-33.35
-28.17
-21.27
-13.35
-5.19
2.60
9.53
15.26
19.59
22.43
23.87
24.14
23.56
22.44
21.01
19.38
17.57
15.63
13.68
11.95
10.67
10.00
9.88
10.07
10.21
9.91
8.93
7.23
4.96
2.37
-0.30
-2.92
-5.49
-8.15
-11.05
-14.28
-17.87
-21.76
-25.82
-29.84
-33.50
-36.35
-37.84
-37.46
-34.84
-29.98
-23.25
-15.38
-7.17
0.57
7.29
12.68
16.67
19.38
21.04
21.92
22.33
22.52
22.63
22.69
22.58
22.14
21.22
19.82
18.06
16.18
14.36
12.69
11.08
9.30
7.14
4.52
1.55
-1.50
-4.29
-6.56
-8.28
-9.59
-10.87
-12.57
-15.09
-18.66
-23.21
-28.35
-33.33
-37.30
-39.42
-39.11
-36.25
-31.14
-24.41
-16.86
-9.17
-1.85
4.84
10.79
15.97
20.37
23.89
26.42
27.85
28.14
27.40
25.90
24.02
22.15
20.61
19.49
18.73
18.14
17.54
16.80
15.88
14.72
13.27
11.42
9.15
6.52
3.75
1.08
-1.33
-3.43
-5.39
-7.42
-9.77
-12.58
-15.94
-19.78
-23.89
-27.84
-31.05
-32.83
-32.65
-30.29
-25.95
-20.15
-13.57
-6.80
-0.17
6.13
11.94
17.05
21.09
23.72
24.70
24.05
22.06
19.21
16.02
12.94
10.39
8.61
7.73
7.63
8.08
8.66
8.99
8.79
7.94
6.52
4.66
2.51
0.24
-2.05
-4.22
-6.19
-7.95
-9.62
-11.51
-13.96
-17.24
-21.38
-26.03
-30.55
-34.04
-35.70
-34.95
-31.65
-26.12
-19.03
-11.22
-3.44
3.73
9.94
15.00
18.82
21.38
22.75
23.05
22.55
21.52
20.27
19.03
17.91
16.96
16.21
15.63
15.30
15.26
15.53
15.97
16.26
15.95
14.60
11.95
8.08
3.40
-1.46
-6.00
-9.91
-13.18
-16.03
-18.64
-21.13
-23.52
-25.74
-27.68
-29.15
-29.86
-29.40
-27.39
-23.62
-18.26
-11.83
-5.06
1.29
6.74
11.10
14.47
17.05
19.01
20.42
21.25
21.43
20.94
19.84
18.24
16.36
14.41
12.60
11.01
9.59
8.25
6.86
5.37
3.80
2.20
0.58
-1.11
-2.98
-5.08
-7.35
-9.59
-11.57
-13.10
-14.22
-15.16
-16.34
-18.18
-20.96
-24.63
-28.72
-32.44
-34.88
-35.25
-33.17
-28.71
-22.36
-14.84
-6.90
0.83
7.87
13.89
18.70
22.22
24.48
25.56
25.61
24.81
23.37
21.54
19.59
17.78
16.28
15.17
14.42
13.93
13.59
13.30
12.95
12.41
11.58
10.32
8.55
6.25
3.45
0.24
-3.26
-6.92
-10.66
-14.44
-18.32
-22.41
-26.77
-31.24
-35.35
-38.35
-39.41
-37.96
-33.90
-27.72
-20.30
-12.63
-5.47
0.78
6.09
10.61
14.47
17.67
20.08
21.53
21.92
21.35
20.02
18.26
16.39
14.64
13.15
11.96
11.11
10.60
10.40
10.38
10.34
9.99
9.09
7.52
5.35
2.78
0.02
-2.77
-5.54
-8.34
-11.26
-14.38
-17.79
-21.49
-25.37
-29.10
-32.17
-33.89
-33.64
-31.08
-26.29
-19.82
-12.48
-5.11
1.68
7.59
12.63
16.92
20.59
23.62
25.88
27.18
27.37
26.40
24.41
21.64
18.46
15.25
12.34
9.98
8.26
7.16
6.57
6.21
5.80
5.07
3.87
2.17
0.10
-2.18
-4.50
-6.84
-9.26
-11.94
-15.01
-18.58
-22.63
-26.97
-31.22
-34.82
-37.10
-37.47
-35.57
-31.46
-25.58
-18.64
-11.39
-4.42
1.94
7.58
12.50
16.68
20.02
22.36
23.57
23.65
22.74
21.10
19.03
16.79
14.57
12.45
10.50
8.74
7.21
5.88
4.70
3.57
2.38
1.08
-0.39
-2.03
-3.86
-5.95
-8.38
-11.23
-14.49
-18.09
-21.88
-25.74
-29.56
-33.11
-36.01
-37.71
-37.56
-35.10
-30.24
-23.44
-15.49
-7.34
0.25
6.89
12.55
17.38
21.45
24.72
26.98
28.07
27.96
26.84
25.06
22.96
20.84
18.89
17.23
15.99
15.30
15.33
16.13
17.62
19.55
21.60
23.41
24.70
25.29
25.09
24.05
22.10
19.20
15.33
10.49
4.75
-1.79
-8.94
-16.33
-23.35
-29.20
-33.07
-34.30
-32.64
-28.32
-22.00
-14.57
-6.94
0.14
6.15
10.86
14.24
16.44
17.68
18.21
18.23
17.85
17.12
16.03
14.60
12.86
10.90
8.84
6.82
4.99
3.45
2.23
1.26
0.39
-0.56
-1.76
-3.27
-5.07
-7.04
-9.04
-10.94
-12.76
-14.67
-17.00
-20.09
-24.17
-29.14
-34.45
-39.24
-42.41
-43.03
-40.55
-35.01
-27.06
-17.74
-8.22
0.48
7.71
13.22
17.07
19.54
21.00
21.78
22.20
22.48
22.73
22.91
22.84
22.22
20.87
18.78
16.21
13.62
11.52
10.22
9.72
9.70
9.65
9.07
7.67
5.39
2.41
-0.96
-4.43
-7.81
-11.07
-14.31
-17.76
-21.68
-26.24
-31.36
-36.57
-41.04
-43.76
-43.83
-40.85
-35.03
-27.19
-18.49
-10.08
-2.80
2.93
7.16
10.14
12.21
13.64
14.61
15.15
15.23
14.76
13.65
11.85
9.32
6.05
2.10
-2.41
-7.31
-12.32
-17.09
-21.31
-24.73
-27.36
-29.51
-31.69
-34.51
-38.43
-43.56
-49.62
-56.07
-62.27
-67.82
-72.68
-77.17
-81.84
-87.13
-93.07
-99.07
-103.87
-105.77
-102.81
-93.26
-75.89
-50.46
-18.07
18.80
56.62
91.65
121.02
143.44
159.36
170.41
178.36
184.35
188.61
190.85
190.81
188.71
185.17
180.84
175.97
170.24
162.97
153.50
141.45
126.93
110.40
92.62
74.33
56.19
38.62
21.78
5.72
-9.46
-23.45
-35.74
-45.75
-53.19
-58.19
-61.36
-63.46
-65.08
-66.37
-66.96
-66.11
-63.05
-57.34
-49.09
-38.95
-28.04
-17.60
-8.70
-2.02
2.28
4.36
4.59
3.32
0.75
-2.97
-7.66
-12.99
-18.48
-23.64
-28.09
-31.66
-34.43
-36.56
-38.19
-39.30
-39.78
-39.47
-38.39
-36.76
-35.03
-33.70
-33.19
-33.65
-34.92
-36.66
-38.44
-39.90
-40.89
-41.48
-41.95
-42.66
-43.97
-46.02
-48.61
-51.16
-52.80
-52.59
-49.87
-44.45
-36.70
-27.41
-17.59
-8.19
0.12
6.97
12.31
16.29
19.19
21.28
22.76
23.74
24.24
24.23
23.73
22.80
21.60
20.31
19.14
18.22
17.65
17.42
17.41
17.41
17.13
16.31
14.77
12.52
9.73
6.66
3.58
0.60
-2.33
-5.33
-8.53
-12.01
-15.74
-19.68
-23.72
-27.72
-31.40
-34.33
-35.98
-35.90
-33.89
-30.11
-25.05
-19.32
-13.50
-7.95
-2.80
2.00
6.54
10.76
14.47
17.36
19.10
19.51
18.57
16.54
13.85
10.98
8.35
6.22
4.61
3.41
2.38
1.25
-0.21
-2.18
-4.74
-7.87
-11.45
-15.32
-19.25
-22.99
-26.32
-29.08
-31.22
-32.75
-33.75
-34.27
-34.24
-33.54
-31.98
-29.37
-25.60
-20.59
-14.25
-6.48
2.78
13.45
25.23
37.56
49.74
61.07
71.02
79.23
85.51
89.66
91.46
90.69
87.18
81.00
72.51
62.36
51.39
40.45
30.22
21.10
13.24
6.64
1.27
-2.82
-5.62
-7.23
-7.96
-8.36
-8.98
-10.24
-12.21
-14.63
-17.02
-18.90
-19.98
-20.18
-19.67
-18.73
-17.72
-16.97
-16.81
-17.51
-19.16
-21.60
-24.37
-26.70
-27.73
-26.77
-23.51
-18.15
-11.33
-3.87
3.42
9.94
15.32
19.39
22.07
23.37
23.37
22.21
20.15
17.47
14.51
11.52
8.66
5.99
3.43
0.92
-1.58
-4.00
-6.20
-8.05
-9.52
-10.70
-11.80
-13.03
-14.48
-16.15
-17.98
-19.87
-21.81
-23.78
-25.81
-27.86
-29.92
-32.02
-34.25
-36.69
-39.29
-41.73
-43.40
-43.56
-41.54
-37.04
-30.24
-21.83
-12.78
-4.02
3.79
10.43
15.97
20.61
24.46
27.47
29.42
30.14
29.64
28.18
26.20
24.12
22.24
20.65
19.33
18.21
17.31
16.68
16.33
16.12
15.75
14.79
12.87
9.85
5.88
1.42
-2.95
-6.73
-9.66
-11.86
-13.76
-15.92
-18.82
-22.63
-27.19
-31.95
-36.13
-38.90
-39.56
-37.64
-33.09
-26.23
-17.72
-8.42
0.79
9.21
16.32
21.88
25.81
28.19
29.19
29.07
28.12
26.64
24.82
22.73
20.34
17.63
14.66
11.66
8.99
6.98
5.82
5.51
5.86
6.51
7.09
7.25
6.78
5.68
4.10
2.30
0.49
-1.28
-3.18
-5.45
-8.36
-11.97
-16.22
-20.87
-25.58
-29.90
-33.18
-34.70
-33.79
-30.11
-23.90
-15.92
-7.26
1.02
8.17
13.86
18.08
20.91
22.46
22.80
22.04
20.37
18.09
15.47
12.75
10.09
7.60
5.37
3.50
2.11
1.30
1.08
1.38
1.93
2.37
2.32
1.48
-0.17
-2.47
-5.06
-7.58
-9.83
-11.86
-13.88
-16.24
-19.20
-22.88
-27.13
-31.48
-35.25
-37.59
-37.75
-35.23
-29.97
-22.43
-13.47
-4.09
4.77
12.48
18.70
23.37
26.55
28.36
28.95
28.51
27.27
25.50
23.43
21.24
19.07
17.02
15.16
13.55
12.23
11.16
10.25
9.34
8.31
7.03
5.41
3.42
1.05
-1.60
-4.41
-7.22
-9.90
-12.47
-15.06
-17.93
-21.35
-25.44
-30.08
-34.76
-38.71
-40.97
-40.68
-37.30
-30.82
-21.78
-11.18
-0.19
10.09
18.87
25.74
30.62
33.70
35.34
36.01
36.18
36.26
36.45
36.68
36.64
35.90
34.14
31.31
27.69
23.79
20.13
17.02
14.38
11.73
8.43
3.94
-1.91
-8.73
-15.69
-21.81
-26.29
-28.76
-29.30
-28.29
-26.18
-23.28
-19.68
-15.26
-9.76
-2.90
5.46
15.16
25.58
35.62
43.95
49.38
51.32
50.01
46.42
41.94
37.76
34.48
31.99
29.66
26.79
22.97
18.25
13.04
7.91
3.29
-0.65
-3.90
-6.57
-8.73
-10.47
-11.89
-13.25
-14.95
-17.38
-20.83
-25.40
-30.93
-37.00
-42.99
-48.20
-52.03
-54.26
-55.14
-55.36
-55.79
-57.02
-59.02
-61.08
-62.00
-60.61
-56.15
-48.63
-38.64
-27.17
-15.24
-3.71
6.85
16.06
23.72
29.73
34.10
36.96
38.53
39.13
39.06
38.52
37.63
36.36
34.61
32.32
29.50
26.34
23.15
20.26
17.88
15.99
14.35
12.56
10.28
7.34
3.78
-0.18
-4.26
-8.25
-12.12
-15.95
-19.97
-24.37
-29.23
-34.37
-39.26
-43.07
-44.87
-43.94
-39.97
-33.21
-24.36
-14.33
-4.06
5.65
14.16
21.01
25.90
28.73
29.67
29.10
27.55
25.51
23.31
21.14
19.04
17.04
15.21
13.73
12.76
12.44
12.76
13.52
14.39
14.93
14.78
13.70
11.66
8.82
5.48
1.95
-1.49
-4.71
-7.72
-10.70
-13.90
-17.49
-21.46
-25.51
-29.02
-31.19
-31.30
-28.86
-23.86
-16.78
-8.44
0.17
8.13
14.78
19.73
22.91
24.46
24.68
23.89
22.42
20.55
18.42
16.11
13.68
11.19
8.77
6.62
4.90
3.76
3.21
3.14
3.32
3.43
3.12
2.17
0.51
-1.75
-4.38
-7.14
-9.84
-12.46
-15.14
-18.11
-21.55
-25.49
-29.67
-33.52
-36.27
-37.15
-35.66
-31.68
-25.56
-17.95
-9.63
-1.33
6.46
13.33
18.99
23.17
25.65
26.37
25.48
23.36
20.46
17.27
14.12
11.20
8.61
6.37
4.55
3.14
2.14
1.40
0.69
-0.24
-1.60
-3.43
-5.62
-8.01
-10.41
-12.76
-15.04
-17.30
-19.61
-22.02
-24.60
-27.46
-30.67
-34.08
-37.27
-39.48
-39.82
-37.59
-32.55
-25.09
-16.06
-6.55
2.45
10.25
16.48
21.04
24.02
25.58
25.95
25.38
24.16
22.53
20.68
18.77
16.95
15.37
14.24
13.74
14.04
15.27
17.49
20.64
24.56
28.99
33.61
38.12
42.26
45.82
48.60
50.33
50.75
49.63
46.92
42.77
37.54
31.74
25.95
20.80
16.88
14.77
14.81
16.99
20.89
25.72
30.46
34.18
36.19
36.04
33.57
28.76
21.77
12.89
2.66
-8.21
-18.91
-28.73
-37.18
-44.06
-49.41
-53.44
-56.36
-58.29
-59.24
-59.20
-58.19
-56.44
-54.39
-52.60
-51.55
-51.55
-52.57
-54.30
-56.35
-58.42
-60.41
-62.45
-64.76
-67.52
-70.63
-73.70
-76.01
-76.71
-74.97
-70.26
-62.45
-51.82
-38.98
-24.75
-10.05
4.25
17.33
28.53
37.42
43.86
48.00
50.22
50.97
50.68
49.61
47.91
45.69
43.10
40.41
37.98
36.11
34.94
34.31
33.87
33.16
31.83
29.73
26.91
23.51
19.71
15.61
11.28
6.82
2.32
-2.18
-6.75
-11.57
-16.79
-22.31
-27.67
-32.05
-34.43
-33.98
-30.31
-23.67
-14.80
-4.71
5.55
15.12
23.34
29.80
34.26
36.69
37.33
36.65
35.25
33.63
32.07
30.53
28.79
26.59
23.89
20.90
18.04
15.68
14.00
12.91
12.11
11.24
9.99
8.18
5.73
2.65
-0.99
-5.06
-9.36
-13.67
-17.84
-21.86
-25.87
-30.06
-34.45
-38.77
-42.37
-44.35
-43.83
-40.23
-33.53
-24.28
-13.49
-2.40
7.82
16.34
22.76
27.10
29.74
31.16
31.77
31.77
31.13
29.72
27.51
24.64
21.43
18.25
15.42
13.07
11.21
9.77
8.66
7.79
6.99
5.96
4.31
1.75
-1.83
-6.22
-10.93
-15.39
-19.12
-21.97
-24.11
-26.02
-28.26
-31.24
-35.00
-39.06
-42.53
-44.36
-43.70
-40.19
-34.05
-25.99
-16.87
-7.53
1.46
9.69
16.93
22.97
27.72
31.22
33.63
35.23
36.29
36.97
37.37
37.57
37.64
37.73
37.94
38.28
38.65
38.82
38.56
37.63
35.89
33.24
29.68
25.34
20.44
15.36
10.49
6.17
2.48
-0.68
-3.67
-6.90
-10.66
-15.03
-19.72
-24.18
-27.68
-29.58
-29.50
-27.47
-23.91
-19.47
-14.81
-10.42
-6.55
-3.23
-0.40
1.99
3.95
5.37
6.16
6.18
5.44
4.05
2.28
0.48
-1.01
-1.94
-2.28
-2.10
-1.60
-0.91
-0.19
0.42
0.76
0.58
-0.31
-1.97
-4.25
-6.85
-9.40
-11.65
-13.57
-15.36
-17.36
-19.94
-23.33
-27.48
-31.98
-36.11
-38.97
-39.72
-37.82
-33.16
-26.06
-17.26
-7.67
1.77
10.23
17.16
22.25
25.45
26.95
27.10
26.33
25.09
23.77
22.62
21.76
21.15
20.60
19.87
18.80
17.37
15.79
14.30
13.07
12.10
11.13
9.83
7.93
5.37
2.36
-0.75
-3.60
-6.07
-8.21
-10.31
-12.75
-15.79
-19.56
-23.89
-28.36
-32.32
-35.00
-35.67
-33.82
-29.32
-22.48
-14.05
-4.94
3.91
11.83
18.40
23.50
27.12
29.33
30.20
29.88
28.62
26.78
24.73
22.76
21.04
19.61
18.38
17.33
16.43
15.69
15.09
14.60
14.08
13.38
12.32
10.77
8.70
6.15
3.31
0.40
-2.33
-4.76
-6.93
-9.09
-11.59
-14.78
-18.79
-23.39
-28.04
-31.88
-34.03
-33.79
-30.86
-25.44
-18.19
-10.02
-1.92
5.34
11.33
15.92
19.26
21.52
22.83
23.23
22.73
21.42
19.49
17.21
14.87
12.66
10.67
8.91
7.40
6.14
5.14
4.35
3.64
2.74
1.34
-0.80
-3.73
-7.27
-11.07
-14.75
-18.05
-20.97
-23.67
-26.41
-29.38
-32.68
-36.34
-40.31
-44.43
-48.34
-51.44
-52.90
-51.91
-47.98
-41.24
-32.40
-22.52
-12.68
-3.67
4.11
10.55
15.59
19.18
21.22
21.67
20.70
18.70
16.22
13.76
11.70
10.18
9.18
8.59
8.26
8.10
8.04
7.98
7.84
7.48
6.82
5.85
4.59
3.13
1.56
-0.05
-1.69
-3.39
-5.28
-7.53
-10.28
-13.61
-17.44
-21.52
-25.44
-28.68
-30.67
-30.89
-28.99
-24.86
-18.71
-11.08
-2.76
5.38
12.53
18.17
22.07
24.33
25.17
24.87
23.68
21.80
19.41
16.74
14.07
11.71
9.87
8.69
8.07
7.82
7.71
7.55
7.27
6.85
6.27
5.44
4.21
2.43
0.07
-2.75
-5.80
-8.81
-11.63
-14.29
-16.95
-19.79
-22.90
-26.13
-29.09
-31.20
-31.86
-30.58
-27.14
-21.66
-14.56
-6.49
1.79
9.56
16.17
21.20
24.36
25.64
25.25
23.60
21.20
18.49
15.78
13.20
10.78
8.59
6.74
5.41
4.70
4.60
4.88
5.22
5.27
4.82
3.75
2.12
-0.00
-2.52
-5.34
-8.37
-11.51
-14.67
-17.87
-21.20
-24.85
-28.95
-33.43
-37.94
-41.85
-44.32
-44.63
-42.35
-37.60
-30.99
-23.56
-16.44
-10.61
-6.65
-4.72
-4.60
-5.87
-8.10
-10.97
-14.27
-17.91
-21.78
-25.76
-29.76
-33.77
-37.83
-41.95
-46.01
-49.65
-52.36
-53.58
-52.75
-49.39
-43.09
-33.57
-20.83
-5.28
12.17
30.31
47.89
63.96
77.97
89.64
98.69
104.77
107.61
107.19
103.93
98.38
90.88
81.32
69.35
54.95
38.95
23.17
9.88
0.77
-3.77
-4.87
-4.52
-4.59
-5.98
-8.39
-10.82
-12.21
-12.09
-10.63
-8.24
-5.08
-0.79
5.39
14.10
25.29
38.07
50.92
62.29
71.24
77.70
82.32
85.92
88.97
91.25
91.93
89.89
84.18
74.28
60.22
42.60
22.53
1.60
-18.07
-34.00
-43.72
-45.39
-38.48
-24.26
-5.55
14.02
31.21
44.27
53.30
59.84
65.86
72.66
80.39
88.25
95.13
100.35
103.91
106.27
107.80
108.48
107.85
105.36
100.68
93.74
84.51
72.62
57.23
37.38
12.83
-15.37
-44.71
-71.89
-94.01
-109.69
-119.43
-125.25
-129.63
-134.49
-140.77
-148.37
-156.53
-164.17
-170.00
-172.67
-170.90
-163.85
-151.49
-134.76
-115.38
-95.36
-76.47
-59.90
-46.17
-35.29
-26.93
-20.59
-15.77
-12.14
-9.58
-8.20
-8.19
-9.56
-11.98
-14.78
-17.13
-18.31
-18.03
-16.52
-14.38
-12.40
-11.23
-11.23
-12.39
-14.38
-16.61
-18.38
-19.05
-18.26
-16.07
-13.00
-9.82
-7.32
-5.91
-5.48
-5.39
-4.74
-2.83
0.63
5.42
10.95
16.56
21.80
26.54
30.90
35.02
38.86
42.15
44.39
45.18
44.36
42.11
38.89
35.22
31.62
28.45
26.00
24.38
23.62
23.59
24.00
24.43
24.48
23.85
22.44
20.31
17.65
14.62
11.36
7.97
4.46
0.73
-3.48
-8.52
-14.78
-22.43
-31.27
-40.64
-49.49
-56.65
-61.09
-62.28
-60.24
-55.56
-49.15
-41.99
-34.90
-28.39
-22.68
-17.79
-13.66
-10.27
-7.69
-6.05
-5.35
-5.47
-6.07
-6.77
-7.21
-7.21
-6.81
-6.22
-5.64
-5.21
-4.95
-4.75
-4.52
-4.19
-3.77
-3.27
-2.69
-2.04
-1.36
-0.75
-0.37
-0.46
-1.30
-3.17
-6.22
-10.45
-15.51
-20.65
-24.82
-26.90
-26.04
-21.95
-15.03
-6.25
3.22
12.30
20.25
26.72
31.58
34.79
36.32
36.20
34.54
31.65
27.99
24.05
20.25
16.83
13.81
11.11
8.63
6.38
4.51
3.15
2.38
2.09
2.00
1.77
1.10
-0.16
-1.97
-4.20
-6.67
-9.25
-11.93
-14.80
-18.05
-21.90
-26.54
-31.87
-37.49
-42.59
-46.15
-47.24
-45.25
-40.22
-32.74
-23.85
-14.71
-6.36
0.52
5.59
8.82
10.36
10.46
9.38
7.38
4.74
1.70
-1.51
-4.72
-7.81
-10.73
-13.45
-16.00
-18.42
-20.82
-23.31
-25.99
-28.85
-31.77
-34.51
-36.84
-38.65
-39.94
-40.81
-41.35
-41.49
-41.05
-39.85
-37.87
-35.32
-32.67
-30.32
-28.39
-26.61
-24.30
-20.79
-15.63
-8.79
-0.56
8.66
18.54
28.74
38.78
47.84
54.94
59.19
60.26
58.62
55.40
51.95
49.32
47.94
47.64
47.95
48.47
49.00
49.61
50.41
51.42
52.55
53.52
54.06
53.84
52.51
49.75
45.31
39.19
31.69
23.41
15.15
7.57
1.06
-4.41
-9.17
-13.65
-18.04
-22.20
-25.59
-27.44
-26.98
-23.74
-17.75
-9.51
0.12
10.11
19.56
27.73
34.15
38.57
40.93
41.33
40.08
37.65
34.61
31.51
28.77
26.59
24.93
23.59
22.34
21.07
19.78
18.62
17.68
16.93
16.12
14.89
12.86
9.85
5.97
1.55
-2.94
-7.07
-10.63
-13.65
-16.45
-19.43
-22.95
-27.12
-31.73
-36.23
-39.83
-41.71
-41.28
-38.28
-32.90
-25.66
-17.33
-8.72
-0.54
6.68
12.58
16.94
19.64
20.68
20.12
18.19
15.17
11.39
7.13
2.57
-2.18
-7.06
-11.94
-16.58
-20.68
-23.92
-26.15
-27.52
-28.40
-29.38
-31.07
-33.87
-37.85
-42.70
-47.69
-51.85
-54.13
-53.65
-49.89
-42.97
-33.68
-23.38
-13.62
-5.69
-0.18
3.18
5.36
7.61
10.95
15.83
22.03
28.84
35.39
40.95
45.01
47.39
48.19
47.83
47.16
47.38
49.86
55.79
65.75
79.44
95.67
112.64
128.47
141.69
151.54
158.00
161.55
162.80
162.03
159.03
153.10
143.35
129.09
110.25
87.55
62.46
36.82
12.36
-9.63
-28.50
-44.21
-57.08
-67.69
-76.65
-84.52
-91.68
-98.18
-103.77
-108.01
-110.60
-111.74
-112.14
-112.85
-114.75
-118.13
-122.59
-127.21
-130.99
-133.11
-133.06
-130.49
-125.14
-116.93
-106.15
-93.55
-80.26
-67.42
-55.77
-45.44
-36.06
-27.15
-18.58
-10.67
-4.12
0.48
2.98
3.82
3.75
3.40
2.92
1.80
-0.83
-5.87
-13.85
-24.83
-38.46
-54.13
-71.13
-88.63
-105.64
-121.04
-133.76
-142.84
-147.49
-146.98
-140.50
-127.17
-106.36
-78.19
-44.00
-6.43
31.01
64.79
92.28
112.32
125.22
132.33
135.27
135.51
134.05
131.64
128.88
126.35
124.45
123.20
122.13
120.41
117.23
112.12
105.19
97.04
88.46
80.10
72.16
64.31
55.90
46.13
34.39
20.36
4.19
-13.58
-32.04
-49.96
-65.85
-78.26
-86.07
-88.83
-87.00
-81.76
-74.63
-66.94
-59.44
-52.34
-45.48
-38.76
-32.23
-26.06
-20.25
-14.47
-8.20
-1.02
6.90
14.76
21.31
25.43
26.68
25.50
23.10
20.90
19.96
20.58
22.25
23.91
24.38
22.66
18.22
11.06
1.72
-8.79
-19.23
-28.49
-35.94
-41.73
-46.84
-52.64
-60.37
-70.43
-82.04
-93.35
-101.98
-105.81
-103.71
-95.93
-83.94
-69.87
-55.87
-43.49
-33.45
-25.72
-19.91
-15.51
-12.22
-9.94
-8.78
-8.95
-10.61
-13.74
-17.94
-22.44
-26.19
-28.12
-27.42
-23.83
-17.52
-8.99
1.24
12.77
25.28
38.39
51.51
63.85
74.61
83.22
89.47
93.49
95.50
95.59
93.74
89.96
84.52
78.12
71.79
66.52
63.00
61.35
61.22
61.99
63.10
64.04
64.42
63.79
61.68
57.87
52.40
45.63
38.20
30.81
23.96
17.86
12.33
7.15
2.45
-1.43
-3.99
-4.76
-3.54
-0.58
3.44
7.50
10.94
14.30
18.71
25.58
35.99
50.07
66.73
83.79
98.36
108.00
112.22
111.76
108.39
104.36
101.77
102.08
105.81
112.33
120.65
130.62
141.55
152.42
162.04
169.55
174.79
178.51
181.52
176.49
158.44
125.10
78.46
24.03
-31.57
-82.90
-124.69
-157.90
-183.92
-202.59
-213.77
-217.83
-216.11
-209.57
-200.16
-189.97
-180.94
-173.69
-167.15
-159.97
-151.18
-140.49
-128.43
-116.27
-105.34
-96.96
-91.43
-87.72
-84.37
-79.81
-72.78
-62.76
-50.17
-36.09
-22.05
-9.25
1.83
11.11
18.75
24.90
29.58
32.57
33.71
32.93
30.57
27.26
23.65
20.19
17.15
14.52
12.13
9.84
7.60
5.54
3.83
2.55
1.65
0.88
-0.11
-1.63
-3.81
-6.51
-9.39
-12.09
-14.43
-16.47
-18.52
-20.99
-24.23
-28.36
-33.12
-37.89
-41.79
-43.82
-43.15
-39.40
-32.74
-23.99
-14.30
-4.91
3.27
9.77
14.60
18.06
20.49
22.13
23.11
23.41
22.98
21.78
19.84
17.30
14.42
11.55
9.03
7.09
5.68
4.53
3.23
1.32
-1.48
-5.28
-10.03
-15.58
-21.75
-28.42
-35.51
-43.03
-51.07
-59.74
-69.15
-79.20
-89.40
-98.79
-106.01
-109.57
-108.29
-101.58
-89.59
-73.03
-52.98
-30.59
-6.98
16.77
39.66
60.75
79.32
94.99
107.71
117.71
125.31
130.71
133.98
135.07
133.98
130.91
126.29
120.77
115.01
109.50
104.44
99.60
94.50
88.54
81.19
72.18
61.50
49.39
36.30
22.79
9.58
-2.65
-13.45
-22.75
-30.85
-38.25
-45.24
-51.61
-56.61
-58.96
-57.33
-50.81
-39.23
-23.29
-4.41
15.70
35.25
52.71
67.13
78.19
86.07
91.22
94.18
95.31
94.90
92.91
89.17
83.71
76.73
68.49
59.15
48.45
35.73
20.14
0.31
-25.17
-56.65
-93.46
-134.08
-176.47
-218.46
-257.73
-291.29
-316.56
-331.86
-336.45
-331.58
-320.44
-306.96
-294.20
-282.81
-270.33
-253.16
-227.94
-191.62
-142.45
-80.21
-5.75
78.07
164.50
251.45
338.89
421.34
492.70
547.09
580.72
593.29
588.04
570.46
546.20
517.60
483.44
441.45
389.94
329.40
262.59
193.10
123.86
56.60
-8.54
-71.66
-130.91
-182.84
-223.35
-249.14
-259.32
-255.95
-243.11
-226.12
-209.80
-196.89
-188.17
-183.07
-180.64
-180.41
-182.62
-187.85
-196.73
-209.19
-223.74
-237.55
-247.00
-248.78
-241.04
-224.17
-200.89
-175.59
-153.05
-137.11
-129.74
-130.84
-138.43
-149.08
-158.60
-162.77
-158.38
-144.12
-120.99
-91.98
-60.97
-31.39
-5.18
17.27
36.52
53.04
66.71
76.94
83.24
85.79
85.41
83.18
79.78
75.24
69.06
60.83
50.70
39.62
29.08
20.63
15.35
13.59
15.09
19.30
25.70
33.97
43.91
55.21
67.18
78.61
87.91
93.56
94.58
90.89
83.42
73.76
63.73
54.79
47.77
42.85
39.76
38.11
37.56
37.83
38.65
39.64
40.34
40.29
39.15
36.80
33.34
29.05
24.23
19.17
14.06
9.09
4.46
0.47
-2.57
-4.46
-5.21
-5.11
-4.58
-3.94
-3.17
-1.91
0.48
4.51
10.33
17.62
25.67
33.68
41.03
47.33
52.41
56.16
58.45
59.13
58.17
55.68
51.96
47.37
42.16
36.38
29.94
22.73
14.82
6.47
-1.76
-9.22
-15.28
-19.53
-21.88
-22.52
-21.89
-20.49
-18.76
-17.01
-15.30
-13.52
-11.51
-9.14
-6.55
-4.07
-2.17
-1.17
-0.99
-1.03
-0.22
2.69
8.70
18.35
31.52
47.57
65.53
84.35
103.15
121.29
138.43
154.37
169.05
182.35
194.05
203.89
211.70
217.54
221.79
225.00
227.58
229.56
230.46
229.48
225.84
219.16
209.68
198.29
186.42
175.81
168.38
165.84
169.35
178.98
193.22
209.09
222.69
230.41
230.20
222.26
208.97
193.94
180.63
171.16
165.77
163.06
160.67
156.11
147.39
133.28
113.33
87.84
57.67
23.93
-12.35
-50.74
-91.60
-136.00
-184.82
-237.67
-291.93
-342.82
-384.54
-412.26
-423.90
-421.05
-408.54
-392.88
-380.20
-374.43
-376.57
-384.88
-396.11
-406.92
-415.19
-420.66
-425.18
-432.33
-446.39
-470.80
-506.31
-549.66
-593.59
-628.67
-645.97
-640.14
-611.32
-564.34
-506.43
-444.32
-382.49
-323.24
-268.22
-219.91
-181.64
-156.41
-144.90
-144.31
-148.91
-151.86
-147.54
-133.17
-109.14
-78.09
-43.43
-7.92
26.90
60.60
93.33
125.31
156.76
188.30
221.37
258.11
300.31
347.24
394.24
433.11
454.27
450.74
421.34
371.58
311.64
252.14
200.03
156.49
117.53
76.40
26.75
-35.02
-108.33
-188.18
-265.92
-331.23
-374.83
-391.30
-380.74
-348.34
-301.99
-249.30
-195.31
-142.10
-89.72
-37.64
14.53
67.03
120.22
174.17
227.53
277.06
318.29
347.35
362.90
366.94
364.05
359.30
355.96
354.53
353.13
348.93
339.61
324.10
302.58
276.14
246.50
215.82
186.44
160.50
139.42
123.61
112.54
105.07
99.88
95.63
91.25
86.19
80.74
76.05
73.77
75.42
81.41
90.56
100.64
109.26
114.90
117.26
116.86
114.31
109.75
102.85
93.37
81.63
68.58
55.30
42.26
28.80
13.44
-5.66
-29.94
-60.09
-96.09
-137.57
-183.89
-233.89
-285.71
-337.03
-385.85
-431.13
-472.75
-510.49
-542.73
-565.69
-574.13
-563.56
-532.54
-483.93
-424.10
-360.45
-298.55
-240.68
-186.16
-133.19
-80.74
-29.20
20.40
67.87
114.52
162.41
212.59
263.44
310.27
346.71
367.33
369.85
355.64
328.59
293.13
252.74
209.92
167.13
127.74
95.86
74.76
65.14
64.44
68.04
71.56
72.85
72.38
72.11
73.81
77.85
83.12
87.77
89.74
86.76
75.99
54.69
21.59
-21.30
-68.05
-110.16
-139.17
-149.14
-137.66
-105.77
-57.03
2.98
66.81
125.53
170.08
193.94
195.74
180.17
155.83
131.43
112.22
98.63
87.56
75.02
58.63
37.47
13.77
-8.60
-26.00
-36.82
-41.67
-42.21
-40.13
-36.57
-33.88
-33.90
-38.74
-49.75
-66.13
-84.41
-99.16
-104.53
-96.17
-70.72
-29.68
20.69
71.01
111.13
132.82
131.48
106.75
61.83
2.32
-64.92
-132.56
-193.21
-240.21
-268.63
-276.38
-264.82
-238.12
-201.95
-161.99
-122.48
-85.85
-53.01
-23.61
3.86
31.48
61.06
93.24
126.89
159.36
187.54
208.97
222.54
228.72
228.99
225.42
220.26
215.44
212.24
211.04
210.69
208.89
202.76
189.59
167.54
135.83
94.37
43.37
-16.55
-83.33
-152.18
-215.24
-263.24
-288.61
-289.07
-269.24
-239.19
-210.32
-190.56
-181.50
-178.76
-175.30
-165.46
-147.47
-123.44
-97.32
-72.43
-50.13
-29.92
-10.74
7.76
24.82
38.76
48.07
52.31
52.63
51.43
51.36
54.06
59.45
65.76
70.34
71.06
67.19
59.59
50.17
40.86
32.80
25.98
19.53
12.34
3.80
-5.92
-15.86
-24.71
-31.35
-35.18
-36.29
-35.29
-32.97
-30.07
-27.03
-24.05
-21.16
-18.33
-15.56
-12.92
-10.47
-8.33
-6.61
-5.41
-4.82
-4.86
-5.49
-6.58
-7.93
-9.32
-10.48
-11.14
-11.09
-10.31
-8.96
-7.43
-6.13
-5.31
-4.93
-4.76
-4.62
-4.59
-5.02
-6.33
-8.68
-11.77
-15.01
-17.82
-19.91
-21.35
-22.32
-22.77
-22.24
-20.04
-15.61
-8.90
-0.47
8.72
17.65
25.56
32.08
37.05
40.45
42.21
42.25
40.53
37.19
32.54
27.07
21.34
15.86
11.03
7.07
4.00
1.70
-0.09
-1.64
-3.19
-4.84
-6.51
-7.88
-8.56
-8.22
-6.78
-4.51
-2.03
-0.17
0.24
-1.44
-5.52
-11.91
-20.02
-28.80
-36.79
-42.47
-44.55
-42.35
-35.96
-26.23
-14.50
-2.23
9.33
19.34
27.37
33.34
37.33
39.41
39.67
38.23
35.35
31.55
27.54
24.15
21.99
21.33
21.91
23.15
24.37
25.01
24.77
23.56
21.38
18.27
14.22
9.27
3.67
-2.16
-7.66
-12.35
-15.92
-18.45
-20.26
-21.73
-22.94
-23.48
-22.49
-18.97
-12.25
-2.40
9.69
22.60
34.83
45.29
53.43
59.20
62.73
64.18
63.63
61.19
57.11
51.84
45.91
39.80
33.82
28.06
22.55
17.36
12.64
8.66
5.61
3.52
2.14
1.05
-0.28
-2.20
-4.83
-8.00
-11.33
-14.47
-17.22
-19.64
-22.08
-25.10
-29.27
-34.95
-41.96
-49.43
-55.93
-59.92
-60.30
-56.86
-50.38
-42.23
-33.81
-26.01
-19.16
-13.29
-8.50
-5.11
-3.53
-3.91
-5.81
-8.24
-10.09
-10.55
-9.43
-7.08
-4.17
-1.32
1.14
3.10
4.61
5.71
6.34
6.38
5.71
4.21
1.85
-1.30
-5.10
-9.33
-13.76
-18.23
-22.74
-27.39
-32.28
-37.26
-41.85
-45.24
-46.50
-44.92
-40.28
-32.96
-23.86
-14.09
-4.67
3.68
10.64
16.18
20.50
23.85
26.48
28.58
30.36
32.12
34.26
37.26
41.51
47.16
54.04
61.70
69.48
76.76
83.06
88.13
91.87
94.27
95.36
95.19
93.84
91.44
88.10
83.81
78.42
71.64
63.28
53.42
42.59
31.78
22.21
14.99
10.81
9.76
11.38
14.81
19.07
23.28
26.74
28.93
29.51
28.26
25.11
20.13
13.61
6.01
-2.05
-9.96
-17.16
-23.26
-28.12
-31.76
-34.30
-35.94
-36.80
-36.93
-36.39
-35.29
-34.00
-33.07
-33.10
-34.46
-37.06
-40.31
-43.41
-45.77
-47.33
-48.53
-49.96
-51.84
-53.74
-54.63
-53.34
-49.09
-41.89
-32.46
-21.94
-11.36
-1.46
7.36
14.85
20.72
24.59
26.15
25.32
22.47
18.36
13.99
10.29
7.88
6.97
7.35
8.55
9.98
11.15
11.64
11.23
9.88
7.72
4.96
1.85
-1.42
-4.78
-8.24
-11.86
-15.65
-19.61
-23.69
-27.75
-31.57
-34.76
-36.76
-36.97
-34.88
-30.29
-23.45
-15.01
-5.90
2.93
10.71
16.99
21.66
24.91
27.07
28.55
29.67
30.62
31.41
31.93
32.05
31.75
31.21
30.81
30.93
31.76
33.12
34.44
35.02
34.32
32.20
29.04
25.43
21.90
18.61
15.34
11.69
7.35
2.23
-3.61
-10.09
-17.15
-24.70
-32.38
-39.39
-44.62
-47.13
-46.84
-44.97
-43.78
-45.71
-52.14
-62.53
-74.52
-84.95
-91.29
-92.92
-91.21
-88.63
-87.36
-88.13
-90.29
-92.55
-94.08
-95.07
-96.35
-98.40
-100.63
-101.40
-98.90
-92.24
-82.08
-70.26
-58.56
-47.55
-36.14
-22.29
-4.48
16.97
39.48
58.99
71.67
75.49
71.04
61.28
50.32
41.81
38.01
39.48
45.43
54.46
65.12
76.21
86.75
95.81
102.60
106.56
107.53
105.81
101.91
96.34
89.39
81.10
71.45
60.60
49.13
37.95
28.09
20.32
14.78
11.02
8.23
5.57
2.55
-1.04
-5.20
-9.94
-15.24
-20.93
-26.53
-31.19
-34.00
-34.36
-32.37
-28.87
-25.14
-22.37
-21.10
-21.08
-21.33
-20.68
-18.19
-13.66
-7.61
-1.05
5.18
10.75
15.89
21.06
26.34
31.28
34.95
36.47
35.35
31.73
26.33
20.25
14.79
11.13
10.19
12.27
16.96
23.23
29.85
35.85
40.93
45.38
49.92
55.34
62.30
71.19
82.01
94.19
106.50
117.21
124.62
127.68
126.41
121.95
116.22
111.27
108.71
109.41
113.40
120.06
128.52
137.87
147.30
156.10
163.50
168.53
170.27
168.32
163.41
157.47
152.95
151.58
153.22
155.58
155.18
149.04
135.94
116.86
93.87
68.54
40.72
8.62
-29.74
-74.57
-123.15
-170.15
-209.49
-236.93
-251.87
-257.74
-260.59
-266.96
-281.89
-308.13
-346.34
-395.44
-452.56
