1675446575.00
64.000000
-0.00
-0.00
-0.00
-0.00
-0.00
-0.00
-0.00
-0.00
-0.00
-0.00
0.00
0.01
0.01
-0.00
-0.03
-0.05
-0.05
0.00
0.13
0.36
0.66
1.01
1.37
1.72
2.06
2.40
2.79
3.24
3.80
4.42
5.06
5.66
6.20
6.68
7.15
7.68
8.31
9.14
10.09
11.04
11.88
12.56
13.14
13.76
14.65
15.96
17.91
20.32
22.90
25.38
27.58
29.57
31.68
34.32
37.81
42.54
48.15
54.10
59.83
64.97
69.58
74.14
79.34
85.71
93.76
103.00
112.62
121.73
129.77
136.75
143.30
150.75
157.77
166.64
177.95
191.79
206.97
220.57
228.25
225.36
208.53
176.87
132.76
80.05
23.07
-34.94
-92.44
-149.16
-205.23
-260.37
-313.74
-363.87
-409.83
-450.91
-486.50
-515.74
-537.23
-549.22
-549.96
-538.37
-514.21
-478.67
-433.88
-382.45
-327.02
-269.84
-212.63
-156.66
-102.95
-52.37
-5.90
35.58
71.43
101.35
125.50
144.38
158.69
169.15
176.37
180.75
182.57
182.07
179.51
175.23
169.65
163.18
156.15
148.81
141.30
133.69
126.02
118.33
110.69
103.16
95.80
88.68
81.83
75.25
68.95
62.95
57.25
51.86
46.78
42.03
37.59
33.45
29.61
26.07
22.81
19.83
17.11
14.67
12.48
10.54
8.83
7.35
6.07
4.97
4.05
3.27
2.62
2.09
1.65
1.30
1.01
0.79
0.61
0.47
0.37
0.28
0.22
0.18
0.15
0.13
0.12
0.13
0.14
0.15
0.18
0.21
0.24
0.28
0.33
0.37
0.42
0.47
0.52
0.57
0.62
0.67
0.72
0.77
0.84
0.93
1.02
1.12
1.21
1.28
1.33
1.37
1.43
1.52
1.67
1.88
2.13
2.39
2.65
2.88
3.11
3.37
3.70
4.11
4.62
5.18
5.73
6.25
6.70
7.12
7.59
8.17
8.94
9.86
10.85
11.77
12.52
13.05
13.47
13.92
14.63
15.70
17.06
18.44
19.47
19.78
19.11
17.51
15.19
12.46
9.52
6.32
2.55
-2.16
-8.06
-15.06
-22.66
-30.03
-36.35
-41.08
-44.08
-45.74
-46.62
-47.37
-48.50
-50.44
-53.34
-56.94
-60.25
-61.58
-59.07
-51.52
-39.22
-24.15
-9.34
2.34
9.39
12.12
12.15
11.42
11.22
11.80
12.65
13.20
13.24
12.98
12.80
12.83
12.91
12.70
11.91
10.57
9.04
7.84
7.48
8.19
9.87
12.08
14.30
16.08
17.22
17.78
17.99
18.02
17.95
17.62
16.76
15.06
12.36
8.74
4.61
0.55
-2.78
-4.81
-5.21
-3.90
-1.13
2.76
7.39
12.38
17.39
22.05
25.93
28.62
29.83
29.52
27.98
25.72
23.24
20.85
18.47
15.69
12.00
7.06
1.00
-5.68
-12.21
-17.83
-21.96
-24.25
-24.51
-22.64
-18.60
-12.53
-4.83
3.86
12.69
20.93
28.06
33.79
38.03
40.66
41.38
39.70
35.00
26.77
14.88
-0.22
-17.51
-35.43
-52.13
-65.66
-74.28
-76.68
-72.30
-61.59
-45.97
-27.66
-9.14
7.50
20.88
30.51
36.40
38.64
37.16
31.72
22.32
9.48
-5.65
-21.48
-36.42
-49.26
-59.31
-66.44
-70.77
-72.59
-72.18
-69.82
-65.90
-60.92
-55.44
-50.02
-45.03
-40.58
-36.49
-32.41
-27.99
-23.00
-17.36
-11.18
-4.56
2.43
9.76
17.36
24.94
31.98
37.82
41.92
44.11
44.59
43.91
42.70
41.45
40.37
39.37
38.24
36.76
34.76
32.18
29.04
25.47
21.70
18.04
14.74
11.93
9.53
7.27
4.86
2.17
-0.68
-3.28
-5.10
-5.73
-5.02
-3.19
-0.65
2.10
4.68
6.83
8.38
9.23
9.28
8.56
7.16
5.37
3.51
1.88
0.64
-0.18
-0.66
-0.92
-1.15
-1.53
-2.24
-3.31
-4.70
-6.20
-7.62
-8.85
-9.96
-11.17
-12.68
-14.55
-16.62
-18.58
-20.06
-20.79
-20.65
-19.66
-17.92
-15.55
-12.63
-9.17
-5.20
-0.77
3.91
8.56
12.81
16.35
19.05
20.94
22.22
23.09
23.67
23.97
23.92
23.46
22.63
21.54
20.39
19.39
18.76
18.60
18.87
19.34
19.61
19.29
18.09
16.04
13.39
10.49
7.58
4.65
1.48
-2.16
-6.45
-11.39
-16.87
-22.82
-29.16
-35.73
-42.09
-47.52
-51.08
-51.94
-49.82
-45.05
-38.54
-31.41
-24.59
-18.61
-13.57
-9.36
-5.84
-2.94
-0.63
1.12
2.45
3.49
4.30
4.80
4.83
4.25
3.09
1.53
-0.12
-1.51
-2.39
-2.66
-2.45
-1.99
-1.65
-1.68
-2.12
-2.73
-3.04
-2.55
-1.00
1.49
4.55
7.73
10.85
14.01
17.55
21.71
26.44
31.36
35.90
39.48
41.82
42.90
43.03
42.63
42.10
41.71
41.52
41.45
41.32
41.01
40.43
39.53
38.19
36.18
33.30
29.52
25.05
20.27
15.54
10.93
6.26
1.29
-4.01
-9.29
-13.93
-17.31
-19.06
-19.14
-17.82
-15.44
-12.29
-8.62
-4.66
-0.59
3.44
7.43
11.48
15.72
20.17
24.62
28.73
32.14
34.69
36.37
37.27
37.48
37.01
35.84
33.99
31.54
28.64
25.54
22.52
19.87
17.80
16.25
14.94
13.26
10.51
6.20
0.19
-7.16
-15.26
-23.59
-31.81
-39.79
-47.40
-54.33
-60.08
-64.24
-66.64
-67.47
-67.16
-66.17
-64.87
-63.65
-63.11
-64.03
-67.21
-72.85
-80.08
-86.95
-90.89
-89.69
-82.41
-69.71
-53.54
-36.37
-20.20
-6.16
5.50
15.07
22.88
29.18
34.12
37.88
40.75
43.03
44.82
45.92
45.82
44.00
40.15
34.37
27.31
19.99
13.57
8.95
6.50
5.95
6.45
7.01
6.80
5.54
3.51
1.31
-0.44
-1.40
-1.58
-1.22
-0.60
0.12
0.92
1.83
2.87
4.06
5.32
6.58
7.77
8.79
9.52
9.85
9.74
9.08
7.75
5.62
2.59
-1.15
-5.06
-8.35
-10.17
-10.09
-8.24
-5.26
-1.93
1.16
3.91
6.52
9.34
12.41
15.51
18.21
20.10
21.01
20.94
20.02
18.32
15.89
12.84
9.40
6.02
3.20
1.35
0.60
0.86
1.85
3.24
4.81
6.43
8.08
9.78
11.55
13.33
14.99
16.31
17.07
17.04
16.13
14.41
12.05
9.34
6.56
3.97
1.78
0.10
-1.10
-1.91
-2.59
-3.36
-4.39
-5.71
-7.23
-8.82
-10.36
-11.76
-13.00
-14.01
-14.79
-15.32
-15.69
-16.09
-16.65
-17.43
-18.33
-19.13
-19.59
-19.51
-18.81
-17.59
-16.03
-14.43
-12.98
-11.83
-10.96
-10.24
-9.50
-8.63
-7.61
-6.46
-5.24
-3.97
-2.66
-1.36
-0.19
0.64
0.98
0.79
0.16
-0.69
-1.56
-2.29
-2.84
-3.22
-3.51
-3.77
-4.12
-4.65
-5.42
-6.42
-7.54
-8.62
-9.53
-10.19
-10.62
-10.85
-10.87
-10.58
-9.83
-8.64
-7.19
-5.91
-5.27
-5.62
-7.06
-9.36
-12.12
-14.90
-17.46
-19.75
-21.93
-24.15
-26.52
-29.03
-31.56
-34.00
-36.26
-38.30
-40.11
-41.67
-42.87
-43.50
-43.28
-41.83
-38.87
-34.27
-28.13
-20.80
-12.82
-4.78
2.84
9.79
16.07
21.83
27.25
32.39
37.17
41.34
44.61
46.69
47.45
46.93
45.31
42.86
39.80
36.29
32.46
28.44
24.45
20.74
17.55
15.00
13.12
11.83
11.03
10.61
10.42
10.24
9.70
8.41
6.04
2.61
-1.60
-5.92
-9.55
-11.75
-12.07
-10.49
-7.39
-3.43
0.75
4.73
8.45
12.18
16.25
20.89
25.93
30.88
35.08
38.04
39.62
40.19
40.39
40.86
41.91
43.40
44.79
45.39
44.72
42.78
40.04
37.44
36.00
36.55
39.36
43.87
48.76
52.36
53.27
51.10
46.79
42.35
40.09
41.48
46.48
53.43
59.82
63.37
63.13
59.91
55.79
53.34
54.36
59.09
65.84
71.09
69.98
57.44
29.88
-12.73
-65.33
-117.79
-157.39
-172.89
-158.85
-117.98
-60.07
1.93
56.77
98.08
124.77
138.74
141.90
134.33
114.59
81.21
34.07
-24.72
-90.84
-158.16
-219.21
-266.25
-292.86
-295.98
-277.47
-244.00
-205.12
-170.22
-145.68
-133.39
-131.15
-134.17
-136.93
-134.67
-124.31
-104.91
-77.98
-47.03
-16.68
8.76
26.61
36.11
38.24
34.95
28.42
20.47
12.30
4.50
-3.07
-10.79
-18.67
-25.94
-31.15
-33.20
-32.50
-31.48
-34.23
-44.39
-62.89
-86.49
-108.08
-118.78
-110.83
-80.15
-27.83
39.78
112.34
177.56
223.76
242.62
231.62
194.76
141.27
82.44
28.02
-15.94
-47.05
-64.66
-67.97
-55.41
-26.21
17.39
68.70
117.46
152.89
167.39
159.03
131.78
93.25
51.41
12.12
-21.68
-49.15
-70.10
-84.07
-89.98
-87.08
-76.07
-59.69
-42.26
-28.39
-21.37
-21.94
-28.29
-36.92
-44.23
-47.91
-47.54
-44.56
-41.17
-39.38
-40.26
-43.80
-49.24
-55.61
-62.00
-67.58
-71.49
-72.88
-71.22
-66.72
-60.40
-53.69
-47.83
-43.45
-40.29
-37.47
-33.77
-28.00
-19.31
-7.46
6.93
22.35
36.58
47.20
52.25
50.83
43.35
31.43
17.51
4.31
-5.79
-11.17
-11.22
-6.28
2.78
15.18
30.57
49.18
71.45
97.70
127.65
160.47
194.78
228.84
260.48
286.91
304.66
309.92
299.50
272.13
229.38
175.75
117.63
61.73
13.50
-23.50
-47.60
-58.68
-57.88
-47.59
-31.27
-12.96
3.81
17.12
27.03
35.17
43.52
53.50
65.42
78.47
91.04
101.00
106.11
105.13
99.09
91.89
89.35
96.72
115.61
142.23
168.41
184.85
185.39
169.63
142.87
113.15
87.52
69.20
56.94
46.50
32.95
12.19
-18.57
-60.81
-114.33
-176.22
-239.85
-295.02
-330.68
-339.65
-322.77
-290.00
-256.79
-237.21
-237.28
-252.30
-269.43
-273.98
-256.00
-213.76
-153.34
-85.23
-20.61
31.24
63.85
73.87
61.28
29.41
-15.24
-64.16
-108.77
-142.30
-160.69
-163.13
-151.92
-131.90
-109.32
-90.19
-78.29
-73.88
-73.79
-73.10
-67.64
-56.04
-40.29
-24.41
-12.36
-6.05
-4.61
-5.28
-4.92
-1.65
4.61
12.38
19.67
24.83
27.08
26.43
23.40
18.46
12.01
4.32
-4.18
-12.60
-19.66
-23.94
-24.30
-20.43
-13.00
-3.48
6.38
15.25
22.62
28.75
34.22
39.24
43.28
45.26
44.09
39.46
32.14
23.73
15.96
9.90
5.55
2.02
-1.79
-6.59
-12.27
-17.84
-21.70
-22.00
-17.25
-6.98
7.64
23.58
36.49
41.95
37.28
22.89
2.55
-17.88
-32.59
-38.02
-33.84
-22.51
-7.69
7.30
20.41
30.71
37.72
40.97
40.06
35.13
27.52
19.75
14.80
15.07
21.41
32.82
46.84
60.47
71.07
77.05
78.17
75.30
70.06
64.22
59.22
55.73
53.56
51.85
49.40
45.18
38.69
30.12
20.26
10.30
1.52
-5.03
-8.75
-9.61
-8.16
-5.30
-2.03
0.87
3.05
4.50
5.51
6.39
7.36
8.52
9.89
11.52
13.48
15.81
18.44
21.12
23.38
24.65
24.37
22.24
18.33
13.23
7.87
3.27
0.15
-1.38
-1.79
-1.92
-2.59
-4.31
-7.13
-10.76
-14.77
-18.75
-22.44
-25.64
-28.21
-30.05
-31.16
-31.70
-31.96
-32.31
-33.01
-34.16
-35.57
-36.80
-37.35
-36.82
-35.22
-32.99
-30.92
-29.72
-29.71
-30.66
-31.89
-32.60
-32.27
-30.74
-28.22
-24.99
-21.19
-16.84
-11.91
-6.56
-1.28
3.19
6.11
7.06
6.09
3.78
0.93
-1.67
-3.56
-4.62
-4.91
-4.51
-3.46
-1.91
-0.22
0.98
1.04
-0.29
-2.61
-4.90
-5.95
-4.93
-1.76
2.95
8.27
13.44
18.14
22.44
26.49
30.28
33.57
36.05
37.65
38.63
39.52
40.83
42.79
45.22
47.64
49.58
50.78
51.32
51.54
51.80
52.27
52.85
53.18
52.76
51.15
48.00
43.18
36.82
29.35
21.44
13.96
7.75
3.51
1.61
2.09
4.67
8.93
14.29
20.17
25.95
31.00
34.76
36.87
37.33
36.53
35.24
34.39
34.85
37.19
41.58
47.62
54.35
60.18
63.10
60.95
52.04
35.86
13.45
-12.73
-39.50
-63.87
-83.84
-98.64
-108.39
-113.58
-114.59
-111.70
-105.31
-96.21
-85.64
-74.95
-65.24
-56.98
-50.07
-44.08
-38.67
-33.81
-29.84
-27.14
-25.83
-25.48
-25.18
-23.88
-20.80
-15.80
-9.34
-2.29
4.53
10.61
15.87
20.51
24.81
28.92
32.76
36.07
38.47
39.71
39.67
38.49
36.48
34.00
31.33
28.58
25.73
22.64
19.34
15.90
12.62
9.76
7.56
6.21
5.84
6.55
8.38
11.16
14.53
17.90
20.65
22.25
22.44
21.30
19.20
16.64
14.22
12.43
11.65
12.02
13.49
15.71
18.10
19.96
20.59
19.46
16.38
11.52
5.43
-1.10
-7.26
-12.43
-16.41
-19.38
-21.84
-24.35
-27.30
-30.84
-34.81
-38.95
-42.91
-46.38
-48.97
-50.30
-50.06
-48.15
-44.80
-40.63
-36.40
-32.76
-30.03
-28.15
-26.83
-25.67
-24.33
-22.56
-20.09
-16.63
-11.97
-6.09
0.69
7.67
13.97
18.71
21.24
21.35
19.26
15.62
11.36
7.49
4.83
3.75
4.13
5.36
6.69
7.47
7.37
6.37
4.73
2.78
0.84
-0.75
-1.70
-1.71
-0.69
1.20
3.56
5.82
7.49
8.30
8.30
7.74
6.87
5.87
4.79
3.69
2.77
2.33
2.69
3.97
5.97
8.21
10.18
11.51
12.03
11.78
10.78
9.01
6.41
3.06
-0.61
-3.91
-5.96
-6.14
-4.38
-1.21
2.52
6.11
9.44
13.11
18.29
26.08
36.92
50.13
64.06
76.65
86.29
92.46
95.90
98.17
100.92
105.13
110.69
116.20
119.29
116.98
106.37
85.47
54.18
14.97
-27.16
-65.72
-94.57
-109.97
-111.74
-102.96
-88.55
-73.25
-60.04
-49.85
-42.10
-35.74
-30.04
-24.65
-19.41
-13.89
-7.60
-0.27
7.64
14.83
19.64
20.66
17.48
10.85
2.42
-5.90
-12.58
-16.74
-18.20
-17.07
-13.56
-7.91
-0.62
7.26
14.13
18.13
17.69
12.13
2.03
-10.80
-23.62
-33.40
-37.34
-33.95
-23.62
-8.80
6.60
18.37
23.19
19.82
9.68
-3.45
-14.80
-20.03
-16.58
-4.41
13.59
31.98
44.10
44.33
30.85
6.57
-21.20
-42.91
-49.66
-36.33
-3.26
44.02
96.84
147.07
187.28
211.26
214.52
195.56
156.66
103.91
45.86
-8.14
-47.71
-66.78
-65.12
-47.07
-18.39
15.35
48.58
74.56
86.62
84.37
70.34
50.04
31.42
23.99
35.87
70.79
126.61
198.11
284.53
382.74
484.93
578.93
652.53
697.56
712.52
701.92
637.62
513.81
349.90
182.13
40.46
-63.65
-133.25
-173.42
-197.34
-212.90
-218.60
-213.46
-200.20
-185.47
-173.29
-166.15
-164.46
-168.22
-176.02
-182.09
-182.64
-177.43
-169.21
-161.03
-154.80
-150.94
-149.70
-150.33
-149.37
-144.41
-134.99
-122.42
-108.28
-93.85
-80.01
-68.11
-59.20
-53.06
-49.75
-49.53
-52.66
-58.80
-67.11
-76.96
-89.27
-106.67
-132.47
-169.27
-216.20
-267.18
-311.09
-334.67
-326.86
-282.81
-205.72
-106.01
1.71
102.65
185.24
243.27
276.22
287.94
284.57
272.08
254.28
232.38
205.85
173.80
136.38
95.49
54.71
18.81
-7.56
-21.28
-22.64
-16.38
-11.17
-16.74
-39.22
-77.11
-120.11
-152.42
-159.53
-135.10
-84.25
-21.34
36.47
76.51
94.82
95.50
86.24
73.19
58.13
39.05
13.42
-18.25
-51.77
-81.14
-102.01
-114.46
-123.13
-135.18
-156.92
-191.26
-236.93
-289.12
-341.23
-386.55
-419.49
-436.43
-436.19
-420.31
-392.68
-358.57
-323.18
-290.19
-261.00
-235.03
-210.79
-187.30
-164.71
-144.22
-127.16
-114.02
-103.98
-95.16
-85.42
-73.35
-58.84
-43.03
-27.71
-14.47
-4.15
3.35
8.65
12.44
14.91
15.75
14.49
11.07
6.28
1.76
-0.46
1.21
7.25
16.75
27.63
37.43
44.05
46.44
44.84
40.51
35.30
31.08
29.22
30.24
33.78
38.71
43.55
47.03
48.55
48.22
46.80
45.18
43.97
43.27
42.65
41.49
39.28
35.93
31.82
27.61
23.93
21.13
19.12
17.45
15.57
13.08
9.94
6.59
3.65
1.76
1.28
2.21
4.24
6.89
9.61
11.93
13.54
14.42
14.91
15.54
16.94
19.48
23.08
27.13
30.75
33.12
33.79
32.70
30.09
26.21
21.21
15.35
9.20
3.89
0.78
1.00
4.80
11.29
18.70
25.02
28.68
28.97
26.03
20.47
13.09
4.81
-3.30
-10.13
-14.73
-16.70
-16.52
-15.29
-14.33
-14.46
-15.65
-17.10
-17.80
-17.06
-14.85
-11.74
-8.36
-4.96
-1.13
3.92
10.93
19.96
30.11
39.67
46.78
50.21
49.86
46.83
42.79
39.22
36.72
34.94
32.99
30.09
26.19
22.00
18.65
17.03
17.29
18.75
20.21
20.46
18.89
15.66
11.67
8.13
6.09
5.94
7.20
8.68
9.02
7.34
3.80
-0.41
-3.59
-4.36
-2.42
1.23
4.79
6.53
5.64
2.67
-0.84
-3.05
-2.68
0.49
5.65
11.40
16.19
18.86
18.88
16.52
12.79
9.21
7.32
8.14
11.74
17.13
22.62
26.36
26.90
23.54
16.39
6.30
-5.24
-16.24
-24.50
-28.10
-25.91
-18.12
-6.23
7.31
19.74
28.69
32.59
30.91
24.12
13.59
1.24
-10.72
-20.23
-25.81
-26.79
-23.47
-16.98
-9.10
-1.83
3.10
4.64
2.70
-1.86
-7.49
-12.48
-15.39
-15.39
-12.28
-6.44
1.32
9.92
18.15
24.83
29.19
31.07
31.03
30.11
29.40
29.59
30.69
32.11
32.92
32.29
29.72
25.26
19.39
12.98
7.11
2.79
0.72
1.03
3.09
5.68
7.33
6.95
4.19
-0.39
-5.64
-10.21
-13.12
-13.96
-12.97
-10.74
-7.90
-4.85
-1.68
1.73
5.44
9.26
12.72
15.30
16.64
16.82
16.32
15.77
15.60
15.85
16.20
16.26
15.92
15.45
15.38
16.17
17.84
19.91
21.56
22.00
20.85
18.24
14.76
11.20
8.17
5.96
4.47
3.31
2.07
0.46
-1.59
-4.01
-6.60
-9.16
-11.43
-13.23
-14.37
-14.74
-14.35
-13.37
-12.14
-11.02
-10.27
-9.83
-9.47
-8.78
-7.48
-5.49
-3.03
-0.46
1.88
3.82
5.44
6.91
8.39
9.89
11.31
12.42
13.04
13.09
12.64
11.84
10.90
9.96
9.04
8.04
6.82
5.33
3.71
2.21
1.18
0.78
0.94
1.30
1.35
0.59
-1.26
-4.18
-7.86
-11.73
-15.17
-17.62
-18.75
-18.47
-17.04
-14.96
-12.78
-10.92
-9.51
-8.35
-7.04
-5.25
-2.88
-0.14
2.57
4.80
6.33
7.27
7.93
8.71
9.93
11.65
13.70
15.75
17.43
18.42
18.50
17.73
16.30
14.60
13.03
11.88
11.27
11.16
11.35
11.60
11.66
11.30
10.30
8.47
5.83
2.54
-0.98
-4.20
-6.59
-7.82
-7.75
-6.49
-4.30
-1.52
1.44
4.18
6.36
7.79
8.58
9.12
9.99
11.67
14.28
17.51
20.62
22.84
23.67
23.12
21.73
20.25
19.40
19.48
20.44
21.91
23.43
24.60
25.12
24.89
23.89
22.26
20.29
18.30
16.57
15.20
14.07
12.81
10.97
8.17
4.26
-0.62
-6.04
-11.41
-16.03
-19.27
-20.75
-20.40
-18.59
-16.01
-13.52
-11.86
-11.26
-11.38
-11.25
-9.75
-6.10
-0.39
6.43
12.78
17.18
18.91
18.22
16.21
14.22
13.23
13.51
14.61
15.72
16.06
15.22
13.24
10.49
7.48
4.67
2.32
0.48
-0.93
-2.05
-2.92
-3.54
-3.92
-4.22
-4.91
-6.61
-9.87
-14.82
-20.96
-27.22
-32.37
-35.50
-36.33
-35.28
-33.19
-31.02
-29.47
-28.88
-29.21
-30.10
-30.99
-31.14
-29.80
-26.37
-20.69
-13.09
-4.45
4.09
11.48
17.09
20.92
23.47
25.48
27.55
29.86
32.14
33.92
34.77
34.56
33.47
31.86
30.14
28.58
27.32
26.44
25.88
25.48
24.88
23.61
21.20
17.40
12.34
6.56
0.89
-3.80
-6.81
-7.84
-7.11
-5.29
-3.32
-2.05
-1.88
-2.47
-2.89
-1.89
1.45
7.31
14.90
22.69
28.93
32.26
32.20
29.19
24.39
19.23
14.86
11.96
10.59
10.35
10.59
10.57
9.62
7.26
3.36
-1.74
-7.21
-11.89
-14.65
-14.82
-12.38
-8.11
-3.28
0.62
2.27
0.84
-3.77
-10.78
-18.67
-25.52
-29.59
-29.91
-26.66
-21.12
-15.14
-10.51
-8.28
-8.54
-10.49
-12.85
-14.23
-13.60
-10.44
-4.89
2.27
9.85
16.63
21.67
24.53
25.31
24.45
22.50
19.98
17.25
14.61
12.29
10.49
9.25
8.46
7.74
6.66
4.91
2.48
-0.18
-2.36
-3.35
-2.87
-1.29
0.38
0.92
-0.61
-4.33
-9.48
-14.73
-18.73
-20.66
-20.50
-18.82
-16.43
-13.95
-11.63
-9.40
-7.02
-4.29
-1.12
2.45
6.31
10.20
13.81
16.68
18.48
19.06
18.59
17.54
16.49
15.89
15.89
16.28
16.62
16.51
15.76
14.43
12.82
11.26
9.97
9.12
8.66
8.44
8.26
8.00
7.65
7.24
6.74
5.98
4.73
2.66
-0.51
-4.91
-10.30
-16.08
-21.38
-25.42
-27.70
-28.01
-26.61
-24.14
-21.34
-18.68
-16.24
-13.74
-10.79
-7.20
-2.65
2.60
7.56
10.94
12.07
11.33
9.89
9.29
10.50
14.56
21.13
28.29
33.32
34.60
32.40
28.36
24.95
23.91
27.18
34.72
44.13
51.61
54.66
53.10
48.33
43.04
39.78
42.80
55.06
76.73
104.53
133.79
159.53
176.93
183.71
165.96
119.52
53.91
-13.00
-69.10
-112.93
-148.42
-182.72
-216.24
-244.79
-260.91
-260.33
-241.36
-209.11
-171.26
-133.00
-101.23
-79.94
-68.57
-61.06
-51.74
-38.84
-24.98
-11.86
-0.68
9.28
21.15
37.87
61.95
93.77
132.19
171.83
209.48
243.29
271.56
292.32
302.50
299.19
280.42
246.71
201.22
149.84
98.65
52.29
13.82
-15.15
-33.78
-42.26
-41.60
-33.91
-21.45
-6.52
9.04
24.27
38.60
51.29
60.42
63.95
60.54
50.65
36.10
19.65
4.31
-7.04
-12.19
-11.47
-6.22
1.51
9.04
12.55
7.83
-7.73
-33.39
-64.61
-97.57
-127.62
-150.30
-162.49
-164.16
-158.16
-148.36
-137.79
-128.20
-125.57
-134.24
-154.90
-183.87
-215.78
-245.85
-270.75
-288.92
-300.91
-315.52
-340.10
-376.46
-419.46
-461.31
-495.78
-519.61
-532.26
-494.63
-388.83
-227.90
-50.16
109.44
235.45
328.14
394.23
441.11
474.67
491.54
491.69
478.35
459.32
442.51
432.24
428.98
430.57
433.68
429.81
416.28
393.95
368.11
344.50
325.77
311.48
299.09
285.68
266.03
237.34
199.55
155.62
109.15
62.98
19.56
-18.54
-48.95
-72.12
-90.12
-106.40
-124.04
-145.07
-170.01
-197.68
-225.84
-252.30
-276.51
-299.28
-322.43
-347.24
-373.53
-399.05
-419.78
-431.37
-431.02
-418.87
-397.88
-371.81
-342.94
-311.24
-275.56
-236.18
-196.81
-164.00
-143.95
-138.68
-143.96
-150.85
-150.01
-136.53
-112.16
-83.90
-59.88
-44.98
-38.69
-36.08
-31.12
-20.19
-3.90
13.57
27.02
33.15
32.14
27.31
23.18
23.11
27.89
35.82
44.20
51.03
56.02
60.39
65.61
72.18
78.91
83.60
84.31
80.60
73.87
66.56
60.89
57.74
56.43
55.38
53.15
49.29
44.43
39.85
36.79
35.81
36.48
37.53
37.13
33.47
25.33
12.78
-2.62
-17.81
-29.11
-33.38
-29.32
-18.09
-3.14
10.93
20.00
21.73
16.20
5.51
-7.29
-19.52
-29.63
-37.26
-42.63
-45.81
-46.26
-43.16
-35.97
-25.13
-12.10
1.13
12.87
22.32
29.47
34.70
38.14
39.77
39.71
38.81
38.66
41.00
46.62
54.63
62.52
67.19
66.42
59.77
48.84
36.27
24.53
15.01
7.84
2.42
-1.80
-4.87
-6.33
-5.77
-3.22
0.52
4.34
7.31
9.06
9.88
10.36
11.00
11.91
12.94
13.92
14.88
16.04
17.55
19.33
21.06
22.36
23.01
23.04
22.53
21.49
19.83
17.49
14.71
12.00
9.99
9.02
8.89
8.96
8.51
7.21
5.35
3.54
2.26
1.32
-0.13
-3.25
-8.75
-16.27
-24.21
-30.29
-32.45
-29.81
-23.15
-14.59
-6.79
-1.76
-0.18
-1.28
-3.45
-5.09
-5.21
-3.70
-0.97
2.46
6.34
10.61
15.11
19.33
22.41
23.59
22.58
19.89
16.56
13.67
11.83
10.97
10.47
9.56
7.77
4.99
1.56
-2.00
-4.99
-6.80
-7.11
-6.16
-5.10
-5.72
-9.96
-18.81
-31.54
-45.38
-56.38
-60.85
-57.07
-46.15
-31.79
-18.74
-10.82
-9.35
-12.76
-17.68
-20.60
-19.45
-14.24
-6.39
2.31
10.64
18.23
25.06
30.97
35.44
37.91
38.25
37.13
35.68
34.90
34.99
35.10
33.73
29.63
22.58
13.85
5.72
0.43
-1.10
0.15
1.56
0.24
-5.45
-14.83
-25.10
-32.62
-34.64
-30.52
-21.80
-11.35
-1.94
4.75
8.40
9.79
10.18
10.77
12.54
16.07
21.54
28.60
36.35
43.55
48.98
51.92
52.44
51.24
49.20
46.85
44.08
40.31
35.07
28.59
21.97
16.82
14.27
14.29
15.44
15.48
12.58
6.28
-2.15
-10.44
-16.58
-20.00
-21.96
-24.84
-30.83
-40.49
-52.23
-62.79
-68.77
-68.11
-61.03
-49.77
-37.44
-26.59
-18.27
-12.03
-6.68
-1.46
3.40
6.70
7.10
4.01
-1.74
-8.10
-12.46
-12.71
-7.99
0.92
12.01
22.77
31.10
36.01
37.77
37.58
36.93
36.80
37.34
37.81
37.15
34.64
30.35
25.26
20.78
18.12
17.67
18.77
19.94
19.55
16.44
10.34
2.01
-7.10
-15.23
-20.87
-23.03
-21.54
-17.04
-10.78
-4.20
1.53
5.86
8.84
10.79
12.07
12.78
12.84
12.28
11.45
10.97
11.45
13.07
15.38
17.37
17.95
16.50
13.19
8.92
4.94
2.28
1.40
2.14
3.82
5.64
6.93
7.28
6.59
5.05
3.07
1.13
-0.31
-0.97
-0.86
-0.40
-0.33
-1.55
-4.87
-10.60
-18.39
-27.02
-34.63
-39.16
-39.08
-34.05
-25.20
-14.96
-6.11
-0.76
0.58
-0.89
-2.89
-3.28
-1.04
3.33
8.25
12.09
14.08
14.66
15.06
16.40
19.00
22.14
24.48
24.79
22.63
18.51
13.72
9.66
7.40
7.29
8.93
11.52
14.09
15.92
16.60
16.08
14.49
12.06
9.10
5.97
3.11
0.85
-0.79
-2.20
-4.07
-7.17
-11.91
-18.13
-24.93
-30.99
-34.93
-35.75
-33.31
-28.42
-22.70
-17.96
-15.51
-15.56
-17.18
-18.68
-18.46
-15.68
-10.51
-3.81
3.51
10.88
18.09
24.86
30.56
34.15
34.80
32.38
27.82
22.83
19.18
17.93
19.20
22.24
25.82
28.78
30.20
29.60
26.92
22.54
17.28
12.18
8.24
6.05
5.52
5.89
6.12
5.25
2.77
-1.28
-6.34
-11.52
-15.81
-18.24
-18.10
-15.20
-10.02
-3.67
2.43
6.98
9.36
9.88
9.54
9.59
10.78
13.10
15.87
18.22
19.61
20.16
20.39
20.78
21.33
21.49
20.52
17.99
14.26
10.33
7.47
6.56
7.71
10.30
13.40
16.24
18.48
20.09
21.01
20.97
19.56
16.53
12.21
7.41
3.18
0.18
-1.68
-3.19
-5.46
-9.23
-14.48
-20.44
-25.85
-29.44
-30.32
-28.18
-23.31
-16.69
-9.71
-3.94
-0.56
0.08
-1.34
-3.39
-4.64
-4.36
-2.91
-1.44
-1.06
-2.09
-3.76
-4.66
-3.63
-0.58
3.33
6.12
5.93
1.98
-5.18
-13.81
-21.74
-27.08
-28.66
-26.21
-20.31
-12.29
-4.03
2.49
5.88
5.99
4.13
2.47
2.91
5.95
10.29
13.44
13.05
8.17
-0.27
-9.89
-17.98
-22.48
-22.50
-18.25
-10.75
-1.58
7.46
14.66
18.91
20.21
19.73
19.34
20.80
24.95
31.37
38.71
45.31
49.90
51.90
51.41
48.93
45.07
40.45
35.63
31.14
27.37
24.45
22.21
20.25
18.00
14.97
10.86
5.75
0.16
-5.04
-8.80
-10.24
-8.98
-5.35
-0.44
4.22
6.99
6.74
3.16
-3.01
-10.23
-16.65
-20.78
-22.00
-20.77
-18.31
-16.00
-14.75
-14.64
-15.08
-15.18
-14.36
-12.57
-10.29
-8.21
-6.83
-6.25
-6.13
-5.88
-4.94
-2.98
-0.05
3.42
6.80
9.50
11.21
11.95
12.11
12.18
12.65
13.73
15.27
16.77
17.47
16.72
14.30
10.64
6.72
3.72
2.38
2.66
3.63
3.81
1.83
-2.95
-10.10
-18.25
-25.60
-30.50
-31.95
-29.85
-24.90
-18.30
-11.40
-5.38
-1.01
1.36
1.73
0.43
-1.95
-4.62
-6.67
-7.28
-5.93
-2.60
2.20
7.55
12.34
15.55
16.47
14.89
11.03
5.49
-0.90
-7.19
-12.40
-15.66
-16.33
-14.22
-9.74
-3.97
1.60
5.57
7.06
6.08
3.46
0.36
-2.17
-3.72
-4.64
-5.73
-7.87
-11.60
-16.91
-23.19
-29.41
-34.32
-36.83
-36.33
-33.05
-28.11
-23.17
-19.84
-18.93
-20.07
-21.81
-22.35
-20.31
-15.40
-8.39
-0.70
6.25
11.63
15.33
17.82
19.75
21.67
23.87
26.30
28.67
30.59
31.71
31.94
31.51
30.90
30.57
30.77
31.34
31.80
31.60
30.36
28.02
24.93
21.62
18.63
16.16
13.95
11.36
7.61
2.26
-4.49
-11.72
-18.06
-22.24
-23.57
-22.29
-19.43
-16.39
-14.45
-14.32
-16.03
-18.99
-22.30
-24.97
-26.25
-25.93
-24.37
-22.45
-21.23
-21.65
-24.05
-28.24
-33.53
-39.04
-43.91
-47.55
-49.71
-50.65
-51.03
-51.72
-53.42
-56.01
-58.22
-57.66
-51.67
-38.62
-19.14
3.31
23.36
35.74
37.60
30.12
18.30
8.94
7.77
17.17
35.59
58.84
82.51
104.03
123.43
142.54
163.48
187.27
213.30
239.62
263.58
282.42
293.57
294.85
284.87
263.25
230.83
189.61
142.29
91.85
41.09
-7.62
-52.52
-92.48
-126.93
-155.62
-178.48
-195.56
-207.04
-213.43
-215.75
-215.48
-214.27
-213.39
-213.23
-213.19
-211.83
-207.41
-198.72
-185.73
-169.80
-153.24
-138.24
-125.65
-114.52
-102.59
-87.74
-69.52
-49.79
-31.99
-19.39
-13.25
-12.03
-12.10
-9.53
-2.08
9.82
23.38
34.90
41.45
41.98
37.46
30.09
22.30
15.81
11.41
9.26
9.41
12.09
17.43
24.96
33.08
39.19
40.49
35.23
23.50
7.50
-9.27
-23.15
-31.46
-33.15
-28.82
-20.36
-10.40
-1.73
3.36
3.63
-0.65
-7.68
-14.76
-19.27
-19.77
-16.52
-11.24
-6.16
-2.96
-2.16
-3.07
-4.42
-5.00
-4.22
-2.20
0.37
2.69
4.18
4.90
5.50
6.99
10.21
15.23
21.19
26.60
30.13
31.51
31.81
33.02
36.77
43.20
50.49
55.56
55.57
49.41
38.40
25.78
15.27
9.52
9.10
12.55
17.37
21.15
22.62
21.78
19.58
17.22
15.63
15.21
15.73
16.51
16.55
14.78
10.40
3.11
-6.51
-17.08
-26.59
-32.99
-34.78
-31.51
-23.97
-13.97
-3.88
4.12
8.66
9.51
7.53
4.23
1.12
-0.81
-1.26
-0.51
0.95
2.74
4.67
6.69
8.69
10.43
11.59
12.05
11.95
11.70
11.72
12.23
13.07
13.85
14.10
13.58
12.24
10.26
7.89
5.41
3.12
1.33
0.28
-0.09
-0.14
-0.47
-1.61
-3.67
-6.35
-9.15
-11.76
-14.26
-16.87
-19.52
-21.56
-22.03
-20.22
-16.38
-11.82
-8.42
-7.60
-9.43
-12.48
-14.51
-13.64
-9.35
-2.77
4.02
9.06
11.52
11.92
11.66
12.09
13.77
16.31
18.83
20.64
21.63
22.27
23.13
24.41
25.79
26.78
27.09
26.96
26.99
27.66
28.79
29.33
27.69
22.40
13.12
1.05
-11.15
-20.30
-23.99
-21.73
-15.28
-7.89
-2.85
-1.98
-4.86
-9.26
-12.47
-13.02
-11.62
-10.88
-13.91
-22.41
-35.51
-49.71
-60.39
-63.83
-58.91
-47.38
-32.88
-19.02
-7.97
0.04
5.90
10.47
13.78
15.14
13.93
10.38
5.73
1.68
-0.58
-0.87
0.09
1.52
3.33
6.32
11.47
18.86
26.98
33.04
34.08
28.38
16.30
0.28
-16.15
-29.64
-37.95
-40.31
-37.37
-30.81
-22.93
-16.09
-11.99
-11.19
-12.74
-14.72
-15.23
-13.43
-9.89
-6.24
-4.23
-4.68
-7.16
-10.32
-12.74
-13.72
-13.63
-13.62
-14.93
-18.06
-22.31
-25.84
-26.20
-21.36
-10.69
4.29
20.11
32.18
36.41
30.83
16.59
-2.11
-19.30
-29.32
-28.90
-18.33
-1.23
17.13
31.90
40.40
42.56
40.23
35.68
30.44
24.96
18.99
12.40
5.70
-0.01
-3.51
-4.14
-2.10
1.56
5.46
8.39
9.79
9.86
9.32
8.84
8.54
7.78
5.30
0.05
-8.12
-17.91
-26.96
-32.72
-33.66
-29.94
-23.33
-16.33
-11.03
-8.28
-7.65
-7.98
-8.18
-7.88
-7.45
-7.49
-8.24
-9.04
-8.52
-5.19
1.70
11.61
22.66
32.28
38.19
39.19
35.54
28.64
20.37
12.36
5.67
0.73
-2.40
-3.74
-3.42
-1.71
0.84
3.46
5.38
6.03
5.26
3.29
0.57
-2.45
-5.43
-8.18
-10.67
-12.93
-15.07
-17.21
-19.40
-21.45
-22.87
-23.03
-21.41
-17.93
-13.01
-7.34
-1.47
4.50
10.79
17.59
24.55
30.73
34.86
36.05
34.34
30.68
26.47
22.79
19.91
17.28
14.14
10.09
5.56
1.54
-0.93
-1.33
-0.03
1.99
3.69
4.48
4.37
3.66
2.43
0.21
-3.84
-10.30
-18.94
-28.42
-36.76
-42.16
-43.87
-42.49
-39.64
-37.13
-36.15
-36.91
-38.77
-40.64
-41.41
-40.21
-36.54
-30.42
-22.38
-13.34
-4.37
3.73
10.51
15.94
20.13
23.12
24.85
25.43
25.32
25.42
26.67
29.53
33.46
37.08
38.82
37.85
34.63
30.61
27.36
25.56
24.38
21.97
16.54
7.57
-3.72
-14.99
-24.09
-30.20
-34.05
-37.17
-40.56
-43.85
-45.24
-42.37
-33.52
-18.68
0.16
19.47
35.08
43.34
42.00
30.94
12.25
-10.18
-31.64
-47.69
-55.21
-52.90
-41.43
-23.14
-1.56
19.39
36.19
46.68
50.53
49.13
44.81
39.79
35.40
31.85
28.66
25.40
22.17
19.72
18.86
19.96
22.60
25.65
27.61
27.14
23.52
16.98
8.83
1.16
-3.85
-4.74
-1.66
3.48
7.59
7.71
2.48
-7.17
-18.32
-27.40
-31.95
-31.74
-28.88
-26.63
-27.80
-33.28
-41.70
-50.15
-55.52
-56.00
-51.79
-44.94
-38.31
-34.28
-33.80
-36.12
-39.36
-41.49
-41.25
-38.52
-34.02
-28.60
-22.62
-15.88
-8.02
0.83
9.78
17.42
22.52
24.67
24.45
23.11
21.93
21.71
22.63
24.32
26.20
27.60
27.93
26.85
24.44
21.29
18.37
16.60
16.34
17.13
17.79
17.04
14.08
8.94
2.45
-4.24
-10.07
-14.36
-16.88
-17.70
-17.18
-15.84
-14.34
-13.22
-12.80
-12.91
-12.99
-12.37
-10.48
-7.13
-2.49
2.96
8.58
13.70
17.61
19.71
19.66
17.51
13.85
9.61
5.85
3.40
2.61
3.20
4.42
5.17
4.32
1.10
-4.56
-11.74
-18.65
-23.10
-23.30
-18.66
-10.15
-0.04
8.98
14.77
16.61
15.26
12.57
10.67
11.13
14.53
20.37
27.41
34.12
38.99
40.83
38.90
33.03
23.70
12.03
-0.28
-11.33
-19.50
-23.99
-25.07
-23.87
-21.79
-19.76
-17.86
-15.35
-11.27
-5.10
2.90
11.72
20.10
27.06
32.22
35.77
38.12
39.50
39.79
38.52
35.11
29.24
21.07
11.39
1.44
-7.43
-14.19
-18.46
-20.61
-21.61
-22.55
-24.26
-26.90
-29.97
-32.49
-33.44
-32.26
-29.24
-25.52
-22.70
-22.17
-24.25
-27.96
-31.22
-31.73
-27.95
-19.77
-8.65
2.94
12.06
16.00
12.48
0.20
-20.42
-46.35
-71.65
-88.49
-89.88
-72.88
-40.67
-2.17
31.39
51.19
54.37
44.76
29.97
17.03
8.73
3.22
-3.35
-12.84
-22.43
-25.40
-14.69
12.72
53.19
97.31
133.88
154.68
157.42
145.58
125.43
102.39
78.73
53.74
25.79
-5.11
-36.22
-62.78
-80.18
-86.27
-82.43
-73.03
-63.42
-57.62
-56.92
-59.89
-63.64
-65.46
-64.06
-59.80
-53.94
-47.71
-41.56
-35.10
-27.66
-18.79
-8.55
2.36
12.99
22.45
30.18
36.02
40.27
43.59
46.67
49.85
52.81
54.49
53.56
48.96
40.53
29.19
16.71
4.96
-4.59
-11.37
-15.51
-17.61
-18.32
-18.31
-18.42
-19.90
-24.08
-31.71
-42.33
-53.89
-63.24
-67.16
-63.56
-52.30
-35.31
-15.86
2.56
17.25
26.91
31.66
32.55
30.93
27.83
23.85
19.22
14.32
9.93
7.23
7.22
10.13
15.06
20.24
23.86
24.97
24.00
22.44
22.00
23.52
26.44
29.07
29.48
26.50
20.24
11.92
3.22
-4.52
-10.60
-14.96
-17.86
-19.66
-20.84
-22.06
-24.21
-28.05
-33.62
-39.97
-45.25
-47.41
-45.05
-38.05
-27.64
-15.90
-4.98
3.61
9.32
12.43
13.69
13.83
13.38
12.74
12.46
13.33
16.22
21.49
28.44
35.18
39.13
38.07
31.27
19.99
7.15
-3.77
-10.13
-11.07
-7.70
-2.57
1.32
1.45
-3.49
-13.38
-26.78
-41.42
-54.82
-64.76
-69.80
-69.47
-64.36
-56.06
-46.78
-38.81
-33.78
-32.06
-32.58
-33.23
-31.71
-26.43
-17.12
-4.80
8.65
21.14
31.02
37.40
40.21
40.08
38.11
35.50
33.21
31.70
30.85
30.10
28.81
26.51
23.14
18.95
14.37
9.74
5.39
1.74
-0.55
-0.78
1.51
6.09
11.93
17.51
21.48
23.19
22.75
20.54
16.54
10.24
1.16
-10.11
-21.32
-29.08
-30.46
-24.75
-14.19
-3.03
4.76
7.55
6.75
5.55
6.64
10.31
14.29
15.25
11.22
3.16
-5.17
-9.01
-5.12
6.48
22.25
36.66
44.49
43.03
32.99
18.03
3.16
-7.16
-10.55
-7.19
0.83
10.48
18.96
24.34
25.67
22.87
16.40
7.30
-2.85
-12.08
-18.49
-20.86
-19.15
-14.53
-8.93
-4.36
-2.14
-2.54
-4.86
-7.88
-10.44
-11.80
-11.79
-10.68
-8.86
-6.39
-2.95
2.00
8.75
16.96
25.47
32.64
37.06
38.04
35.69
30.63
23.58
15.07
5.81
-3.00
-9.55
-11.93
-9.00
-1.22
9.19
18.92
24.81
25.12
20.12
11.86
3.30
-2.99
-5.74
-5.31
-3.38
-2.12
-3.34
-7.86
-15.43
-24.90
-34.53
-42.31
-46.27
-44.87
-37.63
-25.57
-11.42
1.15
8.79
9.85
5.05
-2.77
-9.97
-13.59
-12.26
-6.39
2.42
12.17
21.00
27.49
30.74
30.48
27.15
21.96
16.56
12.68
11.52
13.31
17.19
21.43
23.92
22.94
17.86
9.55
0.26
-7.13
-10.24
-8.21
-2.19
5.01
10.03
10.32
5.05
-4.65
-16.39
-27.54
-36.22
-41.66
-44.01
-43.77
-41.31
-36.76
-30.35
-22.86
-15.80
-11.02
-9.86
-12.40
-17.08
-21.31
-22.60
-19.71
-13.19
-5.11
1.98
6.23
7.13
5.49
2.71
0.07
-1.63
-2.09
-1.11
1.53
5.92
11.65
17.67
22.47
24.70
23.78
20.17
15.13
10.14
6.32
4.19
3.83
5.09
7.80
11.72
16.33
20.83
24.27
25.91
25.52
23.49
20.60
17.45
14.19
10.36
5.22
-1.71
-10.13
-18.74
-25.61
-28.86
-27.52
-21.89
-13.58
-4.72
2.80
8.04
11.04
12.46
13.00
12.94
12.23
10.75
8.78
6.97
6.09
6.57
8.26
10.45
12.34
13.54
14.20
14.87
16.03
17.71
19.44
20.50
20.33
18.91
16.75
14.61
13.03
12.13
11.56
10.83
9.59
7.87
6.04
4.57
3.78
3.74
4.38
5.56
7.29
9.63
12.51
15.59
18.08
18.94
17.14
12.08
3.80
-6.87
-18.53
-29.55
-38.52
-44.67
-47.95
-48.83
-48.02
-46.04
-43.17
-39.49
-35.15
-30.49
-26.12
-22.62
-20.29
-19.05
-18.46
-17.98
-17.22
-16.08
-14.62
-12.96
-11.05
-8.66
-5.54
-1.58
2.97
7.44
10.89
12.48
11.91
9.66
6.98
5.45
6.46
10.65
17.53
25.45
32.04
34.90
32.54
25.04
14.28
3.44
-4.07
-5.78
-1.15
8.20
19.01
27.49
30.53
26.59
15.98
0.73
-15.97
-30.48
-39.68
-41.86
-37.20
-27.81
-16.96
-7.97
-3.08
-2.76
-5.81
-10.01
-13.25
-14.30
-13.12
-10.64
-8.00
-6.03
-4.93
-4.47
-4.28
-4.21
-4.30
-4.51
-4.42
-3.22
-0.00
5.63
13.09
20.85
26.94
29.75
28.73
24.52
18.64
12.60
7.29
2.70
-1.74
-6.44
-10.84
-13.41
-12.17
-5.80
5.40
19.20
31.94
39.86
40.43
33.46
21.29
8.07
-1.68
-4.71
-0.28
9.58
20.80
28.86
30.63
25.58
15.86
5.23
-2.72
-6.07
-5.10
-1.72
1.76
3.83
4.12
3.22
1.87
0.31
-1.96
-5.82
-12.19
-21.55
-33.71
-47.82
-62.34
-75.08
-83.57
-85.55
-79.70
-66.24
-47.06
-25.29
-4.62
11.62
20.99
22.33
16.06
4.30
-9.48
-21.35
-28.29
-29.32
-25.84
-20.75
-16.83
-15.29
-15.32
-14.84
-12.02
-6.55
0.21
6.08
9.36
9.81
8.57
7.44
7.85
10.34
14.65
20.15
26.23
32.55
38.76
44.33
48.20
48.87
44.84
35.43
21.51
5.71
-8.29
-17.08
-19.09
-15.28
-8.88
-3.82
-3.00
-7.01
-14.09
-21.17
-25.44
-25.66
-22.41
-17.61
-13.50
-11.52
-11.76
-12.98
-13.20
-10.61
-4.38
4.84
14.99
23.27
26.86
23.69
12.87
-5.01
-27.60
-50.75
-68.94
-76.68
-70.56
-51.28
-24.15
2.44
20.50
25.98
20.82
11.84
7.15
11.83
25.12
40.89
50.97
49.43
35.46
13.56
-9.06
-26.22
-35.50
-38.76
-40.17
-43.15
-47.94
-51.24
-47.95
-34.09
-9.27
22.45
53.79
76.89
85.99
79.21
58.83
30.14
-0.48
-27.41
-47.11
-58.58
-62.88
-62.21
-58.63
-53.19
-45.76
-35.63
-22.49
-7.13
8.46
21.86
31.14
35.46
35.18
31.31
25.01
17.42
9.73
3.32
-0.45
-0.83
1.77
5.83
9.41
11.23
11.54
11.92
14.36
19.98
28.30
37.43
45.08
49.62
50.75
49.34
46.69
43.72
40.49
36.46
31.10
24.65
18.28
13.69
12.11
13.47
16.05
17.20
14.50
7.09
-3.78
-15.26
-24.16
-28.37
-27.75
-23.93
-19.33
-15.85
-14.13
-13.48
-12.47
-9.87
-5.21
1.04
7.76
13.60
17.49
18.83
17.69
14.79
11.25
8.29
6.68
6.34
6.35
5.37
2.40
-2.63
-8.72
-14.33
-18.09
-19.45
-18.72
-16.71
-14.23
-11.82
-9.82
-8.57
-8.57
-10.30
-14.01
-19.43
-25.72
-31.70
-35.98
-37.41
-35.29
-29.76
-21.92
-13.70
-7.42
-4.87
-6.66
-12.01
-19.12
-26.08
-31.59
-35.17
-36.78
-36.24
-32.85
-25.76
-14.55
-0.07
15.43
28.76
36.94
38.44
33.75
25.29
16.28
9.41
5.87
5.29
6.59
8.91
12.18
16.76
22.46
27.87
30.51
28.06
19.79
7.45
-5.26
-14.25
-16.85
-12.73
-3.66
7.47
17.85
25.22
27.86
24.59
14.95
-0.22
-18.52
-36.26
-49.51
-55.39
-53.12
-44.17
-31.65
-19.22
-9.94
-5.47
-5.71
-8.91
-12.33
-13.37
-10.52
-3.95
4.62
12.87
18.96
22.28
23.41
23.46
23.27
22.98
22.34
21.13
19.67
18.75
19.16
21.11
24.01
26.75
28.19
27.79
25.84
23.27
21.20
20.40
20.93
22.23
23.38
23.48
22.04
19.08
15.05
10.54
6.03
1.78
-2.08
-5.46
-8.24
-10.27
-11.62
-12.66
-14.00
-16.26
-19.76
-24.29
-29.07
-32.97
-34.84
-33.96
-30.27
-24.56
-18.29
-13.15
-10.44
-10.51
-12.50
-14.70
-15.29
-13.21
-8.59
-2.61
3.17
7.58
10.24
11.53
12.09
12.38
12.46
12.17
11.38
10.26
9.17
8.54
8.63
9.40
10.52
11.55
12.07
11.86
10.94
9.53
7.93
6.32
4.68
2.79
0.39
-2.57
-5.76
-8.51
-10.11
-10.19
-9.07
-7.71
-7.38
-9.11
-13.18
-19.05
-25.49
-31.08
-34.66
-35.61
-33.91
-30.02
-24.75
-19.03
-13.78
-9.72
-7.13
-5.77
-4.94
-3.67
-1.21
2.67
7.52
12.41
16.31
18.59
19.22
18.76
18.02
17.65
17.92
18.69
19.60
20.34
20.81
21.11
21.39
21.68
21.84
21.70
21.15
20.30
19.37
18.53
17.67
16.46
14.50
11.51
7.62
3.38
-0.50
-3.36
-4.91
-5.30
-5.13
-5.16
-6.20
-8.73
-12.85
-18.11
-23.59
-28.11
-30.64
-30.59
-28.06
-23.81
-18.98
-14.65
-11.54
-9.76
-8.90
-8.26
-7.15
-5.21
-2.41
1.00
4.68
8.38
11.93
15.14
17.70
19.27
19.54
18.58
16.82
15.05
14.02
14.15
15.33
17.04
18.57
19.36
19.08
17.77
15.64
13.08
10.49
8.17
6.25
4.61
2.91
0.81
-1.88
-4.96
-7.86
-9.88
-10.51
-9.74
-8.26
-7.21
-7.76
-10.60
-15.53
-21.51
-26.99
-30.53
-31.37
-29.66
-26.25
-22.37
-19.04
-16.81
-15.70
-15.29
-14.96
-14.09
-12.25
-9.33
-5.54
-1.35
2.75
6.32
9.12
11.01
11.91
11.72
10.47
8.36
5.92
3.89
2.97
3.57
5.54
8.22
10.67
12.12
12.24
11.26
9.82
8.51
7.61
6.91
5.89
4.08
1.44
-1.56
-4.09
-5.41
-5.28
-4.11
-2.77
-2.18
-2.92
-5.03
-8.17
-11.86
-15.63
-19.12
-21.81
-23.06
-22.27
-19.25
-14.63
-9.82
-6.54
-5.95
-7.99
-11.27
-13.64
-13.23
-9.43
-3.12
3.81
9.36
12.41
13.06
12.38
11.66
11.78
12.84
14.28
15.33
15.45
14.58
13.01
11.09
8.97
6.73
4.55
2.89
2.50
3.96
7.15
11.04
13.89
14.00
10.48
3.86
-4.08
-10.94
-14.70
-14.39
-10.41
-4.25
2.09
6.79
8.70
7.57
3.92
-1.31
-7.07
-12.51
-17.04
-20.24
-21.76
-21.36
-18.97
-14.90
-9.85
-4.70
-0.15
3.61
6.85
10.16
13.93
18.13
22.37
26.02
28.67
30.21
30.88
31.01
30.81
30.27
29.23
27.56
25.22
22.42
19.51
16.93
15.05
14.06
13.87
14.22
14.70
15.02
14.99
14.57
13.69
12.30
10.29
7.78
5.32
3.78
4.10
6.80
11.51
16.90
21.06
22.30
20.00
15.10
9.89
7.08
8.72
15.30
25.70
37.70
48.87
57.26
61.74
62.28
60.24
58.31
59.80
67.39
81.43
99.04
114.65
121.81
115.38
93.24
56.38
8.35
-45.76
-99.98
-147.72
-182.29
-197.98
-191.68
-164.19
-120.54
-68.74
-17.86
24.17
51.99
63.34
58.95
41.91
16.70
-11.85
-39.64
-63.88
-83.21
-97.26
-106.07
-109.87
-108.84
-103.32
-93.92
-81.56
-67.53
-53.41
-41.06
-32.45
-29.31
-32.34
-40.68
-51.58
-61.16
-65.76
-63.56
-55.45
-44.64
-35.05
-29.40
-27.85
-28.23
-27.40
-23.20
-15.59
-6.62
1.05
5.70
7.55
8.30
10.03
13.71
18.70
23.15
25.11
23.77
19.87
15.34
12.30
12.14
14.94
19.64
24.63
28.40
30.09
29.66
27.64
24.88
22.07
19.65
17.72
16.13
14.63
12.99
11.02
8.64
6.02
3.82
3.20
5.85
13.42
26.67
44.57
63.74
78.76
83.36
72.37
43.86
0.58
-50.23
-98.75
-135.63
-154.94
-155.78
-141.83
-119.34
-94.65
-72.22
-54.15
-40.68
-31.24
-25.08
-21.18
-18.03
-13.45
-5.21
7.87
24.83
42.36
55.83
60.96
56.03
43.14
28.12
19.06
24.04
48.95
95.81
161.92
239.99
319.52
389.04
438.98
464.25
465.45
448.11
420.21
389.04
358.96
330.91
303.58
275.33
245.41
214.16
182.19
149.50
115.36
79.01
40.77
2.50
-32.69
-61.48
-81.61
-92.61
-95.76
-93.43
-88.27
-82.69
-78.74
-78.11
-82.13
-91.42
-105.74
-123.99
-144.64
-166.47
-188.93
-212.38
-237.77
-266.57
-300.35
-340.10
-385.22
-432.35
-475.20
-505.70
-516.63
-504.45
-471.04
-422.97
-368.74
-315.45
-266.48
-221.46
-177.98
-133.83
-88.20
-41.37
6.82
58.04
115.02
179.60
250.25
320.90
381.96
423.55
439.36
429.16
398.59
356.46
311.16
267.72
227.34
188.72
150.32
111.73
73.61
36.16
-2.22
-45.08
-96.27
-157.19
-224.56
-290.20
-342.96
-372.74
-374.28
-349.13
-304.73
-251.32
-198.14
-150.96
-111.70
-79.89
-54.46
-34.61
-19.94
-10.02
-4.47
-3.46
-8.29
-21.13
-43.40
-74.13
-108.77
-139.84
-159.51
-162.91
-150.69
-128.86
-106.12
-89.97
-84.03
-87.43
-96.44
-106.98
-116.10
-122.02
-123.23
-117.68
-103.13
-78.42
-44.72
-5.56
34.83
73.35
109.85
147.25
189.99
241.66
302.67
369.08
433.04
484.62
514.70
517.91
494.21
448.74
390.07
327.50
268.83
218.92
179.61
150.49
129.56
113.75
99.33
82.41
59.63
28.85
-10.35
-56.30
-104.89
-149.38
-181.75
-194.82
-185.28
-156.32
-117.36
-81.14
-59.05
-57.07
-74.02
-103.21
-136.09
-165.90
-189.76
-207.77
-221.00
-229.43
-231.40
-224.48
-206.90
-178.76
-142.56
-102.60
-63.78
-30.22
-4.11
14.55
27.05
34.38
36.05
30.19
15.21
-8.07
-35.39
-59.76
-73.92
-73.94
-61.33
-42.88
-27.95
-24.43
-35.23
-57.23
-82.87
-103.51
-113.29
-111.27
-101.09
-88.63
-78.95
-74.11
-72.77
-71.59
-67.10
-57.17
-41.18
-19.44
7.37
38.14
70.72
101.75
127.38
144.65
152.76
153.32
149.28
143.35
136.99
130.35
123.24
116.10
110.22
106.93
106.49
107.48
107.32
103.62
95.60
84.57
73.26
64.38
59.20
57.02
55.59
52.36
45.72
35.63
23.50
11.20
0.20
-9.08
-17.22
-25.24
-33.91
-43.35
-52.99
-61.90
-69.20
-74.42
-77.53
-78.92
-79.15
-78.84
-78.48
-78.42
-78.79
-79.49
-80.21
-80.45
-79.67
-77.54
-74.00
-69.24
-63.56
-57.14
-49.97
-42.05
-33.44
-24.51
-15.85
-8.02
-1.45
3.78
7.84
11.00
13.54
15.70
17.73
19.86
22.33
25.29
28.68
32.25
35.63
38.52
40.76
42.50
44.14
46.14
48.85
52.21
55.65
58.25
58.99
57.26
53.14
47.49
41.64
36.89
33.94
32.74
32.57
32.42
31.48
29.41
26.33
22.69
19.06
16.15
14.80
15.94
20.32
28.10
38.58
50.12
60.62
68.22
71.88
71.64
68.37
63.26
57.24
50.70
43.53
35.36
25.81
14.73
2.29
-10.96
-24.15
-36.35
-46.74
-54.79
-60.22
-62.77
-62.00
-57.29
-48.08
-34.33
-16.94
2.18
20.50
35.58
45.65
50.10
49.34
44.54
37.26
29.00
21.03
14.11
8.40
3.35
-2.05
-8.88
-17.65
-27.88
-38.09
-46.22
-50.36
-49.46
-43.66
-34.13
-22.51
-10.37
1.19
11.54
20.43
27.71
33.26
36.87
38.37
37.77
35.31
31.56
27.34
23.49
20.63
18.92
18.11
17.67
17.19
16.59
16.17
16.34
17.29
18.80
20.29
21.10
20.84
19.52
17.44
15.04
12.65
10.37
8.13
5.74
2.97
-0.37
-4.42
-9.17
-14.46
-19.94
-25.08
-29.37
-32.35
-33.71
-33.33
-31.26
-27.66
-22.86
-17.30
-11.48
-5.91
-0.86
3.60
7.66
11.56
15.41
19.04
22.02
23.83
24.18
23.14
21.16
18.87
16.81
15.27
14.19
13.38
12.61
11.77
10.87
9.94
9.03
8.20
7.51
7.12
7.16
7.72
8.74
9.94
10.95
11.35
10.79
9.05
6.15
2.26
-2.38
-7.53
-13.06
-18.85
-24.72
-30.19
-34.51
-36.87
-36.68
-33.95
-29.28
-23.62
-17.86
-12.43
-7.24
-1.94
3.71
9.58
15.20
20.02
23.70
26.24
27.88
28.88
29.35
29.22
28.33
26.62
24.19
21.31
18.36
15.67
13.34
11.31
9.36
7.32
5.20
3.19
1.62
0.71
0.50
0.76
1.22
1.66
2.05
2.47
2.92
3.18
2.83
1.38
-1.55
-6.02
-11.78
-18.27
-24.82
-30.69
-35.19
-37.77
-38.09
-36.18
-32.38
-27.29
-21.62
-15.90
-10.33
-4.83
0.82
6.71
12.64
18.02
22.18
24.64
25.36
24.77
23.60
22.45
21.59
20.89
20.05
18.97
17.80
16.97
16.81
17.31
18.02
18.24
17.35
15.15
11.98
8.51
5.42
3.08
1.40
-0.07
-1.94
-4.59
-8.01
-11.69
-14.80
-16.52
-16.39
-14.62
-12.01
-9.76
-9.02
-10.47
-14.14
-19.43
-25.31
-30.70
-34.68
-36.66
-36.41
-34.01
-29.84
-24.53
-18.80
-13.32
-8.46
-4.24
-0.40
3.39
7.26
11.09
14.54
17.28
19.13
20.13
20.45
20.18
19.27
17.63
15.22
12.23
9.09
6.28
4.19
2.98
2.58
2.77
3.34
4.07
4.79
5.30
5.39
4.88
3.71
2.01
0.03
-1.99
-3.98
-6.14
-8.79
-12.24
-16.58
-21.58
-26.78
-31.60
-35.44
-37.75
-38.04
-35.95
-31.47
-24.98
-17.33
-9.53
-2.51
3.29
7.91
11.68
14.94
17.76
20.00
21.41
21.94
21.75
21.16
20.38
19.49
18.45
17.25
16.05
15.11
14.62
14.46
14.26
13.51
11.95
9.72
7.39
5.64
4.97
5.41
6.55
7.73
8.38
8.20
7.17
5.47
3.23
0.47
-2.92
-7.00
-11.67
-16.68
-21.66
-26.31
-30.48
-34.12
-37.08
-38.97
-39.10
-36.74
-31.54
-23.79
-14.44
-4.74
4.15
11.60
17.44
21.79
24.63
25.72
24.68
21.37
16.14
9.83
3.54
-1.76
-5.48
-7.46
-7.85
-6.84
-4.62
-1.37
2.61
6.83
10.65
13.43
14.71
14.47
13.01
10.99
9.01
7.47
6.41
5.48
4.16
2.04
-1.00
-4.70
-8.51
-11.81
-14.17
-15.55
-16.28
-16.99
-18.32
-20.64
-23.87
-27.40
-30.34
-31.76
-31.08
-28.20
-23.55
-17.93
-12.22
-7.23
-3.47
-1.10
0.08
0.51
0.79
1.39
2.56
4.29
6.36
8.49
10.50
12.27
13.73
14.73
15.08
14.64
13.48
12.01
10.83
10.55
11.50
13.50
16.03
18.38
19.98
20.58
20.25
19.22
17.62
15.47
12.60
8.88
4.33
-0.75
-5.83
-10.32
-13.70
-15.80
-16.81
-17.32
-18.07
-19.70
-22.39
-25.70
-28.67
-30.16
-29.26
-25.75
-20.11
-13.38
-6.75
-1.12
3.14
6.13
8.22
9.72
10.79
11.37
11.38
10.87
10.03
9.18
8.67
8.73
9.43
10.76
12.56
14.62
16.68
18.51
20.00
21.12
21.94
22.48
22.63
22.16
20.76
18.22
14.55
9.96
4.84
-0.40
-5.36
-9.76
-13.42
-16.34
-18.65
-20.65
-22.66
-24.87
-27.28
-29.67
-31.63
-32.68
-32.39
-30.45
-26.81
-21.75
-15.83
-9.79
-4.32
0.19
3.64
6.26
8.32
9.95
11.13
11.80
12.03
12.08
12.33
12.99
13.97
14.94
15.50
15.51
15.21
15.08
15.61
16.97
18.94
21.01
22.59
23.22
22.62
20.74
17.71
13.85
9.63
5.54
1.92
-1.23
-4.27
-7.82
-12.38
-18.10
-24.60
-31.16
-37.00
-41.53
-44.49
-45.79
-45.37
-43.10
-38.91
-32.95
-25.73
-17.98
-10.50
-3.79
2.00
7.01
11.48
15.46
18.68
20.69
21.09
19.84
17.33
14.40
12.00
10.88
11.22
12.59
14.08
14.73
14.00
12.05
9.68
7.88
7.39
8.29
10.01
11.64
12.32
11.63
9.67
6.86
3.72
0.62
-2.32
-5.14
-7.99
-11.01
-14.39
-18.24
-22.57
-27.15
-31.50
-34.90
-36.63
-36.20
-33.55
-29.07
-23.41
-17.27
-11.12
-5.26
0.21
5.24
9.70
13.43
16.31
18.34
19.68
20.61
21.32
21.79
21.73
20.74
18.62
15.53
12.05
9.00
7.06
6.46
6.84
7.53
7.82
7.35
6.20
4.73
3.38
2.47
2.03
1.86
1.59
0.84
-0.66
-3.07
-6.35
-10.37
-14.92
-19.73
-24.40
-28.48
-31.36
-32.48
-31.53
-28.54
-24.02
-18.79
-13.71
-9.36
-5.86
-2.89
0.09
3.52
7.50
11.69
15.48
18.33
19.97
20.50
20.23
19.48
18.30
16.59
14.24
11.35
8.35
5.89
4.53
4.56
5.75
7.50
8.99
9.50
8.66
6.61
3.94
1.55
0.29
0.68
2.71
5.86
9.23
11.73
12.26
9.91
4.20
-4.60
-15.31
-25.98
-34.35
-38.46
-37.36
-31.50
-22.54
-12.86
-4.73
0.41
2.29
1.70
0.01
-1.38
-1.58
-0.36
2.07
5.23
8.81
12.64
16.57
20.34
23.49
25.44
25.82
24.59
22.12
19.02
15.88
13.13
10.83
8.86
6.92
4.80
2.47
0.14
-1.83
-3.11
-3.54
-3.30
-2.89
-2.93
-3.98
-6.30
-9.74
-13.80
-17.79
-21.14
-23.51
-24.92
-25.66
-26.20
-26.97
-28.12
-29.43
-30.32
-30.07
-28.09
-24.28
-19.05
-13.24
-7.68
-2.97
0.83
4.04
7.13
10.46
14.11
17.86
21.28
23.86
25.19
25.02
23.47
21.01
18.42
16.52
15.90
16.69
18.55
20.79
22.68
23.72
23.73
22.85
21.43
19.86
18.48
17.42
16.55
15.59
14.22
12.28
9.90
7.39
5.07
3.01
0.96
-1.55
-4.89
-9.07
-13.67
-18.00
-21.42
-23.64
-24.84
-25.52
-26.19
-27.07
-28.00
-28.43
-27.82
-25.88
-22.77
-19.05
-15.41
-12.35
-9.96
-7.98
-5.92
-3.33
-0.05
3.82
7.87
11.44
13.76
14.17
12.44
9.10
5.45
3.18
3.71
7.50
13.78
20.85
26.71
29.77
29.31
25.59
19.74
13.44
8.51
6.39
7.70
11.94
17.68
23.15
27.01
28.88
29.34
29.23
29.01
28.21
25.67
20.11
10.85
-1.77
-16.54
-31.78
-45.86
-57.61
-66.38
-71.88
-73.93
-72.38
-67.12
-58.48
-47.31
-35.11
-23.68
-14.59
-8.80
-6.34
-6.52
-8.34
-10.84
-13.32
-15.30
-16.36
-16.05
-13.97
-9.96
-4.29
2.33
8.90
14.53
18.68
21.34
22.96
24.16
25.44
26.98
28.66
30.17
31.20
31.53
30.99
29.43
26.68
22.67
17.52
11.68
5.89
0.99
-2.39
-4.05
-4.27
-3.73
-3.17
-3.13
-3.76
-4.76
-5.59
-5.71
-4.86
-3.21
-1.35
-0.15
-0.51
-3.03
-7.86
-14.48
-21.89
-28.75
-33.85
-36.40
-36.19
-33.55
-29.16
-23.70
-17.76
-11.73
-5.91
-0.60
3.95
7.63
10.57
13.11
15.69
18.58
21.78
24.91
27.43
28.76
28.52
26.61
23.30
19.16
14.97
11.53
9.42
8.75
9.14
9.83
10.02
9.23
7.56
5.60
4.14
3.84
4.93
7.02
9.31
10.81
10.70
8.63
4.82
-0.02
-4.97
-9.28
-12.58
-14.98
-16.92
-18.91
-21.30
-24.11
-27.15
-29.99
-32.16
-33.13
-32.45
-29.84
-25.28
-19.08
-11.85
-4.33
2.75
8.80
13.49
16.72
18.63
19.49
19.69
19.63
19.60
19.75
19.95
19.94
19.41
18.20
16.40
14.35
12.55
11.38
11.01
11.30
11.89
12.40
12.59
12.44
12.05
11.58
11.09
10.54
9.75
8.45
6.31
3.04
-1.48
-7.09
-13.27
-19.26
-24.37
-28.24
-31.14
-33.90
-37.46
-42.25
-47.84
-53.07
-56.54
-57.42
-55.87
-53.13
-50.93
-50.74
-52.90
-56.37
-59.24
-59.64
-56.82
-51.67
-46.64
-44.75
-48.33
-57.64
-70.44
-82.79
-90.26
-89.34
-77.99
-56.33
-27.14
4.00
29.82
43.31
40.36
22.45
-2.51
-21.54
-22.30
0.98
44.53
97.08
145.40
179.89
197.57
201.06
196.19
186.89
172.89
151.08
119.38
79.67
37.72
0.79
-25.06
-34.87
-26.53
-1.43
35.92
79.28
122.17
158.71
184.67
188.14
163.13
115.12
59.16
9.54
-27.66
-53.28
-70.44
-81.39
-87.00
-86.23
-79.05
-67.87
-57.03
-50.22
-48.51
-50.43
-53.31
-54.80
-52.66
-46.20
-36.83
-27.46
-20.66
-17.32
-16.61
-16.94
-16.79
-14.67
-9.95
-3.35
3.28
8.20
10.74
11.29
10.71
9.80
9.40
9.90
11.11
12.19
12.41
11.45
9.71
7.71
5.87
4.51
3.70
3.32
2.62
1.09
-1.25
-3.95
-6.48
-8.47
-9.70
-10.08
-9.48
-8.85
-8.72
-8.72
-7.88
-5.43
-1.06
5.02
12.37
20.66
27.53
31.66
33.57
35.18
38.20
43.40
50.65
59.40
69.15
76.26
78.49
76.43
72.68
69.16
66.20
62.44
55.39
45.76
29.04
1.79
-36.30
-82.75
-134.68
-189.15
-242.92
-292.81
-313.79
-295.17
-247.01
-191.41
-144.33
-110.28
-86.35
-68.26
-53.64
-42.26
-38.60
-44.67
-57.65
-71.05
-80.00
-82.76
-80.31
-74.54
-67.08
-62.14
-62.21
-69.64
-79.40
-87.64
-92.34
-93.15
-90.60
-86.07
-83.28
-85.50
-94.40
-109.81
-131.64
-158.94
-189.19
-217.26
-236.96
-244.18
-237.89
-220.41
-196.11
-170.40
-145.80
-125.31
-109.20
-95.66
-82.58
-68.57
-52.96
-35.15
-14.78
8.69
35.31
64.89
96.34
128.00
158.12
185.70
210.83
234.17
256.49
277.88
298.23
316.88
332.99
346.09
356.22
364.14
371.11
378.69
388.11
399.79
412.61
423.79
429.32
425.03
407.65
375.03
325.97
259.75
176.94
80.50
-22.55
-121.14
-202.19
-254.37
-271.85
-255.96
-214.32
-158.27
-100.42
-52.97
-26.68
-29.26
-62.92
-122.73
-196.85
-269.66
-327.17
-361.61
-373.23
-368.32
-354.94
-339.19
-323.85
-309.19
-294.94
-281.32
-268.85
-257.29
-244.86
-228.79
-206.40
-176.80
-141.77
-105.76
-74.72
-53.92
-45.84
-48.98
-58.13
-66.38
-67.94
-60.30
-44.86
-25.56
-6.55
9.98
24.51
39.38
57.04
78.53
102.79
127.13
148.11
162.59
168.56
165.61
155.04
139.84
123.88
110.94
103.61
102.52
106.38
112.74
119.05
123.45
125.00
123.30
118.02
108.73
95.26
78.34
59.94
43.00
30.40
23.69
22.30
23.72
24.66
22.64
17.11
9.62
2.89
-0.72
-0.44
2.36
4.86
4.14
-1.47
-11.65
-24.27
-36.32
-45.04
-48.70
-46.84
-39.96
-28.99
-15.08
0.60
16.69
31.70
44.22
53.29
58.66
60.78
60.59
59.14
57.32
55.93
55.57
56.59
59.01
62.26
65.30
67.01
66.59
64.07
60.32
56.55
53.77
52.24
51.41
50.28
48.06
44.66
40.76
37.42
35.39
34.70
34.49
33.31
29.92
23.81
15.54
6.44
-2.03
-8.99
-14.40
-18.90
-23.15
-27.29
-30.70
-32.47
-31.87
-28.81
-23.82
-17.58
-10.48
-2.58
6.07
14.90
22.77
28.35
31.01
31.44
31.62
33.98
40.17
50.24
62.45
74.09
82.64
86.68
86.12
81.80
74.93
66.60
57.66
48.90
41.24
35.63
32.84
33.06
35.74
39.71
43.49
45.83
45.97
43.89
40.28
36.21
32.70
30.27
28.65
26.98
24.19
19.71
13.73
7.11
0.95
-4.03
-7.79
-10.87
-14.00
-17.73
-22.24
-27.39
-32.31
-35.68
-35.85
-31.05
-20.17
-3.61
16.06
34.56
47.35
52.00
48.97
41.44
33.71
29.26
29.56
33.77
39.77
45.41
50.42
55.35
60.71
66.17
70.70
73.24
73.27
71.10
67.79
67.07
71.66
81.68
94.40
105.89
113.08
114.81
111.67
105.37
102.61
108.20
122.61
141.99
161.32
177.92
192.13
205.92
221.01
245.23
282.44
329.85
378.85
420.28
449.24
465.81
472.84
473.83
481.74
506.35
549.96
606.44
665.90
719.69
761.95
789.18
738.29
577.60
320.85
24.81
-247.87
-461.32
-609.91
-705.18
-763.39
-798.74
-810.96
-798.70
-765.27
-720.54
-676.03
-639.65
-614.33
-599.81
-594.82
-590.11
-579.48
-562.51
-543.71
-527.47
-513.32
-496.37
-471.12
-435.13
-384.85
-321.96
-252.92
-186.71
-130.78
-88.23
-57.86
-35.55
-21.58
-10.28
4.30
25.97
55.06
88.86
123.12
153.65
177.43
193.09
202.91
210.15
218.14
229.94
248.44
276.16
314.23
360.73
409.97
453.50
481.66
486.88
466.45
423.57
365.88
302.51
240.97
185.37
136.96
95.24
59.85
31.67
12.47
3.48
3.84
9.82
15.46
14.68
3.30
-19.08
-48.84
-80.03
-107.17
-127.63
-142.79
-157.12
-175.73
-202.19
-237.47
-280.54
-329.41
-382.12
-436.07
-486.90
-527.91
-551.23
-550.81
-525.71
-481.23
-426.82
-371.64
-320.39
-272.28
-223.91
-174.14
-127.47
-93.03
-79.77
-90.56
-119.26
-152.72
-176.67
-182.04
-167.98
-140.83
-109.42
-80.48
-56.33
-35.55
-15.30
6.13
28.31
49.19
66.31
78.11
84.60
87.26
88.43
90.39
94.32
99.83
105.02
107.47
105.52
99.23
90.45
81.92
75.87
72.93
71.98
70.87
67.61
61.30
52.38
42.34
32.92
25.53
20.93
19.17
19.80
22.17
25.63
29.76
34.32
39.12
43.94
48.42
52.15
54.80
56.26
56.60
56.02
54.76
53.06
51.25
49.68
48.66
48.23
48.12
47.80
46.68
44.46
41.19
37.19
32.90
28.63
24.52
20.68
17.18
14.21
11.90
10.21
8.88
7.47
5.42
2.28
-2.24
-8.15
-15.17
-22.67
-29.72
-35.19
-38.03
-37.52
-33.48
-26.39
-17.22
-7.21
2.45
10.87
17.59
22.53
25.95
28.20
29.67
30.69
31.50
32.32
33.21
34.08
34.67
34.67
33.84
32.14
29.77
27.05
24.30
21.68
19.26
17.06
15.16
13.68
12.65
11.88
10.85
8.95
5.64
0.81
-5.23
-11.88
-18.45
-24.43
-29.53
-33.54
-36.25
-37.35
-36.57
-33.76
-29.14
-23.17
-16.43
-9.37
-2.17
5.12
12.34
19.08
24.61
28.20
29.41
28.45
26.17
23.73
22.19
22.02
23.00
24.39
25.34
25.25
23.97
21.80
19.24
16.76
14.61
12.73
10.84
8.68
6.05
2.96
-0.42
-3.94
-7.47
-11.02
-14.68
-18.53
-22.54
-26.57
-30.41
-33.83
-36.59
-38.37
-38.69
-37.06
-33.21
-27.32
-20.12
-12.65
-5.84
-0.12
4.76
9.41
14.38
19.71
24.78
28.60
30.28
29.58
27.02
23.72
20.90
19.42
19.43
20.45
21.65
22.25
21.87
20.59
18.81
16.93
15.09
13.18
11.03
8.52
5.75
2.84
-0.19
-3.51
-7.32
-11.60
-15.94
-19.63
-21.94
-22.59
-21.94
-20.90
-20.46
-21.23
-23.24
-26.01
-28.88
-31.33
-33.09
-34.09
-34.33
-33.69
-31.95
-28.77
-23.84
-16.97
-8.17
2.11
13.02
23.39
31.97
37.93
41.09
42.02
41.71
40.93
39.88
38.06
34.76
29.64
23.21
16.76
11.80
9.21
8.77
9.29
9.26
7.71
4.65
0.99
-2.05
-3.71
-4.00
-3.73
-4.00
-5.74
-9.26
-14.20
-19.68
-24.59
-28.02
-29.48
-29.11
-27.53
-25.60
-24.09
-23.45
-23.82
-25.11
-27.05
-29.14
-30.73
-31.03
-29.40
-25.63
-20.07
-13.50
-6.73
-0.30
5.73
11.59
17.51
23.44
28.95
33.42
36.34
37.51
37.06
35.44
33.25
31.14
29.75
29.56
30.75
33.16
36.19
38.97
40.59
40.38
38.09
33.92
28.40
22.23
16.10
10.67
6.51
3.97
3.08
3.32
3.77
3.34
1.29
-2.43
-7.18
-11.92
-15.81
-18.64
-20.80
-23.01
-25.86
-29.49
-33.65
-37.88
-41.70
-44.61
-46.11
-45.61
-42.62
-37.04
-29.30
-20.27
-11.01
-2.36
5.15
11.40
16.45
20.43
23.47
25.75
27.57
29.27
31.11
33.18
35.36
37.46
39.26
40.61
41.41
41.56
40.92
39.40
37.08
34.22
31.26
28.63
26.60
25.09
23.78
22.26
20.24
17.70
14.95
12.35
10.14
8.23
6.24
3.80
0.75
-2.74
-6.30
-9.61
-12.66
-15.68
-18.97
-22.67
-26.63
-30.53
-34.14
-37.42
-40.56
-43.64
-46.51
-48.61
-49.21
-47.73
-43.96
-38.14
-30.77
-22.58
-14.31
-6.66
-0.29
4.31
6.87
7.47
6.55
4.86
3.24
2.46
2.96
4.76
7.46
10.44
13.09
14.95
15.87
15.82
14.88
13.15
10.83
8.27
6.00
4.50
3.91
3.95
3.97
3.27
1.38
-1.68
-5.52
-9.51
-12.99
-15.42
-16.39
-15.70
-13.53
-10.40
-7.12
-4.49
-3.14
-3.34
-5.07
-8.06
-11.84
-15.79
-19.19
-21.42
-22.07
-21.04
-18.45
-14.56
-9.73
-4.23
1.68
7.90
14.48
21.45
28.59
35.17
40.01
41.86
40.00
34.83
27.71
20.35
13.96
8.67
3.80
-1.41
-7.10
-12.62
-17.01
-19.55
-20.11
-18.96
-16.45
-12.84
-8.49
-4.26
-1.55
-1.88
-5.93
-12.88
-20.54
-26.18
-27.93
-25.66
-21.04
-16.64
-14.63
-15.87
-19.77
-24.81
-29.30
-32.11
-32.78
-31.31
-27.87
-22.67
-15.94
-8.07
0.34
8.62
16.09
22.28
27.01
30.35
32.61
34.14
35.18
35.80
35.82
34.94
32.94
29.87
26.07
22.15
18.66
15.94
14.08
12.93
12.38
12.41
13.05
14.19
15.49
16.43
16.52
15.56
13.75
11.52
9.30
7.21
5.07
2.54
-0.66
-4.59
-9.12
-14.11
-19.53
-25.42
-31.75
-38.15
-43.90
-47.99
-49.43
-47.68
-42.87
-35.86
-27.98
-20.66
-14.85
-10.84
-8.21
-6.15
-3.83
-0.75
3.16
7.53
11.83
15.54
18.23
19.68
19.82
18.74
16.69
14.11
11.60
9.85
9.46
10.70
13.37
16.71
19.57
20.83
19.72
16.25
11.13
5.51
0.57
-2.97
-4.97
-5.75
-5.80
-5.44
-4.75
-3.67
-2.18
-0.59
0.54
0.46
-1.48
-5.58
-11.72
-19.30
-27.40
-34.84
-40.43
-43.10
-42.18
-37.59
-29.95
-20.48
-10.69
-1.97
4.87
9.63
12.68
14.66
16.20
17.77
19.65
21.98
24.78
27.88
30.77
32.76
33.07
31.25
27.45
22.40
17.21
13.00
10.45
9.67
10.22
11.41
12.49
12.93
12.47
11.09
8.96
6.33
3.47
0.68
-1.83
-3.87
-5.35
-6.34
-7.11
-8.02
-9.47
-11.79
-15.13
-19.46
-24.59
-30.17
-35.70
-40.54
-43.96
-45.30
-44.19
-40.75
-35.68
-29.99
-24.71
-20.45
-17.18
-14.30
-10.97
-6.53
-0.80
5.76
12.28
17.78
21.55
23.36
23.47
22.41
20.74
18.93
17.26
15.97
15.28
15.42
16.45
18.15
19.97
21.15
21.02
19.24
16.04
12.06
8.14
4.87
2.40
0.43
-1.57
-3.91
-6.42
-8.43
-9.13
-8.11
-5.77
-3.35
-2.46
-4.42
-9.56
-17.12
-25.58
-33.26
-38.96
-42.16
-42.89
-41.45
-38.09
-33.02
-26.62
-19.53
-12.69
-6.99
-2.95
-0.40
1.42
3.56
6.79
11.27
16.47
21.39
25.00
26.68
26.38
24.61
22.16
19.80
18.03
17.02
16.68
16.89
17.53
18.57
19.96
21.51
22.87
23.49
22.89
20.81
17.45
13.47
9.78
7.22
6.22
6.62
7.76
8.80
9.12
8.60
7.44
5.87
3.71
0.24
-5.64
-14.81
-27.40
-42.47
-58.21
-72.57
-83.75
-90.58
-92.45
-88.95
-79.81
-65.18
-46.16
-25.20
-5.91
8.03
14.26
12.77
6.05
-1.99
-7.67
-9.15
-6.87
-3.02
-0.07
0.51
-1.11
-3.41
-4.46
-2.92
1.40
7.67
14.54
20.74
25.60
28.97
31.02
31.80
31.02
28.10
22.61
14.78
5.88
-2.07
-7.08
-8.07
-5.50
-1.12
3.01
5.56
6.57
7.16
8.52
11.02
13.79
15.24
13.96
9.55
2.77
-4.94
-12.15
-17.91
-21.77
-23.50
-22.82
-19.52
-13.65
-5.91
2.38
9.59
14.40
16.43
16.32
15.46
15.27
16.49
18.85
21.35
22.89
22.92
21.81
20.67
20.72
22.63
26.12
30.07
33.01
33.83
32.23
28.81
24.72
21.20
19.10
18.61
19.27
20.26
20.75
20.17
18.41
15.80
12.92
10.33
8.33
6.81
5.35
3.41
0.53
-3.51
-8.62
-14.41
-20.30
-25.54
-29.52
-32.23
-34.75
-39.48
-49.87
-69.62
-101.64
-146.90
-203.62
-267.02
-329.78
-383.35
-420.05
-434.99
-427.63
-401.73
-363.92
-321.27
-279.02
-239.51
-202.36
-165.95
-128.67
-89.69
-49.08
-7.64
33.05
70.50
101.69
123.95
136.19
139.81
138.43
136.42
137.22
142.22
151.16
163.62
180.21
202.57
232.02
267.54
304.95
337.88
360.32
369.35
366.54
357.30
348.54
345.83
351.39
363.50
377.63
388.36
391.43
385.19
370.79
351.32
330.10
308.89
287.10
262.17
231.21
192.92
148.56
101.30
54.84
11.58
-28.29
-66.43
-105.22
-146.81
-192.64
-243.41
-298.88
-357.08
-413.55
-461.29
-492.52
-501.19
-485.14
-446.81
-392.20
-328.61
-262.52
-198.62
-139.82
-88.76
-48.15
-20.37
-6.54
-6.09
-16.90
-35.89
-59.76
-84.75
-107.43
-124.59
-132.60
-127.60
-106.49
-68.23
-14.97
47.64
111.77
167.90
207.45
225.33
221.63
200.90
169.99
135.50
98.73
63.69
35.03
15.39
4.18
-0.30
0.46
5.10
11.90
18.69
23.91
25.92
23.79
17.28
7.84
-2.55
-12.13
-20.43
-28.17
-36.48
-47.21
-62.21
-83.42
-110.41
-140.30
-168.10
-187.83
-194.17
-184.06
-158.56
-116.65
-64.58
-10.78
37.23
75.18
102.67
122.18
137.07
149.42
159.25
164.11
161.67
150.68
131.11
103.85
70.11
30.83
-13.71
-63.63
-119.43
-179.77
-240.67
-295.74
-337.30
-358.79
-357.11
-334.02
-295.72
-251.10
-208.04
-171.01
-140.62
-114.51
-89.35
-62.49
-32.82
-0.41
34.15
70.38
107.87
145.47
180.93
211.11
233.07
245.66
250.30
250.60
250.80
253.71
259.33
265.38
269.07
269.24
267.16
265.39
265.51
266.08
262.60
249.36
222.39
181.72
131.81
80.38
36.10
6.18
-5.37
1.24
21.35
47.13
70.31
85.51
92.96
98.29
109.50
131.85
164.30
199.31
226.41
237.34
229.74
207.29
176.49
142.84
108.41
72.58
34.35
-5.18
-42.54
-73.72
-96.66
-113.25
-129.14
-152.22
-189.46
-243.67
-311.44
-383.29
-446.38
-488.78
-504.06
-492.88
-462.57
-423.31
-383.61
-347.47
-314.25
-280.73
-243.65
-201.34
-152.63
-97.60
-37.26
25.54
85.22
134.01
164.21
171.14
154.30
118.62
70.28
15.13
-42.22
-97.65
-146.25
-181.93
-199.06
-195.32
-171.25
-132.55
-86.55
-39.09
7.67
54.76
104.15
159.07
208.31
245.48
263.38
258.75
234.20
197.34
157.46
121.66
92.32
66.84
42.56
17.47
-7.21
-27.86
-41.39
-47.94
-51.53
-58.10
-72.37
-93.41
-116.05
-132.45
-136.22
-125.68
-104.92
-82.29
-67.10
-66.54
-82.27
-111.01
-144.92
-173.91
-188.80
-184.67
-162.98
-131.54
-101.89
-84.38
-84.43
-100.39
-124.67
-147.51
-161.03
-161.81
-150.80
-131.39
-106.91
-79.40
-49.55
-17.49
16.67
52.94
92.14
135.82
185.04
238.40
290.67
333.20
356.72
355.32
329.49
286.57
238.14
195.72
166.91
154.02
155.05
166.10
183.23
203.24
223.57
242.53
260.27
279.79
306.75
347.16
403.70
472.72
543.76
602.75
637.46
642.39
620.43
580.43
532.28
482.34
431.79
378.19
318.77
253.16
184.00
115.49
50.84
-9.43
-67.63
-126.85
-188.90
-252.99
-315.95
-373.74
-423.31
-463.76
-496.20
-522.62
-543.60
-557.69
-562.36
-556.04
-539.80
-517.82
-496.31
-481.15
-476.13
-480.27
-488.69
-495.37
-495.99
-489.33
-476.78
-460.93
-444.10
-428.25
-413.00
-396.87
-379.13
-360.60
-342.64
-325.47
-307.37
-285.35
-257.52
-221.52
-175.50
-119.20
-54.04
18.00
95.23
176.65
267.91
361.68
443.71
501.79
531.55
534.44
514.18
475.74
425.90
372.57
321.54
277.05
240.42
210.14
183.69
160.33
141.98
131.58
129.92
133.05
135.23
131.52
120.18
103.40
86.41
74.72
71.47
75.32
80.67
81.72
75.36
62.58
47.62
36.40
33.54
41.56
60.16
86.45
116.72
146.91
172.74
189.97
195.56
188.15
170.37
148.20
128.74
117.50
116.35
123.05
132.90
141.64
146.07
146.26
144.23
141.94
139.80
136.16
127.88
110.86
90.20
68.26
47.44
29.55
15.03
2.78
-9.43
-24.01
-42.40
-64.18
-88.27
-112.08
-132.67
-148.20
-158.65
-165.77
-172.32
-181.68
-196.04
-216.46
-241.29
-266.44
-285.78
-291.64
-276.46
-235.48
-169.98
-87.91
-3.30
68.17
114.02
129.52
119.43
95.68
72.03
57.00
52.94
57.26
66.30
77.79
91.84
109.74
131.66
154.94
171.08
173.55
162.08
142.59
122.72
107.46
97.36
89.26
78.65
54.24
10.60
-47.86
-109.67
-164.15
-205.90
-234.64
-253.15
-265.35
-287.59
-330.05
-390.26
-455.85
-514.94
-561.72
-595.77
-619.55
-636.52
-666.69
-723.04
-803.25
-892.85
-978.58
-1054.78
-1122.19
-1184.37
-1140.59
-947.13
-642.82
-318.64
-43.73
160.46
302.64
399.98
467.49
515.34
533.19
514.94
468.34
412.60
364.44
331.79
315.13
310.79
313.92
307.32
279.90
230.07
171.67
118.04
77.90
56.77
57.76
81.05
114.39
143.91
159.90
159.41
142.87
113.87
79.59
48.38
26.67
12.77
2.40
-7.33
-15.58
-19.67
-20.41
-18.22
-14.07
-9.49
-7.72
-10.74
-17.80
-25.68
-30.76
-30.92
-25.65
-16.51
-6.22
2.55
8.36
11.30
12.85
14.96
18.99
25.50
33.79
42.36
49.59
54.46
56.71
56.78
55.95
55.12
54.74
54.47
53.64
51.73
48.59
44.55
40.33
38.61
41.42
49.69
62.93
79.95
99.43
120.19
141.20
161.79
185.30
214.22
248.95
287.67
327.65
366.53
403.08
437.31
470.31
509.08
557.75
615.14
674.91
728.84
770.06
794.30
799.43
784.47
755.98
718.27
672.53
618.62
558.97
500.06
449.88
413.86
347.70
228.97
62.12
-124.25
-298.39
-441.15
-547.15
-619.80
-666.71
-696.21
-708.07
-702.23
-681.13
-650.34
-616.32
-584.00
-556.45
-535.41
-520.40
-504.60
-483.03
-454.54
-422.03
-390.01
-362.19
-340.88
-326.64
-318.96
-313.19
-305.54
-294.38
-280.41
-265.09
-249.00
-234.62
-222.52
-212.50
-202.40
-190.52
-176.32
-160.47
-144.21
-128.56
-114.30
-101.48
-90.05
-79.27
-68.48
-57.25
-45.50
-33.28
-20.71
-8.03
4.67
17.14
29.08
40.42
51.41
62.59
74.55
87.72
102.07
117.37
133.12
148.78
164.13
179.35
194.89
211.35
229.32
249.26
271.42
295.45
320.05
342.88
360.95
371.36
372.23
363.15
345.19
320.21
290.13
256.54
220.94
185.16
151.72
123.50
102.91
91.01
87.04
88.60
92.60
96.21
97.63
96.48
93.56
90.27
87.86
86.75
86.20
84.24
78.20
65.62
45.42
18.79
-10.60
-37.42
-56.41
-64.14
-60.30
-47.70
-31.13
-15.77
-5.76
-3.39
-9.08
-21.74
-39.07
-58.07
-75.48
-88.56
-95.77
-97.20
-94.37
-89.44
-84.36
-80.31
-77.64
-76.15
-75.55
-75.57
-76.02
-76.73
-77.52
-78.26
-78.75
-78.66
-77.40
-74.22
-68.53
-60.27
-50.20
-39.85
-31.06
-25.41
-23.50
-24.40
-25.66
-23.81
-15.62
0.51
23.34
48.71
70.67
83.61
84.45
73.88
56.01
36.57
20.63
10.82
6.92
6.75
7.66
7.85
6.82
4.99
3.02
1.21
-0.52
-2.33
-4.07
-5.20
-5.12
-3.68
-1.54
-0.06
-0.73
-4.47
-11.09
-19.34
-27.35
-33.48
-36.92
-37.92
-37.56
-37.23
-38.08
-40.59
-44.44
-48.66
-51.92
-52.87
-50.58
-44.76
-35.91
-25.27
-14.49
-5.18
1.49
5.14
6.23
5.78
5.00
4.85
5.90
8.22
11.56
15.57
19.88
24.16
28.02
31.02
32.72
32.84
31.44
28.87
25.73
22.61
19.87
17.54
15.48
13.51
11.54
9.60
7.78
6.07
4.31
2.29
-0.18
-3.05
-6.04
-8.68
-10.59
-11.67
-12.14
-12.57
-13.52
-15.34
-17.99
-21.03
-23.86
-25.87
-26.59
-25.76
-23.30
-19.35
-14.30
-8.76
-3.43
1.21
5.08
8.53
12.13
16.20
20.58
24.59
27.36
28.29
27.36
25.18
22.62
20.47
19.02
18.14
17.34
16.08
14.07
11.33
8.13
4.88
1.93
-0.48
-2.21
-3.10
-2.99
-1.79
0.24
2.41
3.66
2.91
-0.47
-6.26
-13.32
-19.95
-24.51
-26.04
-24.63
-21.33
-17.66
-14.98
-14.07
-14.88
-16.80
-18.94
-20.47
-20.76
-19.37
-15.97
-10.46
-3.14
5.06
12.65
17.99
19.83
17.95
13.22
7.39
2.35
-0.63
-1.28
-0.36
1.03
2.04
2.59
3.16
4.39
6.31
8.15
8.61
6.66
2.31
-3.19
-7.76
-9.49
-7.59
-2.68
3.61
9.54
13.98
16.73
18.17
18.69
18.25
16.51
13.15
8.37
2.99
-1.90
-5.43
-7.45
-8.52
-9.59
-11.48
-14.51
-18.40
-22.54
-26.22
-28.80
-29.75
-28.64
-25.23
-19.67
-12.66
-5.45
0.44
3.70
3.70
0.71
-4.23
-9.53
-13.52
-14.74
-12.29
-5.98
3.55
14.92
26.36
36.17
43.21
47.15
48.40
47.74
45.94
43.40
40.17
36.16
31.43
26.38
21.60
17.59
14.45
11.70
8.61
4.53
-0.62
-6.25
-11.28
-14.73
-16.20
-16.10
-15.52
-15.65
-17.30
-20.52
-24.76
-29.15
-33.00
-36.04
-38.31
-39.95
-40.87
-40.71
-39.03
-35.61
-30.81
-25.43
-20.49
-16.69
-14.17
-12.54
-11.18
-9.64
-7.94
-6.49
-5.73
-5.79
-6.30
-6.50
-5.63
-3.41
-0.17
3.20
5.64
6.38
5.20
2.56
-0.65
-3.44
-5.04
-5.18
-4.15
-2.62
-1.45
-1.31
-2.42
-4.47
-6.73
-8.40
-8.91
-8.12
-6.40
-4.42
-2.98
-2.78
-4.34
-7.89
-13.24
-19.73
-26.29
-31.69
-34.86
-35.23
-32.95
-28.80
-23.84
-19.05
-15.02
-11.91
-9.59
-7.85
-6.61
-5.84
-5.44
-5.08
-4.10
-1.71
2.64
8.83
15.87
22.15
25.94
26.17
22.86
17.18
11.10
6.70
5.60
8.54
15.34
24.97
35.79
45.85
53.30
56.72
55.51
49.92
40.85
29.50
16.95
4.04
-8.60
-20.45
-31.03
-39.84
-46.51
-50.86
-52.86
-52.77
-51.15
-48.77
-46.26
-43.61
-39.78
-32.89
-21.01
-3.30
19.10
43.04
64.55
80.12
88.13
89.32
86.48
83.73
85.98
98.39
125.62
170.23
230.76
300.61
368.83
423.04
453.50
456.42
434.78
396.42
350.38
303.53
259.10
217.31
177.28
138.64
101.78
67.05
33.63
-0.56
-37.61
-77.68
-117.94
-153.00
-176.78
-184.97
-176.80
-155.33
-126.51
-97.37
-74.29
-61.58
-60.72
-70.23
-86.10
-103.10
-116.73
-124.74
-127.91
-129.36
-132.80
-140.60
-153.31
-170.21
-190.17
-211.95
-233.56
-251.64
-262.14
-262.43
-253.21
-239.10
-226.50
-219.61
-217.12
-211.93
-194.68
-159.34
-107.60
-49.15
2.41
35.76
46.67
38.49
18.69
-6.39
-34.77
-68.12
-108.46
-154.19
-198.93
-233.64
-250.93
-248.40
-229.38
-200.48
-168.03
-135.84
-105.23
-76.85
-51.95
-32.87
-21.54
-18.04
-20.06
-23.75
-25.44
-23.22
-17.49
-10.03
-3.08
1.81
3.97
3.11
-1.49
-11.02
-26.20
-46.49
-68.35
-86.25
-94.51
-90.33
-75.85
-58.15
-45.91
-44.68
-54.48
-68.01
-75.32
-69.08
-48.65
-20.10
6.74
24.11
30.43
29.46
30.26
41.56
68.06
110.19
165.85
231.66
305.09
384.60
467.88
555.38
631.82
677.15
677.37
634.39
562.10
477.39
406.72
350.78
296.12
242.80
192.24
145.77
105.88
74.52
54.53
44.15
38.74
35.08
30.89
23.14
10.72
-4.67
-23.08
-39.31
-50.70
-57.17
-58.09
-52.36
-40.54
-30.34
-19.86
-7.85
5.22
16.53
22.10
19.05
13.62
8.19
4.42
4.35
7.69
13.13
18.52
22.12
23.89
25.05
25.53
25.04
23.64
19.83
11.90
-1.68
-21.27
-45.83
-73.61
-104.07
-137.07
-172.26
-209.76
-249.29
-290.46
-333.03
-377.40
-424.18
-473.35
-522.12
-564.22
-591.87
-598.30
-580.58
-540.63
-484.15
-417.99
-348.41
-280.26
-218.05
-167.48
-135.21
-126.47
-141.90
-175.65
-216.42
-251.46
-271.13
-271.89
-255.98
-228.87
-195.54
-158.51
-117.99
-73.80
-27.16
18.66
59.71
93.40
119.96
142.73
166.90
197.53
237.31
285.16
335.71
380.18
408.59
412.91
389.51
340.04
270.83
190.62
107.91
28.81
-43.79
-109.25
-167.39
-216.65
-253.55
-273.78
-274.47
-256.26
-223.84
-184.64
-145.68
-110.66
-78.34
-43.65
-0.33
56.08
126.36
206.90
290.41
367.63
429.33
469.05
485.46
483.27
471.41
459.55
453.82
454.06
454.21
445.63
421.55
380.38
326.16
266.35
208.75
158.82
119.06
89.81
70.80
61.88
63.08
73.47
90.16
108.22
121.70
125.44
116.55
95.13
64.21
28.97
-3.93
-27.19
-33.80
-18.63
19.68
77.44
146.03
214.01
270.38
307.79
324.17
322.09
306.51
282.24
252.51
219.20
184.07
149.82
120.03
97.75
83.84
75.86
68.66
56.52
35.69
6.16
-28.33
-62.27
-90.94
-112.86
-130.39
-148.51
-172.66
-206.73
-252.11
-307.86
-370.79
-435.44
-493.88
-536.60
-555.24
-546.75
-516.57
-478.17
-448.19
-439.04
-452.80
-480.12
-505.03
-512.82
-496.75
-459.81
-411.22
-360.13
-310.72
-261.62
-209.50
-153.75
-98.92
-53.59
-25.61
-17.45
-24.44
-37.21
-46.80
-49.61
-48.70
-50.70
-60.41
-76.91
-93.95
-104.26
-104.58
-97.63
-89.93
-86.86
-88.77
-90.91
-86.70
-72.17
-48.38
-20.23
6.86
30.30
51.41
74.17
102.59
138.30
179.22
219.55
251.20
265.70
256.69
222.32
166.31
96.89
24.34
-42.07
-96.23
-135.47
-159.86
-170.88
-170.64
-161.79
-147.54
-131.45
-117.12
-107.39
-103.63
-105.45
-110.63
-115.81
-117.62
-114.13
-105.78
-95.39
-87.12
-84.39
-87.99
-95.35
-101.44
-100.98
-90.86
-71.31
-45.54
-18.00
7.79
30.91
53.08
77.31
105.87
138.81
173.72
206.85
234.58
254.24
264.03
262.49
248.38
221.46
184.01
141.64
102.60
75.46
66.01
75.40
100.41
135.42
175.23
217.33
261.94
310.68
364.38
421.15
475.82
521.14
550.30
559.70
550.51
528.05
499.33
469.86
441.57
412.85
380.58
342.76
300.05
255.45
212.38
172.64
135.29
97.16
54.66
6.07
-47.04
-99.71
-145.52
-179.15
-198.35
-204.71
-202.91
-198.51
-196.17
-198.41
-205.32
-215.58
-227.64
-240.57
-253.96
-267.28
-279.33
-288.24
-292.20
-290.68
-285.23
-278.92
-274.74
-273.54
-272.86
-268.05
-255.17
-234.19
-210.02
-190.61
-182.80
-188.46
-203.20
-218.43
-225.33
-218.52
-197.56
-165.82
-127.97
-87.48
-45.65
-2.22
43.42
91.02
138.73
183.18
220.48
247.62
263.47
268.93
266.16
257.10
242.28
220.69
191.07
153.43
110.29
66.20
26.26
-5.77
-28.46
-42.52
-49.77
-52.09
-50.80
-46.71
-40.42
-32.39
-23.11
-13.17
-3.61
3.83
6.86
3.43
-7.17
-23.50
-41.96
-58.01
-67.76
-69.41
-63.77
-53.82
-43.64
-36.98
-36.11
-41.09
-49.71
-58.31
-63.00
-61.03
-51.73
-36.52
-18.13
0.53
17.55
32.12
44.19
53.70
60.22
62.96
61.28
55.21
45.66
34.40
23.65
15.57
11.73
12.43
16.56
21.83
25.69
26.48
24.37
21.25
19.90
22.37
28.90
37.63
45.32
48.22
42.91
27.05
0.11
-35.69
-74.99
-109.97
-132.46
-136.80
-121.81
-91.21
-51.58
-9.27
32.06
72.26
113.60
158.94
209.99
266.30
325.03
381.23
428.57
460.60
472.46
462.40
432.33
386.90
331.99
273.03
214.19
158.39
107.71
63.42
25.54
-7.61
-39.50
-74.52
-116.68
-168.10
-227.68
-290.66
-349.08
-393.94
-418.06
-418.93
-399.95
-369.22
-336.18
-307.65
-285.45
-266.84
-247.43
-224.48
-198.47
-172.27
-148.78
-128.93
-111.21
-93.02
-72.41
-49.05
-24.03
0.97
24.35
44.67
60.78
71.97
78.53
81.99
84.53
87.69
91.24
93.37
92.16
87.41
81.28
77.11
77.18
81.05
85.73
87.60
84.78
78.29
71.13
66.12
64.05
63.46
61.95
57.94
51.76
45.31
40.83
39.60
41.44
44.95
48.30
49.65
47.41
40.32
27.58
8.98
-15.00
-43.33
-74.43
-106.07
-135.27
-158.45
-172.11
-173.98
-163.94
-144.16
-118.29
-89.98
-61.80
-35.06
-10.35
11.40
28.60
39.37
42.75
39.61
32.76
25.91
22.05
22.19
25.05
28.05
28.82
26.59
22.26
17.66
14.17
11.82
9.60
6.45
2.33
-1.55
-3.46
-2.26
1.95
8.05
14.58
20.58
25.69
30.02
33.70
36.77
39.17
40.69
40.84
38.90
34.27
27.07
18.66
11.39
7.74
9.10
15.19
24.44
34.91
45.29
54.90
63.14
69.02
71.10
68.32
60.68
49.54
36.91
24.61
13.73
4.71
-2.14
-6.32
-7.40
-5.57
-1.99
1.47
3.09
2.07
-1.15
-5.26
-8.78
-10.71
-10.72
-9.06
-6.42
-3.78
-2.27
-2.74
-5.47
-9.78
-14.17
-16.87
-16.53
-12.72
-6.23
1.29
7.80
11.50
11.23
6.75
-1.28
-11.50
-22.17
-31.51
-37.99
-40.62
-39.04
-33.66
-25.46
-15.76
-5.72
4.07
13.69
23.50
33.44
42.46
48.55
49.66
44.92
35.60
25.04
17.38
15.86
21.36
32.02
43.97
52.76
54.79
48.42
34.29
14.88
-6.20
-25.27
-39.42
-47.04
-47.89
-42.80
-33.36
-21.60
-9.91
-0.64
4.36
4.43
0.65
-4.45
-7.73
-6.88
-1.47
6.75
14.69
19.30
18.90
13.92
6.52
-0.54
-5.16
-6.63
-5.56
-2.94
0.64
5.51
12.38
21.25
30.67
37.73
39.05
32.38
17.74
-2.39
-23.83
-42.20
-54.27
-58.71
-56.11
-48.58
-38.91
-29.86
-23.47
-20.73
-21.43
-24.43
-28.00
-30.16
-28.93
-22.79
-11.23
4.57
21.74
36.77
47.25
53.80
60.86
75.59
104.92
151.97
213.77
281.50
343.18
387.83
408.79
405.14
380.77
341.97
294.91
244.21
192.76
142.35
94.50
50.58
11.40
-23.59
-56.71
-91.49
-131.17
-176.92
-226.81
-275.90
-317.84
-347.40
-361.96
-362.19
-351.25
-333.18
-311.51
-288.56
-265.43
-242.72
-220.96
-200.63
-181.84
-163.99
-145.99
-126.89
-106.52
-85.66
-65.64
-47.94
-33.60
-23.23
-17.00
-14.67
-15.57
-18.24
-20.44
-19.57
-13.52
-1.67
14.56
32.19
47.97
59.41
65.48
66.39
62.91
55.86
46.14
34.78
23.22
13.04
5.42
0.73
-1.59
-2.61
-3.24
-3.72
-3.54
-1.98
1.27
5.43
8.71
8.89
4.42
-4.81
-17.23
-30.21
-41.23
-48.86
-53.07
-54.60
-54.04
-51.27
-45.58
-36.71
-25.66
-14.72
-6.57
-2.92
-3.43
-5.81
-6.77
-3.45
5.45
19.31
35.96
52.38
65.61
73.27
73.91
67.34
54.68
38.24
21.10
6.44
-3.30
-6.90
-4.61
1.90
10.12
17.38
21.51
21.46
17.57
11.46
5.73
3.23
6.09
15.14
29.42
46.18
61.55
71.23
71.55
60.55
38.90
10.13
-19.91
-44.70
-58.99
-60.50
-50.60
-33.48
-14.47
1.88
13.03
18.60
19.74
18.49
17.23
18.11
22.48
30.20
39.24
46.14
47.38
40.87
27.03
8.77
-9.78
-24.80
-34.06
-37.29
-35.55
-30.33
-23.06
-14.86
-6.69
0.67
6.85
11.99
16.44
20.23
22.70
22.72
19.40
12.83
4.25
-4.58
-12.38
-18.98
-25.02
-30.97
-36.19
-38.96
-37.65
-32.24
-24.66
-18.00
-14.53
-14.21
-14.85
-13.57
-8.89
-1.65
5.46
9.73
9.95
7.03
3.31
1.17
1.91
5.40
10.64
16.50
22.32
27.73
32.35
35.49
36.23
33.90
28.67
21.73
14.93
9.97
7.72
7.96
9.75
12.04
14.24
16.21
17.85
18.74
18.13
15.38
10.54
4.63
-0.74
-4.22
-5.57
-5.95
-7.49
-12.26
-21.01
-32.52
-43.80
-51.27
-52.35
-46.56
-35.73
-22.89
-10.93
-1.68
4.40
7.74
9.07
9.06
8.31
7.46
7.12
7.79
9.57
12.30
15.46
18.36
20.28
20.62
19.00
15.25
9.16
0.29
-12.03
-28.28
-47.94
-68.93
-87.56
-99.40
-100.67
-89.87
-68.71
-41.79
-15.29
5.28
17.13
21.20
21.69
24.06
32.52
48.20
69.40
93.16
117.50
142.57
169.89
200.73
234.43
268.09
297.71
320.00
333.77
340.21
342.10
342.72
344.48
348.22
352.90
356.08
354.74
346.55
330.79
308.45
281.57
252.02
220.71
187.58
152.17
114.46
75.11
35.26
-4.01
-42.25
-79.93
-118.36
-159.13
-203.04
-249.04
-293.78
-332.29
-359.84
-374.10
-376.45
-371.36
-364.37
-359.56
-358.22
-359.08
-359.91
-359.26
-357.09
-354.02
-349.98
-343.33
-331.24
-311.20
-282.79
-248.52
-213.41
-183.36
-162.98
-153.71
-153.42
-157.57
-161.19
-160.98
-156.10
-147.62
-137.01
-124.84
-110.73
-94.29
-76.33
-59.09
-45.32
-36.74
-32.78
-30.80
-27.58
-21.10
-11.53
-0.72
9.23
17.19
23.41
28.84
34.12
39.11
43.08
45.52
46.60
47.17
48.14
49.81
51.76
53.10
53.09
51.49
48.55
44.65
40.12
35.22
30.53
27.01
25.89
28.13
33.98
42.75
52.98
63.01
71.43
77.35
80.49
81.18
80.31
79.09
78.76
80.01
82.61
85.57
87.67
88.31
87.78
86.93
86.29
85.55
83.75
80.24
75.45
71.02
68.84
69.64
72.26
74.16
72.89
67.61
59.52
50.99
43.99
38.97
34.80
29.75
22.69
13.74
4.06
-5.02
-12.70
-19.09
-24.89
-30.79
-37.04
-43.29
-48.79
-52.72
-54.61
-54.35
-52.23
-48.72
-44.30
-39.28
-33.88
-28.24
-22.53
-17.02
-12.08
-8.04
-5.09
-3.17
-1.97
-1.08
-0.16
0.90
1.99
2.95
3.77
4.74
6.48
9.58
14.34
20.48
27.02
32.57
35.58
34.98
30.66
23.77
16.52
11.45
10.42
13.79
20.14
26.85
31.10
30.91
25.56
15.66
2.77
-10.90
-22.87
-30.86
-33.58
-31.31
-26.04
-20.76
-18.14
-19.19
-22.86
-26.71
-28.33
-26.60
-22.02
-16.30
-11.36
-8.44
-7.94
-9.46
-12.07
-14.48
-15.43
-13.94
-9.61
-2.75
5.73
14.63
22.68
28.80
32.08
32.06
28.90
23.63
17.93
13.72
12.29
13.85
17.60
22.14
26.17
28.94
30.27
30.43
30.09
30.15
31.61
35.19
40.79
47.37
53.04
55.91
54.87
50.13
43.02
35.17
27.78
21.25
15.30
9.50
3.58
-2.39
-8.26
-13.95
-19.46
-24.66
-29.22
-32.54
-34.07
-33.48
-30.86
-26.70
-21.79
-17.02
-13.17
-10.69
-9.56
-9.25
-8.91
-7.68
-5.10
-1.33
2.90
6.53
8.59
8.62
6.91
4.39
2.28
1.59
2.70
5.25
8.30
10.88
12.45
13.02
13.09
13.15
13.24
12.92
11.51
8.64
4.68
0.75
-1.68
-1.51
1.48
6.37
11.42
14.73
14.93
11.63
5.43
-2.27
-9.84
-15.69
-18.82
-19.08
-17.38
-15.40
-14.91
-16.82
-20.68
-24.68
-26.67
-25.37
-21.17
-15.96
-12.10
-11.13
-13.11
-16.75
-20.19
-21.78
-20.52
-16.17
-9.07
-0.07
9.65
18.80
26.19
31.10
33.34
33.28
31.63
29.32
27.27
26.37
27.10
29.28
31.86
33.25
32.01
27.63
20.83
13.34
7.12
3.54
2.94
4.60
7.25
9.63
10.91
10.86
9.67
7.70
5.15
1.98
-1.97
-6.81
-12.42
-18.46
-24.54
-30.43
-36.19
-42.11
-48.34
-54.70
-60.53
-64.86
-66.74
-65.66
-61.74
-55.72
-48.61
-41.26
-34.08
-27.01
-19.77
-12.26
-4.66
2.60
9.17
15.11
20.82
26.85
33.47
40.44
47.10
52.73
56.87
59.44
60.63
60.56
59.23
56.63
52.95
48.69
44.52
41.05
38.56
36.93
35.76
34.58
32.86
30.24
26.67
22.67
19.48
18.82
22.23
30.15
41.23
52.34
59.19
57.56
44.54
19.40
-16.07
-57.86
-100.44
-137.86
-165.15
-179.34
-180.11
-169.65
-151.71
-130.46
-109.44
-90.95
-76.08
-64.97
-57.20
-51.98
-48.29
-45.02
-41.20
-36.31
-30.38
-24.00
-18.03
-13.42
-10.69
-9.71
-9.56
-8.54
-4.70
3.36
15.72
30.59
44.68
54.37
57.32
53.60
45.73
37.52
32.31
31.48
34.09
37.56
38.99
36.40
29.33
18.83
6.96
-3.83
-11.42
-14.64
-13.73
-10.22
-6.38
-4.26
-4.88
-8.09
-13.01
-18.71
-24.64
-30.50
-35.87
-39.84
-41.23
-39.23
-34.05
-27.11
-20.51
-16.02
-14.19
-14.04
-13.80
-11.86
-7.56
-1.29
6.13
14.16
22.73
31.87
41.09
49.11
54.52
56.56
55.77
53.77
52.19
51.69
51.58
50.45
47.10
41.29
33.69
25.44
17.65
11.23
6.92
5.15
5.79
7.93
10.20
11.41
11.15
9.91
8.45
7.15
5.58
3.01
-0.88
-5.49
-9.48
-11.57
-11.28
-9.17
-6.48
-4.44
-3.75
-4.41
-5.79
-6.96
-7.03
-5.37
-2.01
2.28
6.08
7.81
6.54
2.55
-2.52
-6.34
-6.91
-3.46
3.31
11.63
19.54
25.63
29.33
30.71
30.02
27.36
22.87
16.98
10.73
5.51
2.55
2.16
3.39
4.40
3.31
-0.77
-7.27
-14.41
-19.98
-22.31
-21.04
-17.04
-11.80
-6.65
-2.30
0.92
2.52
1.64
-2.45
-9.82
-19.41
-29.06
-36.36
-39.74
-39.21
-36.11
-32.11
-27.71
-22.69
-16.76
-10.03
-3.18
2.93
7.53
10.01
9.94
7.96
4.36
-0.92
-7.64
-14.33
-18.47
-17.67
-11.44
-1.64
9.56
18.83
22.75
19.50
10.45
0.35
-4.07
3.53
27.87
72.90
138.26
218.20
302.38
378.92
437.55
472.20
481.72
454.82
391.10
302.48
209.11
128.56
68.59
28.06
3.56
-12.46
-25.37
-36.56
-46.98
-58.54
-74.02
-94.11
-118.28
-145.07
-173.41
-202.62
-231.24
-259.17
-287.62
-317.84
-349.03
-377.38
-396.83
-401.66
-388.47
-356.80
-310.37
-255.70
-199.71
-147.32
-100.86
-60.76
-27.26
-1.02
17.56
28.44
32.68
32.41
30.38
28.82
28.80
29.91
30.95
30.88
29.20
26.01
21.69
16.50
10.31
2.78
-6.39
-16.88
-27.61
-36.90
-43.11
-45.36
-44.04
-40.72
-37.40
-35.56
-35.44
-35.98
-35.50
-32.65
-27.06
-19.36
-10.60
-1.60
7.36
16.27
24.97
32.83
38.98
42.77
44.33
44.48
44.30
44.45
44.80
44.55
42.79
39.22
34.46
29.93
27.25
27.62
31.28
37.53
44.88
51.64
56.36
58.14
56.78
52.65
46.48
39.18
31.63
24.65
18.85
14.70
12.37
11.76
12.50
14.03
15.64
16.53
15.89
13.06
7.83
0.62
-7.42
-14.65
-19.38
-20.43
-17.46
-11.09
-2.59
6.59
15.25
22.70
28.71
33.29
36.51
38.32
38.74
38.02
36.72
35.57
35.20
35.76
36.85
37.79
38.00
37.34
36.17
35.03
34.18
33.32
31.64
28.17
22.35
14.30
4.87
-4.69
-13.07
-19.35
-23.15
-24.69
-24.64
-23.95
-23.54
-24.04
-25.62
-27.91
-30.08
-31.12
-30.19
-26.98
-21.77
-15.45
-9.08
-3.54
0.86
4.41
7.86
11.96
17.07
22.86
28.34
32.20
33.34
31.27
26.31
19.49
12.17
5.64
0.73
-2.28
-3.57
-3.69
-3.32
-3.14
-3.65
-5.06
-7.22
-9.66
-11.76
-13.00
-13.23
-12.65
-11.78
-11.18
-11.27
-12.07
-13.35
-14.68
-15.65
-16.02
-15.74
-14.93
-13.76
-12.53
-11.58
-11.41
-12.49
-15.10
-19.07
-23.61
-27.46
-29.28
-28.14
-23.86
-17.10
-9.09
-1.17
5.60
10.77
14.39
16.79
18.23
18.84
18.64
17.70
16.25
14.60
12.98
11.32
9.37
6.83
3.63
0.02
-3.45
-6.18
-7.86
-8.64
-9.30
-11.10
-15.45
-23.42
-35.21
-49.74
-64.63
-76.70
-82.89
-81.21
-71.51
-55.54
-36.44
-17.85
-2.83
6.84
10.89
10.45
7.42
3.90
1.64
1.93
5.41
12.22
21.94
33.70
46.30
58.50
69.57
79.64
89.79
101.39
115.14
130.12
143.72
152.57
154.16
148.39
137.98
127.57
121.84
123.70
133.24
147.94
163.62
175.63
179.86
173.71
156.98
132.66
107.04
88.41
84.28
98.54
129.30
168.95
206.55
231.20
235.50
216.95
178.18
126.01
69.78
19.44
-17.01
-35.68
-38.08
-30.47
-21.24
-17.32
-21.29
-30.72
-40.15
-45.02
-44.60
-42.82
-46.34
-61.01
-88.68
-125.98
-165.83
-200.43
-224.37
-236.09
-237.65
-232.77
-224.28
-212.82
-196.83
-174.48
-145.18
-110.85
-75.61
-44.29
-21.24
-9.32
-10.03
-23.80
-49.78
-85.38
-126.10
-166.40
-201.69
-230.16
-253.01
-273.29
-293.45
-313.61
-331.32
-343.18
-346.86
-342.17
-330.77
-314.90
-296.54
-277.22
-258.43
-241.67
-227.85
-216.28
-204.24
-187.88
-163.87
-131.03
-90.69
-45.87
0.27
45.62
89.63
133.03
177.56
225.65
279.80
341.33
408.76
476.57
535.58
575.28
587.51
569.54
524.94
462.07
390.64
318.35
249.19
183.73
120.44
57.18
-7.65
-74.41
-141.60
-205.80
-262.11
-305.55
-332.64
-342.58
-336.73
-317.77
-288.21
-249.84
-204.10
-152.76
-97.94
-41.54
15.76
74.37
134.36
193.56
246.47
285.20
302.22
293.58
260.21
207.44
142.71
73.10
4.15
-60.03
-115.62
-158.69
-185.74
-195.28
-189.05
-172.11
-151.32
-133.14
-121.47
-116.87
-117.03
-118.38
-117.80
-113.67
-106.10
-96.25
-85.50
-74.88
-64.68
-55.00
-46.07
-38.44
-33.10
-31.17
-33.48
-39.92
-49.39
-60.13
-70.47
-79.32
-86.13
-90.53
-91.85
-89.07
-81.51
-69.38
-54.23
-38.34
-23.66
-10.91
0.49
11.56
22.52
32.23
38.56
39.87
36.09
29.00
21.18
14.77
11.01
10.34
13.10
20.16
32.58
50.86
73.97
99.18
122.71
141.05
152.08
155.54
152.80
146.13
137.81
129.60
122.49
116.59
111.32
105.65
98.60
89.73
79.34
68.23
57.34
47.29
38.43
30.91
25.10
21.55
20.71
22.35
25.34
27.97
28.85
27.69
25.62
24.68
26.54
31.54
38.32
44.39
47.41
46.22
41.26
34.11
26.60
20.04
15.05
11.77
10.25
10.63
13.06
17.29
22.51
27.47
30.81
31.50
29.25
24.54
18.46
12.34
7.26
3.78
1.80
0.70
-0.38
-2.20
-5.14
-9.17
-13.95
-19.07
-24.04
-28.37
-31.48
-32.82
-32.05
-29.19
-24.68
-19.27
-13.73
-8.47
-3.58
1.13
5.88
10.66
15.18
19.06
21.97
23.86
25.01
25.82
26.70
27.83
29.13
30.37
31.40
32.21
32.95
33.86
35.07
36.50
37.94
39.08
39.60
39.19
37.69
35.20
32.22
29.59
28.20
28.44
29.89
31.32
31.11
27.78
20.52
9.33
-5.09
-21.59
-38.71
-54.85
-68.49
-78.46
-84.26
-86.20
-85.17
-82.17
-77.83
-72.28
-65.42
-57.48
-49.22
-41.84
-36.42
-33.29
-31.83
-30.63
-28.21
-23.70
-17.16
-9.50
-1.84
5.01
10.95
16.37
21.77
27.39
33.06
38.52
43.72
48.95
54.61
60.91
67.52
73.75
78.92
82.86
86.04
89.39
93.71
99.25
105.60
111.95
117.56
122.21
126.18
130.12
134.68
140.15
146.10
151.46
154.41
152.75
144.46
128.12
103.31
70.62
31.64
-11.03
-53.98
-93.49
-126.41
-151.25
-168.84
-181.83
-193.36
-205.24
-216.93
-225.99
-229.65
-226.54
-217.18
-203.35
-186.64
-167.59
-145.95
-122.17
-98.53
-78.89
-67.05
-64.69
-70.57
-80.96
-91.61
-99.42
-103.07
-102.62
-98.60
-91.70
-83.13
-74.85
-69.34
-68.62
-73.08
-81.22
-90.23
-97.05
-99.42
-96.07
-86.58
-71.03
-50.03
-24.96
2.19
29.18
54.18
75.90
93.40
105.65
111.37
109.47
99.90
84.09
64.79
45.08
27.40
12.91
1.72
-6.64
-12.55
-15.94
-16.28
-12.87
-5.52
4.82
15.97
25.03
29.51
28.63
23.90
18.58
16.10
18.27
24.40
31.97
38.21
41.72
43.01
43.83
45.84
49.57
54.35
59.04
62.83
65.63
67.76
69.28
69.72
68.22
64.24
57.93
49.98
41.06
31.38
20.72
9.11
-2.58
-12.60
-19.05
-21.10
-19.69
-17.38
-17.10
-20.45
-26.76
-33.39
-37.25
-36.49
-31.50
-24.43
-17.73
-12.68
-8.76
-4.23
2.67
12.49
24.14
35.26
43.11
45.46
41.26
30.85
15.95
-0.66
-15.86
-26.85
-31.93
-30.87
-24.78
-15.57
-5.39
3.98
11.30
16.13
18.70
19.77
20.28
21.08
22.68
25.22
28.48
32.03
35.24
37.25
37.13
34.21
28.57
21.34
14.44
9.79
8.37
9.56
11.24
10.56
5.04
-6.29
-22.27
-39.77
-54.56
-62.82
-62.56
-54.35
-41.04
-26.55
-14.38
-6.53
-3.19
-3.28
-5.22
-7.58
-9.27
-9.48
-7.53
-2.97
4.11
12.97
22.33
30.71
36.97
40.77
42.64
43.72
45.16
47.54
50.45
52.85
53.62
52.30
49.32
45.59
41.85
38.19
34.10
29.03
23.10
17.29
12.97
11.11
11.83
14.39
17.71
20.89
23.23
24.29
23.83
21.95
19.29
16.76
15.07
14.07
12.77
9.83
4.70
-1.88
-8.02
-11.72
-12.28
-10.88
-10.24
-13.04
-20.32
-30.72
-41.02
-47.66
-48.49
-43.96
-36.91
-31.12
-29.45
-32.37
-37.76
-42.27
-43.13
-39.47
-32.48
-24.28
-16.60
-10.08
-4.44
0.78
5.62
9.75
12.74
14.38
14.70
13.72
11.40
7.91
3.93
0.58
-0.99
-0.49
1.10
1.81
-0.20
-5.54
-13.14
-20.96
-27.16
-31.10
-33.43
-35.25
-37.13
-38.58
-38.39
-35.54
-29.90
-22.32
-14.14
-6.46
0.30
6.28
11.60
15.93
18.58
19.01
17.33
14.49
11.76
10.27
10.40
11.71
13.13
13.31
11.04
5.78
-1.84
-9.87
-15.40
-15.86
-10.25
0.08
11.94
21.86
27.66
29.27
28.28
26.64
25.38
24.35
22.79
20.24
17.03
13.89
11.31
9.08
6.64
3.53
-0.13
-3.89
-7.40
-10.72
-14.20
-18.05
-22.01
-25.33
-27.17
-26.99
-24.91
-21.56
-17.79
-14.29
-11.58
-9.99
-9.64
-10.24
-10.87
-10.19
-6.99
-0.92
7.11
15.28
21.67
25.17
25.93
25.04
23.83
23.02
22.54
21.74
20.04
17.45
14.56
12.28
11.14
11.05
11.32
11.04
9.67
7.31
4.68
2.63
1.68
1.67
1.99
1.99
1.48
0.83
0.58
0.87
1.00
-0.21
-3.60
-8.98
-14.93
-19.48
-21.17
-19.81
-16.37
-12.39
-8.96
-6.51
-4.99
-4.41
-4.96
-6.82
-9.63
-12.28
-13.23
-11.28
-6.21
1.04
8.94
16.13
21.93
26.30
29.53
31.79
33.04
33.03
31.48
28.22
23.31
17.13
10.46
4.20
-1.00
-5.19
-9.05
-13.53
-19.14
-25.51
-31.52
-35.84
-37.70
-37.29
-35.55
-33.36
-30.74
-26.54
-18.81
-5.79
13.09
36.54
61.59
84.61
102.56
114.02
119.68
122.07
124.75
131.02
142.75
159.62
179.14
197.28
209.70
213.10
205.96
188.75
163.34
132.08
97.06
59.63
20.37
-20.86
-64.66
-111.58
-160.95
-209.83
-252.53
-281.71
-290.87
-277.20
-243.21
-196.34
-146.34
-101.77
-67.48
-43.96
-28.72
-18.38
-10.40
-3.62
2.32
7.78
13.57
20.73
29.92
40.77
51.75
60.57
64.97
63.49
56.17
44.51
31.02
18.28
8.18
1.50
-1.82
-1.96
1.32
8.73
20.92
38.05
59.67
85.17
114.38
147.62
185.21
226.36
268.35
306.92
337.62
357.51
366.35
366.17
359.88
349.45
335.14
315.78
289.99
257.47
219.37
177.86
135.10
92.39
50.06
7.77
-34.76
-77.30
-119.18
-159.86
-199.55
-239.40
-280.83
-324.36
-368.47
-409.38
-442.02
-461.95
-467.24
-459.27
-442.15
-421.00
-400.15
-382.08
-367.33
-355.18
-344.39
-333.59
-321.30
-305.97
-286.33
-262.01
-234.09
-204.99
-177.69
-154.60
-136.56
-122.57
-110.35
-97.48
-82.44
-65.09
-46.52
-28.35
-12.04
1.51
12.05
19.78
25.26
29.21
32.50
35.83
39.51
43.25
46.31
47.80
47.25
44.84
41.52
38.71
37.81
39.64
44.11
50.24
56.36
60.79
62.48
61.34
58.15
54.05
49.92
45.94
41.79
37.07
31.83
26.76
22.90
21.12
21.70
24.26
28.02
32.23
36.31
39.83
42.33
43.35
42.58
40.13
36.66
33.19
30.65
29.50
29.52
30.06
30.37
30.06
29.20
28.19
27.44
27.17
27.31
27.64
27.92
27.92
27.41
26.19
24.10
21.18
17.77
14.45
11.74
9.83
8.32
6.37
3.06
-2.11
-8.92
-16.66
-24.51
-32.04
-39.30
-46.54
-53.86
-60.97
-67.34
-72.54
-76.51
-79.58
-82.04
-83.66
-83.58
-80.57
-73.50
-61.80
-45.57
-25.46
-2.34
22.97
50.05
78.82
109.54
142.37
176.91
211.86
245.05
274.07
296.99
313.19
323.35
328.84
330.70
328.77
321.73
307.96
286.87
259.68
229.38
199.86
174.80
156.78
146.90
144.96
149.70
158.89
169.48
177.88
180.49
174.52
158.69
133.67
101.95
67.15
33.13
3.08
-21.13
-39.35
-53.25
-65.87
-80.64
-100.00
-124.13
-150.61
-175.39
-194.68
-206.78
-212.77
-215.58
-218.08
-221.34
-224.21
-224.54
-221.28
-215.80
-211.50
-211.82
-217.69
-226.33
-232.40
-231.12
-221.41
-206.94
-194.04
-187.87
-189.13
-193.74
-195.55
-190.21
-177.71
-161.88
-147.38
-136.54
-128.08
-118.53
-104.92
-86.88
-66.55
-46.87
-29.39
-13.60
2.21
19.09
36.26
51.11
60.30
61.32
53.76
39.92
24.40
12.43
7.79
11.08
19.61
28.95
35.52
38.39
39.19
40.18
41.98
42.66
39.02
28.97
13.54
-3.22
-16.30
-22.47
-21.87
-17.55
-13.31
-11.47
-11.83
-12.38
-10.80
-5.90
1.97
11.33
20.43
28.10
33.92
38.14
41.28
43.80
45.90
47.56
48.83
50.00
51.56
53.98
57.35
61.07
63.94
64.53
61.77
55.46
46.40
36.14
26.45
18.86
14.34
13.32
15.80
21.37
29.18
37.94
46.03
51.93
54.61
53.91
50.58
45.95
41.40
37.80
35.21
32.96
30.05
25.56
19.20
11.41
3.38
-3.30
-7.17
-7.31
-3.74
2.48
9.48
15.00
17.09
14.72
8.30
-0.35
-8.48
-13.40
-13.42
-8.50
-0.15
9.30
17.65
23.66
27.20
28.91
29.56
29.59
29.03
27.84
26.21
24.55
23.29
22.59
22.21
21.46
19.58
15.89
10.19
2.93
-4.73
-11.08
-14.53
-14.31
-11.01
-6.45
-3.01
-2.52
-5.48
-11.01
-17.39
-22.94
-26.69
-28.54
-28.89
-28.23
-27.02
-25.57
-24.21
-23.13
-22.31
-21.40
-19.84
-17.04
-12.64
-6.71
-0.00
6.03
9.69
9.76
6.20
0.41
-5.41
-9.26
-10.29
-9.06
-6.98
-5.26
-4.30
-3.82
-3.32
-2.75
-2.45
-2.67
-3.07
-2.75
-0.90
2.48
6.36
9.27
10.06
8.49
5.23
1.30
-2.47
-5.66
-8.09
-9.72
-10.56
-11.00
-11.83
-13.89
-17.53
-22.06
-25.87
-27.20
-25.13
-20.20
-14.18
-9.11
-6.12
-4.93
-4.23
-2.60
0.60
4.91
9.22
12.45
14.16
14.57
14.13
13.14
11.59
9.47
7.07
5.10
4.34
5.04
6.66
8.00
7.98
6.39
4.25
3.32
5.04
9.54
15.33
20.16
22.36
22.08
21.32
22.65
27.46
35.00
42.65
47.56
48.38
45.93
42.64
40.87
41.55
43.72
45.46
45.24
42.82
39.37
36.43
34.81
33.98
32.44
28.81
22.95
16.31
11.21
9.64
12.01
17.01
22.45
26.51
28.68
29.82
31.15
33.32
36.36
40.39
46.60
57.54
76.07
103.46
137.90
174.70
208.15
234.16
251.85
263.41
272.17
280.23
287.11
290.06
285.69
271.82
248.54
217.87
182.67
145.41
107.49
69.35
30.96
-7.70
-46.46
-85.18
-124.26
-164.76
-208.03
-254.72
-303.36
-349.66
-387.32
-410.23
-415.13
-403.34
-380.36
-353.61
-329.47
-311.03
-297.76
-286.88
-275.33
-261.31
-244.54
-225.81
-206.18
-186.55
-167.67
-150.18
-134.47
-120.55
-108.00
-96.10
-84.20
-72.11
-60.26
-49.53
-41.01
-35.49
-33.16
-33.40
-34.89
-36.09
-35.74
-33.40
-29.58
-25.63
-23.21
-23.69
-27.59
-34.28
-41.90
-47.85
-49.65
-46.20
-38.48
-29.45
-22.74
-20.79
-23.42
-27.48
-28.07
-20.67
-3.25
22.75
52.74
80.61
100.65
109.47
106.90
96.27
83.45
75.37
78.29
96.09
129.49
175.98
230.71
287.77
341.38
386.84
420.85
441.50
447.91
439.98
418.35
384.49
340.93
290.90
237.99
185.16
134.08
84.89
36.54
-12.51
-63.65
-117.63
-174.38
-232.72
-290.16
-342.83
-386.02
-415.26
-427.80
-423.78
-406.33
-380.88
-353.47
-329.07
-310.42
-297.76
-289.25
-281.91
-272.66
-259.15
-240.43
-216.96
-190.32
-162.59
-135.86
-111.95
-92.29
-78.07
-70.02
-67.95
-70.01
-72.64
-71.07
-60.66
-38.56
-4.50
39.44
90.19
145.08
202.51
261.49
320.40
376.24
424.66
461.13
482.50
488.01
479.21
458.94
430.13
394.81
354.16
308.86
259.55
206.94
151.54
93.08
30.34
-38.22
-112.91
-191.12
-266.38
-328.93
-368.41
-377.38
-354.24
-304.18
-237.36
-165.41
-97.87
-40.11
6.55
43.12
70.98
90.79
102.55
106.39
103.36
95.60
85.75
76.19
68.22
61.77
55.84
49.06
40.48
29.81
17.47
4.31
-8.70
-20.72
-31.07
-39.21
-44.87
-48.15
-49.56
-49.96
-50.19
-50.79
-51.80
-52.89
-53.62
-53.75
-53.41
-53.06
-53.20
-54.23
-56.36
-59.48
-63.21
-66.86
-69.45
-69.89
-67.32
-61.52
-53.12
-43.57
-34.58
-27.37
-22.10
-17.81
-12.90
-6.11
2.80
12.85
22.23
29.33
33.30
34.43
33.68
32.00
29.86
27.31
24.41
21.68
20.18
20.95
24.45
30.11
36.47
41.82
44.79
44.77
41.82
36.47
29.48
21.82
14.70
9.36
6.81
7.35
10.48
15.02
19.72
23.50
25.68
25.75
23.26
17.94
10.06
0.68
-8.39
-15.23
-18.53
-18.08
-14.75
-10.08
-5.54
-2.07
0.17
1.66
3.29
5.93
10.10
15.55
21.17
25.29
26.35
23.70
18.05
11.38
6.18
4.43
6.80
12.59
20.07
27.37
33.13
36.84
38.84
39.87
40.68
41.62
42.59
43.23
43.13
42.17
40.59
38.90
37.62
37.09
37.37
38.23
39.31
40.23
40.84
41.13
41.28
41.49
41.73
41.65
40.57
37.69
32.38
24.24
13.06
-1.35
-19.08
-39.89
-62.78
-85.89
-106.80
-123.24
-133.96
-139.30
-141.00
-141.49
-142.79
-145.70
-149.70
-153.32
-154.92
-153.32
-147.98
-138.89
-126.39
-110.95
-93.27
-74.04
-53.57
-31.35
-5.92
24.64
61.93
106.36
156.62
209.85
262.20
309.67
348.94
378.22
397.67
409.48
417.15
424.25
432.95
442.94
451.38
453.94
446.51
426.77
394.89
353.14
304.79
253.01
199.93
146.47
92.52
37.50
-19.19
-77.89
-138.42
-199.79
-260.00
-315.99
-363.87
-399.84
-421.39
-428.35
-423.05
-409.63
-392.55
-375.12
-358.84
-343.65
-328.69
-313.26
-297.15
-280.51
-263.50
-246.05
-227.96
-209.22
-190.23
-171.84
-154.97
-140.15
-127.20
-115.28
-103.29
-90.36
-76.26
-61.42
-46.74
-33.22
-21.46
-11.59
-3.18
4.38
11.53
18.26
24.03
28.00
29.55
28.69
26.26
23.67
22.30
22.88
25.07
27.58
28.79
27.49
23.38
17.14
10.02
3.17
-2.79
-7.86
-12.44
-17.06
-22.12
-28.06
-35.34
-44.36
-55.13
-66.85
-77.89
-86.27
-90.41
-89.77
-84.86
-76.79
-66.50
-54.36
-40.32
-24.52
-7.74
8.53
22.60
33.22
39.98
43.35
44.26
43.75
42.66
41.61
41.07
41.40
42.85
45.56
49.58
54.89
61.33
68.53
75.75
82.01
86.28
87.92
86.98
84.14
80.43
76.65
73.07
69.34
64.84
59.19
52.67
46.21
41.06
38.05
37.23
37.74
38.23
37.41
34.63
30.11
24.79
19.87
16.42
15.04
15.75
18.11
21.49
25.32
29.32
33.64
38.72
45.01
52.62
61.13
69.68
77.31
83.27
87.23
89.25
89.57
88.45
85.98
82.05
76.52
69.38
60.89
51.67
42.42
33.53
24.55
14.03
-0.00
-19.00
-42.85
-69.40
-95.04
-115.98
-129.55
-134.83
-132.37
-123.44
-109.46
-91.95
-72.72
-53.86
-37.37
-24.42
-14.96
-7.97
-2.34
2.18
4.68
3.55
-2.45
-13.16
-26.69
-39.88
-49.51
-53.43
-51.28
-44.54
-35.67
-27.14
-20.42
-15.72
-12.15
-8.35
-3.10
4.38
14.32
26.32
39.38
51.91
62.03
68.15
69.47
66.38
60.25
52.96
46.21
41.10
38.09
37.14
37.96
40.04
42.48
44.18
44.12
41.86
37.84
33.23
29.42
27.30
26.87
27.25
27.28
26.09
23.46
19.72
15.45
11.18
7.35
4.39
2.79
2.76
3.88
4.87
3.93
-0.46
-8.64
-19.44
-30.64
-39.90
-45.74
-47.98
-47.31
-44.61
-40.18
-33.82
-25.17
-14.40
-2.48
9.07
18.72
25.47
28.95
29.45
27.58
24.25
20.50
17.41
15.87
16.37
18.85
22.69
26.91
30.45
32.48
32.67
31.18
28.64
25.96
23.98
23.22
23.71
24.94
26.08
26.17
24.42
20.41
14.20
6.35
-2.15
-9.99
-15.92
-19.18
-19.69
-18.11
-15.64
-13.47
-12.45
-12.84
-14.36
-16.46
-18.65
-20.61
-22.17
-23.20
-23.51
-22.84
-21.14
-18.65
-15.97
-13.73
-12.32
-11.59
-10.88
-9.31
-6.23
-1.53
4.24
10.28
15.77
20.24
23.53
25.62
26.33
25.37
22.57
18.38
13.97
11.03
10.95
14.14
19.72
25.93
30.85
33.23
32.85
30.39
26.83
23.19
20.09
17.90
16.66
16.09
15.50
13.98
10.71
5.31
-1.88
-9.84
-17.19
-22.63
-25.32
-25.13
-22.66
-19.05
-15.64
-13.47
-13.06
-14.32
-16.85
-20.11
-23.70
-27.28
-30.53
-33.04
-34.30
-33.83
-31.20
-26.18
-18.77
-9.17
2.06
14.01
25.43
35.00
41.53
44.43
43.78
40.34
35.33
30.04
25.46
22.01
19.43
16.94
13.69
9.18
3.65
-2.00
-6.67
-9.51
-10.32
-9.47
-7.83
-6.23
-5.27
-5.22
-6.03
-7.48
-9.26
-11.08
-12.89
-14.93
-17.58
-21.05
-25.05
-28.63
-30.54
-29.88
-26.64
-21.91
-17.43
-14.77
-14.66
-16.71
-19.74
-22.51
-24.40
-25.64
-27.11
-29.71
-33.73
-38.55
-42.77
-44.80
-43.61
-39.21
-32.65
-25.45
-18.81
-13.12
-7.96
-2.58
3.49
10.10
16.53
21.90
25.56
27.29
27.28
25.97
23.89
21.49
19.06
16.75
14.50
12.20
9.81
7.47
5.41
3.70
2.14
0.23
-2.53
-6.31
-10.76
-15.16
-18.78
-21.30
-22.93
-24.23
-25.79
-27.94
-30.75
-34.11
-37.91
-41.92
-45.76
-48.81
-50.45
-50.48
-49.39
-48.29
-48.18
-49.26
-50.40
-49.60
-44.87
-35.11
-20.55
-2.35
18.09
39.87
62.61
85.99
109.04
129.76
145.48
153.65
152.96
143.83
128.36
109.52
90.25
72.62
57.54
44.95
34.26
24.89
16.44
8.74
1.55
-5.50
-12.83
-20.64
-28.79
-37.03
-45.02
-52.47
-59.23
-65.06
-69.68
-72.77
-74.20
-74.09
-72.78
-70.71
-68.28
-65.83
-63.64
-61.88
-60.47
-58.91
-56.38
-52.14
-46.05
-38.89
-32.10
-26.84
-23.14
-19.49
-13.53
-3.38
11.02
27.61
42.92
53.63
58.13
57.04
52.68
47.95
45.08
44.96
47.27
51.02
55.25
59.39
63.12
66.02
67.23
65.75
60.94
53.17
44.14
36.21
31.20
29.33
29.00
27.86
24.58
19.82
16.00
15.53
18.88
23.74
25.92
21.60
9.23
-9.68
-31.45
-51.94
-67.96
-77.95
-81.73
-80.04
-74.12
-65.80
-57.28
-50.89
-48.36
-50.34
-56.09
-63.71
-70.71
-74.81
-74.56
-69.65
-60.90
-49.74
-37.67
-25.78
-14.67
-4.74
3.53
9.42
12.30
12.12
9.67
6.54
4.54
5.06
8.63
14.85
22.75
31.21
39.31
46.36
51.84
55.28
56.25
54.56
50.38
44.30
37.24
30.20
23.87
18.52
13.92
9.64
5.33
0.93
-3.26
-6.68
-8.80
-9.45
-9.00
-8.37
-8.89
-11.76
-17.60
-25.81
-34.47
-40.56
-40.92
-33.47
-18.37
1.73
22.42
39.07
48.56
50.28
45.97
38.75
31.78
27.27
26.20
28.53
33.50
39.88
45.91
49.54
48.90
43.00
32.25
18.49
4.38
-7.47
-15.29
-18.47
-17.43
-13.27
-7.31
-0.86
4.94
9.25
11.68
12.28
11.57
10.32
9.25
8.81
8.99
9.45
9.74
9.56
8.85
7.77
6.52
5.24
4.02
3.01
2.42
2.47
3.22
4.40
5.42
5.69
4.84
3.00
0.62
-1.76
-3.83
-5.54
-7.10
-8.75
-10.72
-13.21
-16.42
-20.52
-25.49
-31.02
-36.44
-40.98
-43.85
-44.50
-42.70
-38.52
-32.34
-24.87
-17.05
-9.97
-4.47
-0.86
1.25
2.78
4.77
7.91
12.23
17.10
21.62
24.98
26.97
27.90
28.41
29.02
29.84
30.59
30.83
30.26
28.93
27.13
25.20
23.35
21.61
19.90
18.21
16.72
15.69
15.20
15.08
14.81
13.85
11.86
8.95
5.59
2.38
-0.24
-2.24
-3.96
-5.86
-8.24
-11.05
-13.93
-16.41
-18.14
-19.06
-19.37
-19.36
-19.29
-19.34
-19.66
-20.34
-21.45
-23.00
-24.90
-26.98
-29.01
-30.78
-32.04
-32.52
-31.92
-30.01
-26.70
-22.16
-16.76
-10.95
-5.10
0.60
6.19
11.67
16.93
21.73
25.74
28.70
30.50
31.19
31.00
30.11
28.75
27.08
25.23
23.37
21.64
20.23
19.25
18.78
18.79
19.17
19.60
19.66
18.87
16.88
13.64
9.51
5.04
0.86
-2.68
-5.59
-8.02
-10.12
-11.82
-12.88
-13.19
-12.91
-12.37
-12.07
-12.40
-13.63
-16.00
-19.76
-24.98
-31.17
-37.11
-41.03
-41.25
-36.93
-28.64
-18.30
-8.45
-1.26
2.41
3.20
2.76
2.81
4.25
6.88
9.56
10.90
9.72
5.41
-2.04
-11.93
-22.84
-32.65
-39.10
-40.57
-36.89
-29.86
-22.64
-18.45
-19.15
-24.30
-31.71
-38.56
-42.80
-43.91
-42.79
-41.06
-40.11
-40.58
-42.25
-44.54
-46.86
-48.96
-50.85
-52.69
-54.48
-55.91
-56.22
-54.00
-47.16
-32.88
-8.07
29.65
80.76
142.65
209.47
273.07
325.18
359.73
374.44
371.07
354.29
329.80
302.67
276.34
252.45
231.31
212.37
194.81
177.85
161.19
145.47
132.31
123.95
122.14
126.99
136.47
147.06
155.28
159.25
159.48
158.00
156.72
155.93
154.03
148.50
137.58
121.15
100.67
77.81
53.32
26.55
-3.90
-39.28
-79.96
-125.38
-174.46
-225.54
-275.80
-320.50
-352.91
-365.66
-353.33
-315.28
-257.08
-189.62
-125.54
-74.81
-41.28
-21.96
-9.29
5.02
26.52
56.68
93.97
136.11
181.63
229.65
278.41
323.69
358.91
377.15
373.99
349.61
308.90
259.16
207.12
156.69
108.46
60.91
12.32
-37.66
-87.66
-135.34
-178.68
-217.11
-251.82
-285.43
-320.88
-360.01
-402.68
-446.54
-487.85
-522.66
-547.99
-562.33
-565.54
-558.33
-541.85
-517.55
-487.51
-454.39
-421.20
-390.65
-364.55
-343.58
-327.68
-316.44
-309.40
-305.88
-304.64
-303.68
-300.74
-294.20
-284.03
-272.00
-260.76
-252.33
-246.64
-241.32
-232.78
-218.15
-196.92
-171.23
-144.66
-120.12
-98.32
-77.46
-54.43
-26.65
6.64
44.32
84.48
125.92
169.11
216.05
269.56
332.25
405.44
488.29
576.96
664.17
739.79
792.77
814.11
799.72
751.91
678.38
589.42
494.25
398.70
304.61
211.33
117.92
25.12
-64.06
-145.13
-213.55
-265.97
-300.90
-318.70
-321.24
-311.31
-292.07
-266.67
-237.98
-208.54
-180.51
-155.60
-134.98
-119.08
-107.58
-99.52
-93.68
-88.75
-83.47
-76.43
-66.18
-51.40
-31.61
-7.95
16.47
37.30
50.72
55.33
52.85
47.25
42.61
40.98
41.59
41.93
39.64
34.20
27.21
21.18
17.81
16.85
16.36
13.99
8.52
0.74
-7.06
-12.50
-14.46
-13.78
-12.72
-13.77
-18.28
-25.83
-34.43
-41.49
-45.06
-44.56
-40.88
-35.78
-30.96
-27.34
-24.83
-22.55
-19.51
-15.22
-9.90
-4.44
0.12
2.89
3.35
1.33
-3.08
-9.58
-17.43
-25.28
-31.30
-33.55
-30.57
-21.86
-8.13
8.95
27.03
43.59
56.44
64.20
66.42
63.60
56.90
47.74
37.68
28.36
21.58
19.06
22.08
30.81
43.93
58.63
71.29
78.43
77.94
69.69
55.55
38.79
23.03
11.35
5.67
6.47
12.81
22.76
33.79
43.47
49.96
52.44
51.29
47.82
43.68
40.20
37.92
36.48
35.06
33.02
30.24
27.12
24.14
21.43
18.60
14.94
9.91
3.43
-4.02
-11.63
-18.59
-24.29
-28.32
-30.35
-30.13
-27.67
-23.36
-18.03
-12.64
-7.87
-3.80
0.02
4.31
9.52
15.72
22.53
29.32
35.33
39.84
42.29
42.47
40.81
38.53
37.34
38.74
43.26
49.98
56.72
60.85
60.24
54.09
43.03
28.76
13.35
-1.33
-13.88
-23.32
-28.95
-30.24
-27.01
-19.66
-9.29
2.48
13.91
23.53
30.32
33.72
33.33
28.82
20.13
7.86
-6.39
-20.12
-30.51
-35.34
-33.68
-26.19
-14.92
-2.63
7.90
14.56
16.48
14.37
10.17
6.40
5.03
6.64
10.27
13.96
15.99
15.70
13.62
10.92
8.63
7.23
6.78
7.30
8.98
11.99
16.06
20.20
22.87
22.65
19.06
12.95
6.28
1.30
-0.46
1.18
4.96
8.89
11.17
10.98
8.70
5.57
2.88
1.33
0.76
0.51
-0.02
-0.89
-1.64
-1.82
-1.50
-1.62
-3.75
-9.42
-19.31
-32.79
-48.19
-63.57
-77.41
-88.95
-97.87
-103.71
-105.62
-102.75
-94.97
-83.58
-71.12
-60.30
-52.70
-47.92
-43.94
-38.33
-29.56
-17.81
-4.66
7.74
17.57
23.86
26.37
25.40
21.64
16.12
10.17
5.31
2.72
2.89
5.46
9.39
13.30
16.03
17.29
18.10
20.43
26.19
36.19
49.57
63.83
75.48
81.37
80.10
72.75
62.20
51.72
43.44
37.89
34.13
30.37
24.67
15.67
2.43
-16.52
-43.39
-80.05
-125.70
-175.32
-220.11
-249.92
-256.13
-234.14
-184.97
-114.61
-31.94
53.98
135.75
207.92
262.45
289.60
284.48
252.19
206.39
161.08
124.71
99.02
81.52
68.43
57.75
50.40
49.00
55.89
69.90
86.73
99.96
103.41
93.03
68.46
33.13
-7.61
-48.41
-84.02
-112.22
-134.37
-152.92
-169.59
-184.08
-194.48
-203.54
-208.91
-210.22
-208.83
-207.45
-208.25
-213.03
-223.18
-239.56
-261.76
-286.92
-311.42
-324.97
-320.75
-295.61
-251.55
-195.13
-135.05
-78.85
-30.01
11.32
47.48
80.79
113.37
146.47
180.32
214.23
246.36
274.01
293.40
301.31
295.89
278.34
252.44
223.01
194.07
167.78
144.50
123.30
103.19
83.40
64.14
46.14
30.13
16.45
5.03
-4.55
-12.96
-20.72
-28.26
-35.40
-41.46
-45.63
-47.43
-47.05
-45.30
-43.21
-41.43
-39.97
-38.29
-35.76
-32.24
-28.23
-24.70
-22.51
-21.95
-22.61
-23.63
-24.16
-23.73
-22.38
-20.60
-19.05
-18.24
-18.34
-19.08
-20.00
-20.47
-19.99
-18.20
-14.98
-10.27
-4.18
3.08
11.03
18.83
25.41
29.75
31.34
30.47
28.20
25.98
25.06
26.16
29.44
34.78
41.95
50.61
59.98
68.66
74.79
76.63
73.27
65.11
53.79
41.72
31.34
24.56
22.41
24.80
30.63
37.80
43.61
45.55
42.24
34.13
23.47
13.38
6.38
3.36
3.43
4.72
5.67
5.79
5.65
6.17
7.61
9.13
9.20
6.45
0.56
-7.43
-15.52
-21.63
-24.36
-23.52
-19.98
-15.41
-11.58
-9.87
-10.63
-13.12
-15.75
-16.60
-14.21
-8.04
1.28
12.10
22.25
29.61
32.89
32.10
28.68
25.09
23.88
26.65
33.40
42.49
51.37
57.47
58.93
55.06
46.18
33.40
18.43
3.42
-9.46
-18.41
-22.52
-22.01
-18.03
-12.21
-6.02
-0.40
4.34
8.27
11.60
14.28
15.93
15.83
13.25
7.90
0.26
-8.21
-15.47
-19.68
-19.83
-16.14
-9.80
-2.32
5.27
12.60
19.62
26.08
31.15
33.55
32.24
26.97
18.61
8.79
-0.81
-9.15
-16.01
-21.84
-27.22
-32.39
-37.21
-41.36
-44.62
-47.09
-49.08
-50.83
-52.24
-52.85
-52.11
-49.78
-46.14
-41.94
-38.04
-34.98
-32.80
-31.19
-29.90
-28.89
-28.55
-29.27
-31.14
-33.55
-35.21
-34.62
-30.73
-23.48
-13.95
-3.97
4.58
10.34
12.83
12.29
9.28
4.26
-2.51
-10.86
-20.28
-29.79
-38.05
-43.72
-45.79
-43.82
-37.93
-28.41
-15.42
1.17
21.57
45.42
71.15
95.89
116.00
128.24
131.01
125.01
112.89
98.21
84.24
73.21
66.28
63.80
65.73
71.62
80.42
90.35
99.15
104.65
105.38
100.78
91.16
77.37
60.59
42.16
23.57
6.19
-8.97
-21.54
-31.83
-40.61
-48.58
-56.10
-63.06
-69.07
-73.78
-77.23
-79.84
-82.26
-85.03
-88.37
-92.08
-95.57
-98.07
-98.79
-97.21
-93.23
-87.30
-80.25
-73.11
-66.78
-61.84
-58.41
-56.23
-54.70
-53.11
-50.70
-46.89
-41.32
-34.07
-25.54
-16.43
-7.40
1.08
8.80
15.68
21.54
26.08
28.91
29.84
29.05
27.08
24.73
22.72
21.47
20.98
20.87
20.59
19.61
17.62
14.56
10.64
6.19
1.61
-2.68
-6.23
-8.65
-9.70
-9.47
-8.49
-7.64
-7.86
-9.80
-13.56
-18.65
-24.34
-29.87
-34.64
-38.15
-39.95
-39.59
-36.87
-32.04
-25.82
-19.17
-12.87
-7.25
-2.09
3.09
8.73
14.94
21.47
27.87
33.66
38.44
42.02
44.40
45.79
46.59
47.20
47.84
48.36
48.25
46.90
44.01
39.81
35.10
30.84
27.80
26.17
25.53
25.19
24.47
23.05
20.96
18.45
15.75
12.96
10.05
6.97
3.74
0.44
-2.83
-6.10
-9.45
-13.04
-16.98
-21.31
-26.04
-31.12
-36.48
-41.90
-46.94
-50.95
-53.15
-53.03
-50.59
-46.46
-41.68
-37.30
-33.95
-31.60
-29.69
-27.43
-24.24
-20.09
-15.55
-11.59
-9.19
-8.98
-10.92
-14.27
-17.80
-20.12
-20.15
-17.50
-12.58
-6.56
-1.07
2.20
2.15
-1.09
-5.79
-8.83
-6.61
3.39
21.42
44.86
68.85
87.88
97.61
96.20
84.54
65.52
42.74
19.42
-2.16
-20.68
-35.34
-45.72
-51.68
-53.50
-51.92
-47.98
-42.80
-37.12
-31.17
-24.79
-17.85
-10.43
-2.87
4.50
11.55
18.43
25.22
31.62
36.91
40.22
41.00
39.25
35.49
30.38
24.39
17.82
10.99
4.56
-0.59
-3.62
-4.24
-2.91
-0.67
1.39
2.63
3.12
3.50
4.66
7.30
11.75
17.84
24.97
32.18
38.35
42.40
43.58
41.61
36.84
30.13
22.56
15.12
8.52
3.06
-1.25
-4.59
-7.24
-9.59
-11.98
-14.75
-17.97
-21.45
-24.80
-27.71
-30.12
-32.36
-34.96
-38.34
-42.53
-47.15
-51.63
-55.50
-58.57
-60.83
-62.24
-62.56
-61.37
-58.38
-53.70
-47.82
-41.41
-34.89
-28.28
-21.27
-13.55
-5.34
2.66
9.49
14.47
17.57
19.41
20.92
22.78
25.18
27.80
30.22
32.17
33.68
34.98
36.21
37.27
37.80
37.43
35.98
33.58
30.67
27.79
25.43
23.87
23.09
22.77
22.33
21.18
19.00
15.91
12.55
9.71
7.86
6.82
5.72
3.42
-0.87
-7.18
-14.69
-22.19
-28.62
-33.30
-36.05
-37.02
-36.65
-35.70
-35.22
-36.29
-39.48
-44.35
-49.38
-52.46
-51.96
-47.45
-40.06
-32.02
-25.74
-23.00
-24.43
-29.60
-37.35
-46.23
-54.72
-61.44
-65.32
-65.67
-62.28
-55.35
-45.44
-33.34
-20.07
-6.86
4.96
14.08
19.64
21.50
20.26
17.07
13.12
9.21
5.46
1.36
-3.86
-10.96
-20.41
-32.28
-46.04
-60.49
-73.66
-83.02
-86.00
-80.75
-66.74
-44.97
-17.48
13.40
45.78
78.43
110.50
141.16
169.28
193.46
212.42
225.22
231.57
231.68
226.28
216.43
203.50
188.97
174.14
159.87
146.37
133.40
120.58
107.70
94.81
81.95
68.94
55.25
40.29
23.82
6.36
-10.83
-26.10
-37.99
-45.83
-49.92
-51.36
-51.60
-51.93
-53.06
-55.17
-58.07
-61.55
-65.58
-70.24
-75.52
-81.11
-86.35
-90.37
-92.29
-91.39
-87.18
-79.41
-68.16
-54.03
-38.37
-23.32
-11.32
-4.30
-2.86
-5.92
-11.10
-15.72
-17.88
-17.07
-14.01
-10.02
-6.13
-2.72
0.52
4.08
8.27
13.02
18.06
23.11
27.99
32.50
36.36
39.00
39.75
37.88
32.98
25.16
15.31
4.95
-4.11
-10.26
-12.69
-11.55
-7.85
-3.05
1.54
4.92
6.53
6.13
3.57
-1.02
-7.31
-14.69
-22.47
-29.93
-36.44
-41.38
-44.13
-44.11
-41.09
-35.41
-28.00
-20.07
-12.64
-6.23
-0.78
4.13
8.90
13.76
18.67
23.39
27.53
30.57
31.98
31.40
28.88
25.01
20.80
17.32
15.30
14.96
16.02
18.07
20.72
23.68
26.46
28.28
28.10
25.06
19.00
10.81
2.23
-4.78
-8.74
-9.22
-6.81
-2.78
1.42
4.54
5.64
4.14
-0.17
-7.04
-15.67
-24.87
-33.33
-40.03
-44.58
-47.28
-48.96
-50.51
-52.45
-54.73
-56.61
-56.95
-54.62
-48.90
-39.78
-27.98
-14.74
-1.50
10.46
20.21
27.29
31.64
33.56
33.65
32.75
31.80
31.70
33.02
35.83
39.59
43.15
45.16
44.50
40.78
34.67
27.66
21.63
18.15
18.03
21.12
26.52
32.84
38.66
42.88
44.83
44.40
41.85
37.83
33.13
28.63
25.09
22.91
22.16
22.55
23.58
24.82
25.96
26.90
27.57
27.87
27.51
26.08
23.11
18.26
11.43
2.87
-6.74
-16.43
-25.15
-32.33
-38.22
-44.05
-51.40
-61.28
-73.29
-85.51
-95.31
-100.69
-101.31
-98.70
-95.33
-93.31
-93.37
-94.70
-95.63
-94.70
-91.52
-86.89
-82.19
-78.61
-76.48
-75.28
-74.04
-72.00
-69.02
-65.57
-62.37
-59.82
-57.77
-55.56
-52.46
-48.08
-42.69
-37.05
-32.14
-28.78
-27.41
-28.03
-30.34
-33.78
-37.64
-41.14
-43.68
-45.01
-45.43
-45.74
-46.90
-49.73
-54.46
-60.58
-66.84
-71.65
-73.47
-71.25
-64.64
-54.07
-40.43
-24.85
-8.28
8.93
27.17
47.53
71.18
98.60
128.99
160.01
188.36
210.91
225.79
232.99
233.96
230.62
224.17
214.56
200.45
180.00
152.06
116.82
75.85
31.62
-13.18
-55.91
-93.43
-122.55
-140.32
-144.61
-135.07
-113.46
-83.24
-48.82
-14.47
17.31
45.43
69.79
90.54
107.39
119.28
124.84
123.34
115.36
104.07
93.51
86.90
85.36
87.82
92.57
99.28
110.25
123.34
137.26
148.70
152.21
142.69
118.79
84.75
48.80
19.38
0.54
-7.90
-10.02
-10.64
-12.72
-16.88
-22.44
-28.93
-37.01
-49.38
-68.07
-94.24
-127.52
-165.80
-205.72
-243.72
-277.51
-300.15
-309.33
-305.36
-290.86
-269.22
-243.07
-213.52
-180.62
-144.42
-105.92
-68.31
-34.72
-7.25
14.06
30.97
46.12
61.60
78.20
95.38
111.15
124.05
133.62
140.34
145.02
148.01
148.94
146.92
141.29
131.90
119.91
107.39
96.44
88.23
82.47
77.72
71.97
63.49
51.17
35.25
17.14
-0.97
-17.09
-30.33
-41.32
-51.97
-64.57
-80.94
-101.58
-125.46
-150.28
-172.98
-190.30
-199.44
-198.51
-187.05
-166.08
-137.79
-104.66
-68.75
-31.23
7.34
46.50
85.40
122.83
157.83
190.13
220.20
248.68
275.54
299.46
317.92
327.39
324.05
304.90
268.70
216.64
152.38
81.20
8.55
-61.08
-125.24
-183.21
-235.06
-280.51
-318.49
-347.77
-368.11
-381.06
-389.01
-394.42
-398.61
-401.17
-400.49
-394.94
-384.10
-369.12
-352.07
-333.26
-311.42
-284.29
-249.64
-206.00
-152.83
-90.53
-20.60
53.89
130.52
205.64
274.12
330.36
370.08
391.87
397.26
389.70
372.55
351.58
331.89
316.96
308.47
307.05
312.92
325.97
345.51
356.60
348.86
319.70
275.33
225.09
175.24
128.03
84.25
48.98
20.29
-1.55
-16.87
-28.55
-41.32
-59.53
-85.45
-118.56
-154.02
-185.79
-207.20
-215.80
-214.56
-208.61
-201.57
-194.39
-186.04
-175.28
-162.59
-151.24
-140.05
-128.08
-114.87
-100.19
-84.27
-67.93
-52.60
-40.50
-32.80
-29.36
-28.70
-29.33
-29.45
-27.40
-22.16
-13.76
-3.63
6.37
14.86
20.89
24.59
27.25
30.32
34.53
39.37
43.25
44.36
41.81
35.54
26.50
16.42
7.31
1.00
-1.18
1.06
6.79
14.03
20.18
23.11
21.90
17.07
10.06
2.47
-4.47
-10.09
-14.13
-16.70
-18.20
-19.21
-20.29
-21.58
-22.57
-22.19
-19.37
-13.68
-5.73
3.11
11.30
17.72
21.88
23.60
22.59
18.31
10.17
-1.96
-17.37
-34.36
-50.60
-63.72
-71.85
-73.92
-69.90
-60.67
-47.95
-34.14
-22.04
-14.45
-13.43
-19.77
-32.66
-49.97
-68.95
-87.15
-102.83
-114.92
-122.57
-124.79
-120.69
-109.93
-93.26
-72.47
-49.72
-26.57
-3.51
19.68
43.07
65.49
84.30
96.27
98.95
92.17
78.31
61.56
46.21
35.08
28.86
26.44
26.08
26.47
27.26
28.86
31.73
35.84
40.65
45.42
49.65
53.19
56.03
57.91
58.12
55.78
50.34
41.98
31.56
20.27
9.08
-1.59
-11.74
-21.41
-30.26
-37.53
-42.46
-44.83
-45.23
-44.82
-44.64
-44.90
-44.74
-42.51
-36.56
-26.06
-11.40
5.95
23.93
40.55
54.37
64.65
71.25
74.30
74.03
70.72
64.90
57.47
49.58
42.43
36.78
32.78
30.09
28.25
27.03
26.55
27.15
29.02
32.19
36.49
41.71
47.74
54.37
61.30
68.03
73.99
78.53
80.95
80.28
75.37
65.21
49.50
29.26
6.92
-14.32
-31.79
-44.51
-53.78
-62.51
-73.76
-89.15
-107.96
-127.51
-144.32
-155.52
-159.74
-157.03
-148.27
-134.53
-116.84
-96.44
-75.10
-54.97
-37.89
-24.64
-14.63
-6.31
1.94
11.00
20.84
30.86
40.64
50.15
59.58
68.94
77.77
85.23
90.54
93.40
94.05
92.93
90.38
86.52
81.47
75.63
69.68
64.30
59.76
55.78
51.75
47.15
41.95
36.57
31.61
27.45
24.14
21.39
18.79
15.85
12.08
7.04
0.45
-7.54
-16.15
-24.03
-29.54
-31.09
-27.70
-19.33
-7.05
7.19
20.99
32.20
39.51
42.79
42.90
41.24
39.05
37.05
35.30
33.52
31.36
28.67
25.63
22.53
19.66
17.14
15.00
13.23
11.97
11.55
12.34
14.38
17.11
19.53
20.57
19.78
17.55
14.84
12.39
10.04
6.56
0.27
-9.74
-22.87
-36.90
-48.77
-55.82
-56.74
-51.90
-42.89
-31.85
-20.81
-11.38
-4.66
-1.14
-0.65
-2.26
-4.57
-6.03
-5.59
-2.99
1.14
5.62
9.26
11.34
11.77
11.00
9.63
8.15
6.74
5.41
4.34
3.91
4.62
6.77
10.04
13.42
15.49
15.03
11.60
5.83
-0.87
-6.96
-11.57
-14.79
-17.53
-20.80
-25.14
-30.24
-35.22
-39.21
-41.86
-43.53
-44.93
-46.49
-47.90
-48.05
-45.56
-39.53
-30.17
-18.77
-7.19
3.13
11.68
18.99
25.94
33.14
40.35
46.66
51.00
52.72
51.92
49.36
45.97
42.43
38.94
35.18
30.56
24.57
16.99
8.13
-1.14
-9.46
-15.34
-17.61
-15.89
-10.84
-4.11
2.13
5.85
5.70
1.33
-6.64
-16.88
-27.58
-36.89
-43.24
-45.81
-44.82
-41.68
-38.69
-38.25
-41.94
-49.81
-60.16
-70.14
-76.79
-78.02
-73.18
-63.06
-49.38
-34.29
-19.80
-7.38
2.27
9.32
14.63
19.30
24.19
29.50
34.76
39.19
42.21
43.76
44.36
44.70
45.21
45.80
46.03
45.38
43.65
41.08
38.13
35.20
32.43
29.79
27.20
24.68
22.35
20.30
18.45
16.61
14.54
12.17
9.63
7.22
5.22
3.71
2.54
1.42
0.12
-1.40
-2.98
-4.53
-6.11
-8.07
-10.89
-14.91
-20.05
-25.76
-31.04
-34.87
-36.49
-35.63
-32.49
-27.55
-21.36
-14.40
-6.99
0.50
7.67
13.98
18.95
22.30
24.21
25.31
26.51
28.67
32.17
36.72
41.52
45.57
48.15
49.01
48.52
47.36
46.21
45.40
44.72
43.55
41.19
37.39
32.56
27.73
24.05
22.24
22.40
24.01
26.30
28.57
30.20
30.47
28.32
22.55
12.37
-1.78
-17.94
-33.10
-44.40
-50.31
-51.37
-49.82
-48.61
-50.19
-55.72
-64.95
-76.67
-89.33
-101.54
-112.08
-119.82
-123.57
-122.29
-115.57
-103.90
-88.79
-72.28
-56.36
-42.49
-31.23
-22.41
-15.43
-9.67
-4.62
0.10
4.84
10.03
16.05
23.03
30.61
37.98
44.31
49.27
53.31
57.44
62.54
68.57
74.14
76.97
74.95
67.39
55.69
42.97
32.70
27.18
26.53
28.75
30.71
29.57
23.92
14.16
1.94
-10.69
-22.22
-32.06
-40.36
-47.48
-53.64
-58.84
-63.18
-67.21
-71.79
-77.57
-84.12
-89.64
-91.28
-86.39
-73.92
-55.13
-33.47
-13.09
2.63
12.31
16.68
17.68
17.34
16.78
16.07
14.72
12.47
9.72
7.54
7.21
9.59
14.69
21.63
29.02
35.60
40.75
44.60
47.80
50.87
53.78
55.79
55.82
53.09
47.68
40.57
33.28
27.15
22.79
19.89
17.56
14.90
11.54
7.78
4.35
1.92
0.76
0.56
0.60
0.15
-1.26
-3.64
-6.66
-9.85
-12.84
-15.37
-17.21
-18.03
-17.33
-14.53
-9.17
-1.20
8.93
20.26
31.65
42.04
50.69
57.12
60.95
61.65
58.52
51.06
39.41
24.71
9.13
-4.72
-14.56
-19.31
-19.36
-16.32
-12.31
-9.04
-7.26
-6.72
-6.48
-5.62
-3.69
-0.96
1.72
3.39
3.35
1.53
-1.58
-5.15
-8.41
-10.93
-12.72
-14.14
-15.60
-17.41
-19.68
-22.33
-25.28
-28.50
-32.07
-36.05
-40.50
-45.35
-50.40
-55.15
-58.88
-60.59
-59.27
-54.31
-45.81
-34.77
-22.82
-11.80
-3.16
2.40
4.99
5.34
4.38
3.04
1.96
1.58
2.08
3.52
5.86
8.96
12.51
16.03
18.84
20.22
19.66
17.05
12.81
7.74
2.71
-1.61
-5.01
-7.65
-9.93
-12.16
-14.50
-16.90
-19.26
-21.60
-24.09
-27.00
-30.63
-35.18
-40.72
-47.21
-54.48
-62.14
-69.52
-75.66
-79.51
-80.22
-77.39
-71.06
-61.58
-49.43
-35.15
-19.52
-3.75
10.57
21.85
29.06
32.27
32.54
31.43
30.26
29.61
29.36
29.20
29.16
29.78
31.87
36.01
42.19
49.75
57.59
64.61
70.00
73.34
74.54
73.65
70.81
66.19
60.02
52.56
44.23
35.64
27.63
21.17
16.96
15.06
14.69
14.39
12.60
8.34
1.70
-6.24
-14.02
-20.44
-25.06
-28.33
-31.06
-34.04
-37.64
-41.79
-46.02
-49.74
-52.29
-53.10
-51.90
-48.80
-44.43
-39.69
-35.33
-31.43
-27.20
-21.33
-12.78
-1.46
11.41
23.81
33.81
40.44
44.06
45.92
47.33
48.88
50.28
50.69
49.49
46.68
43.01
39.38
36.43
34.22
32.41
30.63
28.81
27.19
26.07
25.39
24.52
22.54
18.85
13.76
8.54
4.99
4.41
6.96
11.44
15.83
18.25
17.76
14.48
9.30
3.18
-3.35
-10.08
-16.92
-23.42
-28.76
-31.98
-32.43
-30.05
-25.36
-19.12
-12.05
-4.59
3.07
10.70
17.81
23.67
27.54
29.01
28.25
26.09
23.67
22.04
21.78
22.84
24.66
26.45
27.53
27.45
26.09
23.60
20.33
16.75
13.38
10.70
8.98
8.17
7.81
7.20
5.63
2.65
-1.76
-7.22
-13.14
-18.94
-24.28
-29.04
-33.30
-37.14
-40.58
-43.51
-45.86
-47.66
-49.16
-50.86
-53.35
-57.11
-62.32
-68.70
-75.37
-81.03
-84.08
-83.08
-77.11
-66.16
-51.22
-34.09
-16.84
-1.25
11.62
21.53
28.85
34.14
37.79
40.05
41.03
41.01
40.48
40.02
40.01
40.47
40.97
40.93
39.93
37.98
35.58
33.36
31.75
30.73
29.84
28.48
26.27
23.18
19.55
15.79
12.21
8.87
5.72
2.69
-0.16
-2.75
-5.04
-7.14
-9.27
-11.60
-14.19
-16.94
-19.69
-22.41
-25.20
-28.29
-31.95
-36.35
-41.42
-46.79
-51.70
-55.06
-55.72
-52.78
-46.04
-36.20
-24.74
-13.49
-4.00
3.01
7.73
11.04
13.98
17.21
20.79
24.31
27.13
28.82
29.31
28.99
28.46
28.29
28.78
29.82
30.91
31.30
30.22
27.25
22.55
16.89
11.50
7.67
6.17
6.66
7.30
5.03
-3.67
-21.43
-48.62
-82.45
-117.29
-146.11
-162.67
-163.64
-149.75
-125.27
-96.37
-68.93
-46.97
-32.24
-24.80
-23.85
-28.33
-36.90
-47.69
-58.17
-65.61
-67.94
-64.56
-56.57
-46.08
-35.18
-24.84
-14.66
-3.33
10.29
26.30
43.61
60.51
75.50
87.87
97.72
105.50
111.56
115.91
118.46
119.39
119.36
119.26
119.53
119.58
117.69
111.72
100.30
83.96
65.25
47.94
35.44
29.31
28.70
30.86
32.59
31.57
26.95
18.96
8.04
-5.55
-21.45
-38.66
-55.31
-69.12
-78.42
-82.91
-83.63
-82.04
-78.98
-74.16
-66.69
-56.22
-43.84
-32.04
-23.69
-20.57
-22.37
-26.79
-30.66
-31.35
-27.89
-21.19
-13.47
-7.13
-3.73
-3.41
-5.07
-6.86
-6.97
-4.21
1.72
10.31
20.52
31.08
40.65
48.04
52.32
53.21
51.18
47.32
42.83
38.44
34.20
29.73
24.83
19.90
15.78
13.23
12.14
11.50
9.97
6.95
3.23
0.76
1.58
6.56
14.76
23.79
30.90
34.21
33.19
28.58
21.73
14.02
6.47
-0.24
-5.77
-10.03
-13.14
-15.56
-17.94
-21.06
-25.53
-31.52
-38.56
-45.46
-50.52
-51.97
-48.67
-40.51
-28.60
-14.88
-1.45
9.98
18.48
23.68
25.63
24.65
21.40
16.96
12.65
9.63
8.50
9.09
10.77
13.01
15.79
19.58
24.86
31.39
37.98
42.69
43.74
40.36
33.17
23.92
14.70
7.09
1.69
-1.82
-4.37
-6.94
-10.30
-14.68
-19.67
-24.14
-26.47
-24.95
-18.51
-7.34
6.87
21.29
32.85
39.22
39.45
34.06
24.64
13.27
1.92
-8.03
-16.05
-22.55
-28.48
-34.86
-42.06
-49.55
-56.17
-60.65
-62.22
-60.83
-56.94
-51.01
-43.25
-33.64
-22.38
-10.26
1.35
10.99
17.66
21.32
22.74
23.02
22.93
22.57
21.40
18.74
14.34
8.63
2.73
-2.01
-4.49
-4.18
-1.26
3.60
9.48
15.41
20.47
23.86
25.03
23.75
20.28
15.35
9.91
4.80
0.48
-3.14
-6.43
-9.72
-12.92
-15.50
-16.83
-16.55
-14.93
-12.80
-11.27
-11.29
-13.47
-18.02
-24.87
-33.76
-44.05
-54.67
-64.04
-70.51
-72.76
-70.30
-63.52
-53.50
-41.59
-29.09
-16.92
-5.68
4.44
13.51
21.70
29.01
35.08
39.23
40.78
39.49
35.80
30.75
25.55
21.05
17.67
15.42
14.22
14.08
14.97
16.81
19.27
21.95
24.61
27.27
30.11
33.18
36.22
38.66
39.90
39.43
36.97
32.42
26.07
18.73
11.71
6.45
4.00
4.47
6.98
10.31
13.55
16.51
19.34
21.79
22.77
20.65
14.16
3.45
-9.70
-22.58
-32.73
-38.64
-39.82
-36.23
-27.88
-15.16
0.48
16.17
28.32
34.11
33.14
27.89
22.62
21.23
25.27
33.36
42.16
48.14
49.27
45.45
37.95
28.38
17.88
6.92
-4.27
-15.43
-26.13
-35.95
-44.63
-52.14
-58.55
-63.87
-68.02
-71.00
-72.97
-74.26
-75.07
-75.27
-74.21
-71.03
-65.05
-56.28
-45.63
-34.67
-25.08
-18.04
-13.79
-11.63
-10.33
-8.67
-5.85
-1.65
3.64
9.37
14.49
17.55
16.88
11.14
0.09
-14.99
-31.24
-45.10
-53.60
-55.37
-51.06
-42.77
-32.93
-23.25
-14.43
-6.43
0.85
7.15
11.83
14.40
14.97
14.38
13.92
14.69
17.05
20.61
24.48
27.97
30.95
33.85
37.16
40.96
44.67
47.21
47.52
45.03
40.04
33.55
26.90
21.33
17.56
15.61
14.90
14.53
13.61
11.67
8.86
5.77
3.17
1.48
0.53
-0.41
-2.24
-5.61
-10.56
-16.67
-23.29
-30.07
-37.09
-44.71
-53.06
-61.51
-68.65
-72.51
-71.34
-64.23
-51.47
-34.43
-15.15
4.13
21.21
34.18
41.52
42.40
36.95
26.43
12.96
-0.91
-12.82
-21.11
-25.00
-24.61
-20.88
-15.32
-9.60
-5.13
-2.58
-1.72
-1.66
-1.37
-0.24
1.83
4.57
7.82
11.62
16.13
21.15
25.80
28.74
28.77
25.62
20.20
14.33
9.78
7.47
7.09
7.39
6.98
4.95
1.21
-3.74
-9.18
-14.67
-20.08
-25.47
-30.76
-35.52
-38.94
-39.97
-37.80
-32.20
-23.74
-13.82
-4.28
3.16
7.47
8.63
7.60
5.85
4.82
5.42
7.86
11.66
15.93
19.70
22.16
22.94
22.10
20.11
17.70
15.63
14.51
14.61
15.82
17.76
19.89
21.71
22.97
23.69
24.12
24.57
25.33
26.40
27.53
28.25
27.94
26.10
22.48
17.21
10.84
4.22
-1.80
-6.64
-10.23
-12.97
-15.62
-18.86
-23.09
-28.28
-34.06
-39.89
-45.16
-49.17
-51.22
-50.65
-47.17
-41.04
-33.18
-24.88
-17.30
-10.97
-5.65
-0.61
4.80
10.66
16.41
21.25
24.71
27.00
28.89
31.23
34.34
37.76
40.44
41.35
40.04
36.92
33.06
29.65
27.53
26.93
27.49
28.47
28.99
28.16
25.18
19.51
11.00
0.08
-12.20
-24.30
-34.54
-41.58
-44.71
-44.02
-40.32
-34.88
-29.15
-24.47
-21.87
-21.91
-24.63
-29.60
-35.99
-42.68
-48.42
-51.96
-52.36
-49.30
-43.24
-35.42
-27.46
-20.67
-15.47
-11.22
-6.55
-0.23
8.11
17.70
27.00
34.45
39.22
41.44
41.90
41.52
40.87
40.10
39.09
37.83
36.49
35.44
34.88
34.59
33.77
31.34
26.35
18.56
8.86
-0.85
-8.25
-11.48
-9.95
-4.61
2.44
8.85
12.83
13.66
11.59
7.31
1.49
-5.50
-13.35
-21.59
-29.45
-36.00
-40.61
-43.35
-45.00
-46.62
-49.00
-52.05
-54.72
-55.39
-52.56
-45.67
-35.39
-23.42
-11.75
-1.83
5.94
12.16
17.87
23.81
29.96
35.53
39.49
41.04
39.95
36.55
31.42
25.22
18.47
11.63
5.34
0.46
-2.35
-3.02
-2.39
-1.92
-3.13
-7.02
-13.67
-22.21
-31.09
-38.64
-43.61
-45.41
-43.96
-39.62
-33.11
-25.51
-17.87
-10.62
-3.13
5.99
18.19
34.04
52.57
71.19
85.83
92.04
87.72
75.14
60.17
48.92
44.97
48.39
56.61
65.98
73.42
77.19
76.89
73.27
67.91
63.01
60.80
62.74
69.46
80.26
93.46
107.20
120.08
131.57
141.82
151.18
159.65
166.70
171.32
172.58
169.79
162.55
150.55
133.87
113.21
90.10
66.63
44.71
25.30
8.03
-8.50
-25.88
-44.76
-64.37
-82.76
-97.68
-107.80
-113.19
-115.24
-115.88
-116.75
-118.67
-121.52
-124.62
-127.05
-128.11
-127.43
-125.14
-121.88
-118.65
-116.52
-116.19
-117.71
-120.35
-123.09
-125.16
-126.51
-127.82
-130.02
-133.59
-138.16
-142.61
-145.58
-146.21
-144.34
-140.30
-134.39
-126.45
-115.89
-102.23
-85.70
-67.55
-49.82
-34.52
-22.87
-14.89
-9.60
-5.65
-1.96
1.93
5.98
9.92
13.66
17.29
20.96
24.67
28.16
31.01
32.89
33.76
33.86
33.58
33.14
32.43
31.11
28.80
25.38
21.15
16.68
12.53
8.96
5.71
2.19
-2.19
-7.64
-13.76
-19.57
-23.90
-25.75
-24.64
-20.65
-14.32
-6.45
2.14
10.72
18.79
26.04
32.40
37.98
42.95
47.47
51.57
55.16
58.07
60.20
61.54
62.25
62.52
62.57
62.59
62.65
62.73
62.68
62.31
61.46
60.22
58.88
57.88
57.66
58.41
59.95
61.79
63.33
64.02
63.55
62.00
59.89
58.18
58.07
60.54
65.78
72.61
78.44
79.74
73.09
56.34
29.43
-5.54
-44.95
-84.71
-121.26
-152.26
-176.84
-195.54
-209.97
-222.08
-233.26
-243.44
-250.58
-251.10
-241.11
-218.06
-182.08
-136.26
-85.82
-36.56
6.74
41.15
65.73
80.95
88.04
88.53
84.08
76.32
66.80
56.81
47.20
38.39
30.50
23.56
17.64
12.89
9.42
7.23
6.11
5.70
5.66
5.74
5.92
6.30
6.99
7.98
9.16
10.39
11.57
12.71
13.76
14.54
14.56
13.15
9.70
3.95
-3.78
-12.65
-21.44
-28.95
-34.16
-36.56
-36.10
-33.08
-28.17
-22.21
-16.42
-11.96
-9.65
-9.71
-11.77
-14.89
-17.72
-18.74
-16.60
-10.77
-1.57
9.89
22.10
33.25
42.16
48.67
53.65
58.68
64.78
72.37
81.36
91.39
101.26
110.03
117.62
124.97
134.38
147.11
163.91
185.16
210.35
236.00
257.57
271.00
274.14
268.39
254.40
233.11
205.97
174.08
135.32
87.70
31.41
-30.05
-88.87
-141.33
-186.52
-225.29
-260.31
-298.67
-347.42
-410.74
-487.85
-570.54
-652.30
-726.06
-784.01
-796.32
-744.37
-631.27
-483.58
-354.70
-256.26
-184.35
-130.54
-83.29
-37.85
3.40
36.51
59.97
76.71
95.51
120.19
151.33
187.87
227.40
265.25
298.04
325.13
348.44
372.23
394.81
411.26
416.72
408.46
385.93
351.95
311.68
270.86
235.21
205.59
180.56
158.70
139.28
121.66
105.28
89.47
73.70
58.47
43.61
29.26
16.19
5.26
-3.21
-9.56
-14.53
-18.86
-22.74
-26.40
-29.92
-33.19
-36.24
-39.18
-42.23
-45.61
-49.37
-53.35
-57.20
-60.52
-62.98
-64.30
-64.28
-62.69
-59.33
-54.02
-46.71
-37.63
-27.38
-16.78
-6.84
1.54
7.73
11.49
13.02
12.79
11.45
9.65
7.91
6.66
6.13
6.44
7.56
9.37
11.68
14.26
16.88
19.33
21.45
23.14
24.36
25.07
25.24
24.81
23.72
21.96
19.59
16.77
13.71
10.66
7.77
5.15
2.84
0.83
-0.93
-2.52
-4.08
-5.88
-8.11
-10.91
-14.15
-17.48
-20.43
-22.58
-23.85
-24.53
-25.30
-26.95
-30.14
-35.14
-41.69
-49.12
-56.47
-62.83
-67.53
-70.16
-70.66
-69.09
-65.57
-60.18
-53.12
-44.74
-35.65
-26.62
-18.33
-11.00
-4.51
1.61
7.81
14.12
20.16
25.43
29.64
32.95
35.70
37.96
39.29
39.09
37.24
34.71
33.28
34.63
39.10
45.15
49.89
50.57
46.03
37.26
26.78
17.12
9.68
4.36
0.25
-3.39
-6.50
-8.41
-8.63
-7.24
-5.31
-4.32
-5.45
-9.00
-14.25
-19.79
-24.23
-26.80
-27.68
-27.88
-28.70
-31.08
-35.19
-40.27
-45.03
-48.05
-48.36
-45.64
-40.25
-33.01
-24.89
-16.77
-9.25
-2.59
3.17
8.16
12.46
16.02
18.69
20.32
20.88
20.59
19.84
19.06
18.56
18.43
18.55
18.74
18.87
18.91
18.91
18.91
18.85
18.57
17.83
16.39
14.18
11.34
8.20
5.22
2.82
1.18
0.17
-0.59
-1.58
-3.20
-5.61
-8.69
-12.12
-15.55
-18.65
-21.26
-23.38
-25.19
-26.96
-29.04
-31.70
-35.09
-39.13
-43.47
-47.52
-50.48
-51.55
-50.13
-46.02
-39.52
-31.43
-22.73
-14.39
-7.03
-0.89
4.09
8.06
11.19
13.64
15.65
17.57
19.79
22.54
25.71
28.92
31.61
33.39
34.18
34.29
34.20
34.32
34.76
35.29
35.53
35.09
33.85
31.94
29.64
27.22
24.79
22.27
19.49
16.36
12.94
9.48
6.30
3.57
1.22
-1.03
-3.55
-6.61
-10.32
-14.65
-19.45
-24.58
-29.80
-34.70
-38.67
-40.89
-40.66
-37.70
-32.38
-25.68
-18.90
-13.09
-8.69
-5.35
-2.23
1.51
6.17
11.36
16.22
19.93
22.15
23.22
23.89
24.97
26.87
29.43
32.09
34.26
35.64
36.31
36.60
36.93
37.53
38.44
39.63
41.11
42.91
44.86
46.47
46.95
45.39
41.22
34.62
26.45
17.96
10.23
3.68
-1.99
-7.54
-13.79
-21.21
-29.92
-39.69
-50.10
-60.52
-69.94
-76.92
-79.77
-77.07
-68.19
-53.84
-36.06
-17.80
-2.11
8.65
13.40
12.44
7.13
-0.53
-8.51
-15.10
-19.14
-20.14
-18.16
-13.70
-7.46
-0.16
7.64
15.48
22.92
29.40
34.19
36.55
36.00
32.56
26.91
20.23
13.83
8.79
5.61
4.15
3.80
3.67
2.96
1.11
-2.11
-6.51
-11.61
-16.71
-21.06
-24.03
-25.37
-25.27
-24.35
-23.48
-23.49
-24.84
-27.32
-30.06
-31.71
-30.89
-26.74
-19.27
-9.37
1.50
11.84
20.56
27.15
31.58
33.99
34.53
33.36
30.77
27.36
23.92
21.23
19.67
19.09
18.84
18.16
16.51
13.90
10.91
8.41
7.20
7.59
9.28
11.55
13.55
14.75
15.05
14.84
14.70
15.20
16.69
19.29
23.00
27.69
33.15
38.99
44.69
49.70
53.60
56.27
57.78
58.34
57.99
56.64
54.07
50.21
45.35
40.15
35.52
32.33
31.03
31.52
33.24
35.30
36.84
37.21
36.01
33.11
28.54
22.52
15.44
7.98
0.95
-4.91
-9.15
-11.90
-13.83
-15.95
-19.21
-24.11
-30.59
-38.02
-45.44
-51.91
-56.77
-59.91
-61.78
-63.37
-66.01
-71.13
-79.92
-93.07
-110.42
-130.77
-151.81
-170.41
-183.39
-188.47
-185.11
-174.67
-159.88
-143.70
-128.31
-114.65
-102.65
-91.85
-81.75
-71.75
-60.85
-47.41
-29.61
-6.27
22.18
53.51
84.15
110.51
130.14
142.33
148.00
148.90
146.72
142.56
136.81
129.59
121.12
112.02
103.21
95.67
90.00
86.24
83.97
82.66
82.05
82.39
84.30
88.33
94.35
101.32
107.40
110.63
109.70
104.45
95.83
85.42
74.73
64.80
56.26
49.65
45.77
45.70
50.34
59.66
72.37
86.08
98.13
106.49
110.51
111.01
109.67
108.12
107.09
106.09
103.76
98.64
90.02
78.30
64.78
50.92
37.58
24.56
10.74
-5.17
-23.72
-44.09
-64.24
-81.91
-95.77
-106.22
-115.18
-125.04
-137.36
-151.98
-167.09
-180.22
-189.41
-194.05
-194.78
-192.95
-189.82
-186.24
-182.64
-179.26
-176.20
-173.22
-169.67
-164.47
-156.70
-146.22
-134.09
-122.40
-113.68
-109.85
-111.38
-117.03
-124.10
-129.38
-130.12
-124.94
-114.16
-99.69
-84.43
-71.53
-63.47
-61.12
-63.33
-66.89
-67.42
-60.77
-44.49
-18.77
13.56
47.97
79.64
104.79
121.28
128.53
127.25
118.98
105.92
90.64
75.51
62.12
50.72
40.24
28.89
15.12
-1.51
-20.06
-38.39
-53.93
-64.55
-69.22
-68.25
-63.06
-55.68
-48.01
-41.25
-35.50
-29.98
-23.62
-15.72
-6.43
3.27
12.02
18.81
23.44
26.62
29.57
33.28
38.12
43.80
49.82
55.98
62.57
70.01
78.28
86.44
92.73
95.33
93.12
86.40
76.82
66.67
58.01
51.92
48.42
46.73
45.90
45.11
43.98
42.38
40.34
37.85
34.83
31.12
26.53
20.97
14.51
7.43
0.13
-6.95
-13.41
-19.01
-23.60
-27.12
-29.62
-31.34
-32.71
-34.41
-37.05
-40.92
-45.65
-50.21
-53.17
-53.22
-49.62
-42.50
-32.69
-21.36
-9.53
2.20
13.68
25.00
36.16
46.91
56.66
64.72
70.54
73.99
75.41
75.44
74.79
73.90
72.83
71.34
69.18
66.32
62.97
59.50
56.11
52.72
48.93
44.22
38.25
31.06
23.11
15.11
7.75
1.43
-3.85
-8.42
-12.71
-17.02
-21.39
-25.56
-29.21
-32.17
-34.57
-36.83
-39.52
-43.11
-47.78
-53.29
-58.95
-63.73
-66.53
-66.39
-62.84
-56.03
-46.76
-36.24
-25.70
-16.06
-7.73
-0.67
5.40
10.76
15.54
19.67
23.05
25.62
27.45
28.66
29.34
29.46
28.90
27.61
25.65
23.32
21.04
19.17
17.88
17.00
16.18
15.00
13.19
10.80
8.07
5.36
2.89
0.68
-1.43
-3.68
-6.19
-8.94
-11.79
-14.58
-17.26
-19.87
-22.53
-25.29
-28.16
-31.13
-34.28
-37.78
-41.80
-46.31
-50.90
-54.77
-56.92
-56.47
-53.01
-46.75
-38.46
-29.20
-20.02
-11.75
-4.83
0.61
4.65
7.51
9.51
10.97
12.25
13.62
15.19
16.93
18.65
20.09
20.96
21.12
20.55
19.40
17.93
16.43
15.08
13.93
12.82
11.48
9.68
7.34
4.62
1.90
-0.38
-1.93
-2.77
-3.19
-3.64
-4.56
-6.18
-8.50
-11.27
-14.18
-16.94
-19.36
-21.40
-23.12
-24.71
-26.47
-28.72
-31.68
-35.31
-39.13
-42.27
-43.70
-42.51
-38.33
-31.41
-22.61
-13.06
-3.86
4.21
10.79
15.85
19.62
22.38
24.43
26.04
27.38
28.60
29.79
31.01
32.27
33.43
34.28
34.54
34.03
32.78
31.01
29.12
27.41
25.94
24.46
22.60
20.02
16.62
12.62
8.44
4.55
1.29
-1.30
-3.41
-5.38
-7.54
-10.11
-13.13
-16.44
-19.82
-23.02
-25.90
-28.43
-30.72
-33.05
-35.77
-39.21
-43.38
-47.89
-51.87
-54.22
-53.90
-50.41
-43.97
-35.43
-25.94
-16.56
-7.99
-0.53
5.82
11.16
15.56
19.06
21.77
23.81
25.38
26.70
27.92
29.15
30.41
31.67
32.75
33.49
33.71
33.38
32.57
31.47
30.27
29.00
27.56
25.71
23.28
20.29
17.01
13.80
10.97
8.59
6.46
4.25
1.67
-1.40
-4.83
-8.37
-11.74
-14.78
-17.49
-19.98
-22.49
-25.27
-28.61
-32.75
-37.81
-43.57
-49.48
-54.61
-57.88
-58.35
-55.57
-49.67
-41.41
-31.96
-22.53
-14.11
-7.22
-1.93
2.07
5.21
7.93
10.53
13.11
15.61
17.84
19.48
20.19
19.64
17.63
14.22
9.72
4.62
-0.49
-5.12
-9.01
-12.18
-14.91
-17.60
-20.62
-24.00
-27.38
-29.95
-30.70
-28.78
-23.90
-16.51
-7.59
1.67
10.29
17.75
23.95
29.00
33.02
36.10
38.27
39.61
40.23
40.14
39.18
37.18
34.13
30.49
27.29
25.82
27.27
32.12
40.00
49.73
59.76
68.65
75.41
79.60
81.23
80.60
78.09
74.12
69.01
63.02
56.30
48.89
40.81
32.13
23.09
14.02
5.33
-2.64
-9.71
-15.82
-20.99
-25.24
-28.62
-31.20
-33.10
-34.51
-35.61
-36.51
-37.24
-37.66
-37.59
-36.86
