1677766180.00
64.000000
-0.00
-0.00
-0.00
-0.00
-0.00
-0.00
-0.00
-0.00
-0.00
-0.00
0.00
0.01
0.01
-0.00
-0.03
-0.05
-0.05
0.00
0.13
0.36
0.66
1.01
1.37
1.72
2.06
2.40
2.79
3.24
3.80
4.42
5.06
5.66
6.20
6.68
7.15
7.68
8.31
9.14
10.09
11.04
11.88
12.56
13.14
13.76
14.65
15.96
17.91
20.32
22.90
25.38
27.58
29.57
31.68
34.32
37.81
42.54
48.15
54.10
59.83
64.97
69.58
74.14
79.34
85.71
93.76
103.00
112.62
121.73
129.77
136.75
143.30
150.75
157.77
166.64
177.95
191.79
206.97
220.57
228.25
225.36
208.53
176.87
132.76
80.05
23.07
-34.94
-92.44
-149.16
-205.23
-260.37
-313.74
-363.87
-409.83
-450.91
-486.50
-515.74
-537.23
-549.22
-549.96
-538.37
-514.21
-478.67
-433.88
-382.45
-327.02
-269.84
-212.63
-156.66
-102.95
-52.37
-5.90
35.58
71.43
101.35
125.50
144.38
158.69
169.15
176.37
180.75
182.57
182.07
179.51
175.23
169.65
163.18
156.15
148.81
141.30
133.69
126.02
118.33
110.69
103.16
95.80
88.68
81.83
75.25
68.95
62.95
57.25
51.86
46.78
42.03
37.59
33.45
29.61
26.07
22.81
19.83
17.11
14.67
12.48
10.54
8.83
7.35
6.07
4.97
4.05
3.27
2.62
2.09
1.65
1.30
1.01
0.79
0.61
0.47
0.37
0.29
0.23
0.19
0.17
0.16
0.16
0.17
0.19
0.21
0.24
0.27
0.31
0.35
0.40
0.44
0.49
0.54
0.59
0.64
0.70
0.76
0.83
0.90
0.97
1.06
1.15
1.25
1.37
1.50
1.65
1.81
2.00
2.20
2.43
2.68
2.96
3.27
3.61
3.98
4.38
4.82
5.29
5.80
6.35
6.95
7.58
8.26
8.98
9.75
10.56
11.42
12.33
13.28
14.29
15.37
16.50
17.70
18.95
20.23
21.51
22.70
23.74
24.53
24.94
24.87
24.21
22.89
20.88
18.19
14.90
11.07
6.89
2.54
-1.80
-5.95
-9.72
-12.97
-15.60
-17.56
-18.81
-19.35
-19.26
-18.61
-17.50
-16.07
-14.42
-12.62
-10.74
-8.80
-6.80
-4.80
-2.84
-0.97
0.76
2.33
3.77
5.13
6.54
8.15
9.95
11.89
13.93
16.03
18.12
20.22
22.42
24.86
27.79
31.04
34.47
37.88
41.05
43.81
46.17
48.33
50.69
53.77
57.45
61.55
65.71
69.48
72.47
74.60
76.11
77.59
79.75
82.37
85.01
86.82
86.71
83.63
76.77
65.56
49.22
31.45
13.49
-4.27
-22.12
-40.72
-60.83
-83.06
-107.70
-134.42
-161.88
-188.34
-211.01
-226.91
-234.02
-232.20
-223.31
-210.42
-196.44
-182.70
-169.12
-154.04
-135.54
-112.69
-86.20
-58.03
-30.54
-5.51
16.30
34.65
49.74
61.66
70.20
74.96
75.85
73.40
68.89
63.96
59.90
57.32
55.94
54.69
52.27
47.70
40.64
31.56
21.38
11.04
1.22
-7.77
-15.97
-23.55
-30.70
-37.62
-44.48
-51.49
-58.68
-65.71
-71.67
-75.23
-74.88
-69.53
-58.95
-43.98
-26.38
-8.34
8.05
21.38
31.03
37.10
40.10
40.61
39.06
35.77
31.10
25.61
20.11
15.47
12.33
10.87
10.67
11.00
11.09
10.53
9.41
8.15
7.21
6.85
6.95
7.08
6.66
5.10
1.99
-2.81
-8.99
-15.69
-21.51
-24.71
-23.60
-17.10
-5.09
11.49
30.82
50.80
69.43
85.20
97.10
104.51
107.20
105.24
99.12
89.70
78.05
65.25
52.04
38.68
24.97
10.39
-5.53
-22.87
-41.28
-60.16
-79.07
-98.11
-117.81
-138.70
-160.82
-183.46
-205.28
-224.84
-241.00
-253.06
-260.50
-262.61
-258.38
-246.89
-227.91
-202.28
-171.78
-138.80
-105.70
-74.54
-46.94
-23.97
-6.02
7.44
17.80
26.80
35.87
45.53
55.16
63.35
68.53
69.62
66.49
59.95
51.40
42.44
34.50
28.45
24.46
22.16
21.01
20.80
21.93
25.35
32.11
42.78
56.90
73.07
89.35
103.97
115.91
124.96
131.53
136.01
138.45
138.46
135.71
130.29
122.98
115.09
107.92
102.21
97.88
94.19
90.20
85.34
79.76
74.08
69.07
65.08
61.79
58.25
53.25
45.76
35.31
22.30
7.85
-6.26
-18.01
-25.57
-27.75
-24.29
-16.02
-4.63
7.77
19.17
28.12
33.86
36.31
35.86
33.12
28.71
23.20
17.14
11.08
5.60
1.24
-1.64
-2.99
-3.13
-2.67
-2.33
-2.77
-4.42
-7.52
-12.21
-18.57
-26.59
-35.92
-45.66
-54.33
-60.07
-61.26
-57.09
-47.95
-35.38
-21.61
-8.80
1.52
8.79
13.19
15.34
15.75
14.75
12.40
8.78
4.18
-0.87
-5.73
-9.85
-13.00
-15.21
-16.76
-18.03
-19.39
-21.23
-23.97
-28.05
-33.81
-41.22
-49.67
-57.75
-63.62
-65.32
-61.53
-52.02
-37.84
-21.06
-4.17
10.71
22.24
30.04
34.40
35.91
35.07
32.19
27.48
21.23
13.90
6.18
-1.13
-7.36
-12.07
-15.15
-16.82
-17.54
-17.96
-18.79
-20.76
-24.51
-30.51
-38.75
-48.54
-58.40
-66.24
-69.84
-67.56
-58.92
-44.77
-27.02
-8.00
10.26
26.37
39.67
49.88
56.94
60.79
61.57
59.71
56.02
51.58
47.35
43.88
41.13
38.60
35.71
32.06
27.71
23.04
18.53
14.40
10.41
5.95
0.22
-7.47
-17.32
-28.90
-41.10
-52.16
-60.05
-62.88
-59.52
-49.92
-35.26
-17.59
0.88
18.37
33.94
47.37
58.76
68.08
74.91
78.73
79.28
76.90
72.60
67.71
63.43
60.47
58.85
58.11
57.56
56.65
55.09
52.86
50.12
47.07
43.78
40.15
36.01
31.14
25.40
18.79
11.41
3.52
-4.57
-12.56
-20.19
-27.38
-34.17
-40.80
-47.53
-54.65
-62.28
-70.24
-77.87
-84.04
-87.32
-86.33
-80.16
-68.74
-52.90
-34.15
-14.21
5.43
23.71
40.02
54.01
65.47
74.28
80.49
84.31
86.13
86.28
84.99
82.39
78.57
73.78
68.37
62.80
57.46
52.55
48.00
43.62
39.14
34.41
29.34
23.98
18.41
12.70
6.82
0.74
-5.55
-11.92
-18.08
-23.69
-28.48
-32.45
-35.87
-39.25
-43.16
-47.99
-53.83
-60.37
-66.93
-72.49
-75.95
-76.25
-72.72
-65.20
-54.20
-40.72
-25.98
-11.18
2.73
15.14
25.73
34.36
40.96
45.51
48.09
48.88
48.22
46.58
44.51
42.51
40.94
39.91
39.32
38.91
38.36
37.43
35.97
33.89
31.21
27.95
24.17
20.03
15.68
11.26
6.84
2.38
-2.20
-6.97
-11.93
-16.96
-21.86
-26.47
-30.72
-34.71
-38.71
-43.13
-48.37
-54.63
-61.69
-68.74
-74.47
-77.33
-76.11
-70.24
-60.09
-46.78
-31.77
-16.48
-2.05
10.70
21.13
28.81
33.51
35.43
35.23
33.87
32.30
31.16
30.67
30.65
30.80
30.84
30.63
30.08
29.05
27.27
24.38
20.24
15.13
9.80
5.27
2.39
1.37
1.67
2.10
1.39
-1.28
-5.97
-12.03
-18.43
-24.21
-28.82
-32.30
-35.12
-38.02
-41.74
-46.73
-52.84
-59.27
-64.62
-67.31
-66.08
-60.33
-50.22
-36.63
-20.82
-4.20
11.89
26.31
38.21
47.14
53.01
56.06
56.64
55.06
51.55
46.37
40.03
33.39
27.57
23.57
21.83
22.00
23.09
23.94
23.85
22.90
21.85
21.54
22.26
23.32
23.28
20.66
14.71
5.99
-3.92
-13.02
-19.83
-23.94
-25.98
-27.17
-28.79
-31.88
-37.13
-44.96
-55.34
-67.59
-80.01
-90.11
-95.19
-93.29
-84.00
-68.61
-49.57
-29.67
-11.14
4.73
17.47
27.12
33.84
37.84
39.49
39.39
38.33
37.07
36.13
35.53
34.88
33.50
30.80
26.56
21.14
15.35
10.19
6.36
4.02
2.62
1.28
-0.87
-4.22
-8.58
-13.29
-17.67
-21.30
-24.23
-26.87
-29.78
-33.41
-38.09
-43.96
-50.95
-58.76
-66.80
-74.04
-79.25
-81.26
-79.23
-73.08
-63.40
-51.40
-38.58
-26.43
-16.19
-8.58
-3.79
-1.38
-0.50
-0.10
0.69
2.26
4.57
7.18
9.76
12.20
14.79
17.90
21.74
26.12
30.41
33.86
35.82
35.95
34.26
31.00
26.52
21.19
15.41
9.53
3.89
-1.38
-6.38
-11.41
-16.92
-23.20
-30.24
-37.59
-44.36
-49.40
-51.48
-49.61
-43.31
-32.84
-19.19
-3.94
11.17
24.62
35.43
43.37
48.70
51.92
53.41
53.38
51.81
48.67
44.15
38.71
33.01
27.74
23.45
20.37
18.37
17.06
15.86
14.19
11.60
7.88
3.07
-2.46
-8.25
-13.75
-18.53
-22.38
-25.35
-27.82
-30.44
-33.88
-38.56
-44.32
-50.27
-54.90
-56.51
-53.77
-46.29
-34.74
-20.71
-6.18
7.03
17.66
25.12
29.37
30.74
29.74
26.90
22.80
17.99
12.95
8.13
3.88
0.39
-2.31
-4.38
-6.09
-7.69
-9.27
-10.71
-11.73
-12.13
-12.07
-12.11
-13.14
-15.91
-20.63
-26.65
-32.45
-36.24
-36.46
-32.40
-24.34
-13.35
-0.76
12.27
24.96
36.79
47.22
55.52
60.82
62.48
60.32
54.84
47.01
38.04
28.96
20.40
12.63
5.64
-0.69
-6.45
-11.74
-16.68
-21.54
-26.65
-32.41
-39.13
-46.96
-55.93
-65.92
-76.67
-87.74
-98.29
-107.08
-112.61
-113.48
-108.98
-99.40
-86.06
-70.86
-55.73
-42.15
-30.97
-22.53
-16.91
-13.99
-13.50
-14.88
-17.23
-19.53
-20.82
-20.51
-18.56
-15.48
-12.00
-8.90
-6.60
-5.13
-4.25
-3.66
-3.36
-3.74
-5.44
-8.99
-14.36
-20.66
-26.31
-29.40
-28.33
-22.32
-11.57
2.78
19.05
35.42
50.19
62.09
70.30
74.51
74.89
72.06
66.98
60.76
54.51
49.05
44.90
42.14
40.46
39.25
37.87
35.81
32.84
29.09
24.88
20.54
16.16
11.56
6.31
0.07
-7.01
-14.12
-19.79
-22.33
-20.39
-13.60
-2.69
10.65
24.44
36.98
47.29
55.00
60.19
62.98
63.44
61.55
57.52
51.90
45.69
40.03
35.82
33.47
32.80
33.14
33.59
33.28
31.77
29.07
25.53
21.37
16.62
10.96
4.09
-4.20
-13.51
-22.46
-28.91
-30.82
-27.34
-19.15
-8.27
2.99
12.18
17.75
19.61
19.15
18.48
19.59
24.12
33.29
47.96
67.10
88.06
107.54
122.73
131.79
133.81
128.88
117.81
102.03
81.47
55.01
21.60
-18.66
-64.49
-113.82
-163.78
-210.84
-243.39
-249.94
-227.27
-184.82
-138.39
-100.54
-76.36
-64.38
-61.44
-62.41
-65.90
-72.89
-84.25
-98.59
-112.52
-122.32
-123.40
-114.46
-96.50
-73.64
-51.09
-33.15
-21.72
-16.46
-15.90
-18.36
-22.73
-28.10
-34.67
-42.88
-52.53
-62.11
-69.06
-70.76
-65.24
-52.02
-31.88
-7.34
18.20
41.23
59.04
70.11
74.06
71.42
63.09
50.15
33.37
13.42
-8.61
-30.68
-49.84
-63.01
-68.09
-64.94
-55.54
-43.14
-31.05
-21.30
-14.28
-8.98
-3.91
2.29
10.52
21.42
35.58
53.41
74.91
99.32
125.19
150.78
174.52
195.50
213.33
227.88
238.92
245.93
248.31
245.81
238.99
229.26
218.51
208.36
199.57
191.68
183.35
173.01
159.66
143.28
124.87
106.03
88.44
73.44
61.82
53.65
48.29
44.37
40.13
33.91
24.84
13.26
0.75
-10.37
-17.81
-20.11
-16.92
-8.99
2.26
15.15
28.10
39.71
48.84
54.58
56.38
54.11
48.04
38.66
26.62
12.51
-3.02
-19.37
-35.93
-52.14
-67.54
-81.73
-94.36
-105.00
-113.39
-119.55
-124.04
-127.79
-131.64
-135.75
-139.26
-140.50
-137.85
-130.61
-119.67
-107.28
-96.34
-89.27
-87.24
-89.99
-96.17
-103.99
-111.73
-117.92
-121.38
-121.16
-116.57
-107.36
-93.95
-77.56
-60.04
-43.43
-29.43
-19.01
-12.18
-8.30
-6.51
-6.14
-6.90
-8.85
-12.16
-16.89
-22.95
-30.08
-37.94
-46.10
-54.16
-61.67
-68.23
-73.51
-77.30
-79.73
-81.34
-83.14
-86.16
-90.75
-95.96
-99.45
-98.29
-90.33
-75.38
-55.51
-34.12
-14.43
1.81
14.55
24.65
32.79
38.97
42.96
45.25
47.66
53.00
63.80
80.89
102.61
125.19
144.02
155.27
157.00
149.60
135.51
118.69
104.05
96.80
101.46
120.68
154.12
198.03
245.80
289.52
322.05
338.64
337.94
321.74
294.08
259.81
223.64
189.56
160.77
139.67
127.45
123.53
125.55
129.93
133.39
134.34
133.43
132.69
133.76
136.24
137.38
133.47
121.88
102.74
78.92
54.55
33.00
15.77
2.68
-6.98
-13.45
-16.20
-14.62
-8.79
-0.03
9.41
17.17
21.62
22.28
19.81
15.29
9.41
1.99
-8.11
-22.47
-42.24
-67.43
-96.77
-128.02
-158.79
-187.47
-213.75
-238.63
-264.06
-292.38
-325.54
-364.31
-407.44
-451.34
-490.43
-518.58
-531.12
-526.54
-507.06
-477.70
-444.24
-411.29
-381.10
-353.89
-328.83
-305.02
-281.92
-259.01
-235.44
-209.93
-181.18
-148.39
-111.64
-71.72
-30.05
11.55
50.93
85.80
114.19
135.25
149.86
160.42
169.93
180.46
191.84
201.63
206.16
202.49
190.01
171.05
150.03
131.71
119.56
114.93
117.43
125.32
136.91
151.16
167.18
183.56
197.93
207.36
209.20
201.99
185.48
161.43
133.39
105.94
83.05
66.84
56.87
50.75
45.58
38.53
29.53
21.76
19.95
27.51
44.48
67.26
90.23
107.77
112.78
101.64
76.24
43.50
12.58
-7.78
-11.38
3.72
33.93
64.28
79.84
73.44
48.25
13.42
-21.40
-49.78
-70.06
-84.92
-109.49
-154.71
-219.64
-292.37
-359.46
-412.86
-451.05
-476.65
-494.40
-523.03
-576.62
-656.88
-753.99
-856.23
-955.96
-1049.79
-1135.79
-1127.85
-981.49
-722.33
-429.20
-170.66
25.94
163.75
256.88
320.34
366.28
389.75
387.33
364.46
334.74
308.73
293.74
290.25
295.79
307.29
311.59
299.90
272.92
239.87
210.50
190.02
178.57
174.42
176.28
173.73
161.85
142.92
124.15
111.66
107.07
107.82
110.40
112.40
109.70
100.42
84.56
63.44
38.14
9.82
-19.18
-44.55
-61.22
-66.78
-61.19
-46.87
-27.43
-6.49
13.29
30.26
43.62
52.66
56.61
55.26
49.25
40.30
30.84
23.03
17.94
15.40
14.05
12.15
8.41
2.28
-5.88
-15.02
-23.87
-31.44
-37.26
-41.35
-43.82
-44.45
-42.51
-36.89
-26.59
-11.25
8.56
31.53
56.05
80.83
105.19
128.98
152.25
175.13
197.84
220.76
244.22
267.87
290.22
308.44
319.14
319.61
309.14
289.44
264.06
236.94
210.99
187.50
166.32
146.79
128.38
110.99
94.69
79.30
64.36
49.36
34.26
19.75
7.19
-1.84
-6.27
-6.03
-2.17
3.50
9.03
13.03
14.99
15.24
14.50
13.39
11.99
9.81
6.07
0.10
-8.19
-18.16
-28.40
-37.10
-42.61
-43.94
-41.17
-35.43
-28.51
-22.27
-18.12
-16.73
-18.08
-21.80
-27.43
-34.47
-42.30
-49.98
-56.21
-59.61
-59.04
-54.03
-44.98
-32.97
-19.48
-5.94
6.60
17.59
26.86
34.35
39.94
43.31
44.16
42.39
38.34
32.80
26.78
21.21
16.55
12.76
9.37
5.83
1.78
-2.83
-7.74
-12.70
-17.59
-22.53
-27.86
-34.00
-41.33
-49.99
-59.73
-69.77
-78.79
-85.05
-86.85
-82.98
-73.19
-58.38
-40.41
-21.56
-3.86
11.30
23.44
32.74
39.67
44.67
48.00
49.68
49.75
48.33
45.72
42.36
38.70
35.17
32.15
29.94
28.77
28.77
29.83
31.60
33.49
34.77
34.71
32.69
28.33
21.56
12.62
2.02
-9.61
-21.54
-33.10
-43.59
-52.14
-57.68
-58.92
-54.55
-43.69
-26.14
-2.65
25.14
54.91
84.06
110.09
130.92
145.17
152.29
152.53
146.88
136.76
123.64
108.77
92.95
76.56
59.74
42.61
25.49
8.95
-6.33
-19.79
-31.25
-41.05
-49.86
-58.37
-66.90
-75.08
-82.00
-86.52
-87.89
-86.20
-82.48
-78.45
-75.95
-76.26
-79.68
-85.46
-92.10
-97.75
-100.69
-99.67
-94.18
-84.44
-71.38
-56.40
-41.05
-26.66
-14.14
-3.84
4.33
10.68
15.57
19.22
21.78
23.41
24.27
24.52
24.21
23.19
21.30
18.46
14.87
11.06
7.69
5.29
4.09
3.82
4.01
4.14
3.90
3.23
2.23
0.99
-0.60
-2.88
-6.35
-11.54
-18.66
-27.47
-37.10
-46.07
-52.63
-55.08
-52.23
-43.73
-30.20
-13.12
5.57
23.89
40.22
53.51
63.29
69.59
72.69
73.03
71.06
67.23
62.04
56.03
49.77
43.81
38.70
34.86
32.54
31.68
31.85
32.17
31.39
28.24
21.85
12.20
0.30
-12.03
-22.77
-30.40
-34.43
-35.53
-35.14
-34.80
-35.64
-38.00
-41.51
-45.31
-48.40
-49.91
-49.23
-46.11
-40.70
-33.39
-24.85
-15.79
-6.94
1.04
7.60
12.30
14.92
15.44
14.10
11.35
7.79
4.00
0.51
-2.32
-4.32
-5.50
-6.08
-6.38
-6.72
-7.34
-8.37
-9.84
-11.75
-14.16
-17.24
-21.28
-26.43
-32.58
-39.23
-45.38
-49.74
-51.01
-48.25
-41.16
-30.26
-16.77
-2.48
10.73
21.29
28.30
31.70
32.10
30.43
27.59
24.09
20.17
15.89
11.38
6.94
2.93
-0.47
-3.30
-5.82
-8.23
-10.53
-12.46
-13.71
-14.22
-14.38
-14.87
-16.55
-20.04
-25.52
-32.60
-40.36
-47.52
-52.66
-54.51
-52.19
-45.53
-35.17
-22.44
-9.03
3.48
13.98
22.04
27.74
31.42
33.30
33.45
31.86
28.65
24.27
19.51
15.22
11.97
9.88
8.58
7.47
6.09
4.27
2.16
-0.01
-2.16
-4.51
-7.48
-11.54
-16.97
-23.73
-31.46
-39.44
-46.68
-52.06
-54.45
-53.02
-47.51
-38.43
-26.96
-14.71
-3.21
6.43
13.74
18.75
21.76
22.95
22.36
19.98
15.95
10.81
5.45
0.81
-2.43
-4.08
-4.47
-4.17
-3.80
-3.80
-4.35
-5.44
-6.97
-8.77
-10.74
-12.84
-15.08
-17.45
-19.88
-22.13
-23.73
-24.05
-22.39
-18.16
-11.08
-1.37
10.22
22.47
33.94
43.33
49.80
53.08
53.43
51.38
47.46
42.05
35.52
28.24
20.75
13.72
7.72
3.03
-0.41
-3.03
-5.35
-7.78
-10.45
-13.21
-15.83
-18.10
-20.04
-21.94
-24.25
-27.48
-32.01
-37.95
-44.93
-52.14
-58.29
-61.91
-61.74
-57.09
-48.15
-35.93
-21.98
-7.92
5.00
15.98
24.71
31.06
34.98
36.42
35.48
32.54
28.25
23.46
19.00
15.41
12.85
11.11
9.77
8.39
6.68
4.54
2.06
-0.64
-3.44
-6.34
-9.44
-12.96
-17.18
-22.40
-28.75
-36.08
-43.69
-50.39
-54.63
-54.93
-50.41
-41.17
-28.31
-13.69
0.70
13.20
22.85
29.35
32.91
33.93
32.78
29.80
25.36
19.96
14.19
8.65
3.81
-0.20
-3.56
-6.68
-9.93
-13.44
-17.00
-20.16
-22.50
-23.88
-24.63
-25.47
-27.27
-30.77
-36.40
-44.15
-53.59
-63.90
-73.81
-81.70
-85.78
-84.56
-77.28
-64.37
-47.52
-29.28
-12.37
1.01
9.82
14.28
15.42
14.46
12.15
8.51
3.02
-4.84
-14.94
-26.27
-37.11
-45.82
-51.49
-54.47
-56.19
-58.60
-63.53
-72.19
-84.88
-100.89
-118.21
-133.48
-142.50
-141.38
-127.96
-102.78
-68.92
-30.56
8.77
47.21
84.47
120.32
153.14
179.54
195.24
196.69
182.42
153.51
113.37
67.30
21.97
-15.41
-38.64
-44.52
-34.26
-13.34
10.57
30.69
43.68
50.30
53.92
58.04
64.38
72.60
81.42
90.09
99.10
109.45
121.48
133.89
143.84
147.88
143.51
130.21
109.76
85.62
61.88
42.10
28.47
21.60
20.67
24.03
29.87
36.81
44.05
51.16
57.73
63.01
65.86
65.23
60.71
52.95
43.59
34.74
28.14
24.60
23.84
24.79
26.22
27.31
27.86
28.18
28.68
29.40
29.84
29.06
26.15
20.63
12.76
3.45
-6.19
-15.24
-23.35
-30.84
-38.47
-47.10
-57.39
-69.46
-82.85
-96.53
-109.00
-118.42
-122.81
-120.36
-109.85
-91.14
-65.51
-35.68
-5.22
22.27
44.14
59.30
68.19
72.18
72.82
71.15
67.70
62.72
56.66
50.30
44.60
40.36
37.89
36.95
36.93
37.12
36.82
35.48
32.61
27.78
20.82
11.87
1.50
-9.40
-19.82
-28.90
-36.19
-41.76
-46.17
-50.26
-54.80
-60.04
-65.46
-69.81
-71.48
-69.09
-62.05
-50.95
-37.38
-23.47
-11.34
-2.48
2.46
3.62
1.74
-2.22
-7.40
-13.07
-18.66
-23.64
-27.37
-29.06
-27.97
-23.62
-16.04
-5.86
5.78
17.46
27.81
35.67
40.29
41.39
39.22
34.57
28.67
22.94
18.65
16.54
16.63
18.21
20.07
20.88
19.66
16.06
10.55
4.33
-1.09
-4.36
-4.88
-2.95
0.27
3.23
4.65
3.87
0.95
-3.59
-9.17
-15.37
-22.07
-29.13
-36.19
-42.64
-47.72
-50.85
-51.90
-51.31
-49.96
-48.79
-48.47
-49.15
-50.53
-52.05
-53.21
-53.78
-53.83
-53.66
-53.63
-54.07
-55.25
-57.39
-60.51
-64.31
-67.99
-70.28
-69.67
-64.92
-55.49
-41.81
-25.20
-7.42
9.78
25.02
37.42
46.46
51.80
53.22
50.75
44.81
36.35
26.71
17.41
9.72
4.38
1.52
0.70
1.25
2.44
3.75
4.87
5.64
5.94
5.52
4.07
1.23
-3.27
-9.43
-16.97
-25.34
-33.77
-41.40
-47.32
-50.63
-50.52
-46.50
-38.61
-27.52
-14.58
-1.41
10.42
19.87
26.56
30.66
32.64
32.91
31.71
29.20
25.62
21.44
17.28
13.77
11.31
9.94
9.39
9.16
8.80
8.02
6.76
5.18
3.49
1.81
0.18
-1.53
-3.53
-6.04
-9.26
-13.38
-18.49
-24.52
-31.10
-37.39
-42.20
-44.24
-42.54
-36.82
-27.67
-16.39
-4.54
6.49
15.84
23.17
28.50
32.07
34.08
34.73
34.21
32.77
30.70
28.32
25.87
23.52
21.39
19.54
18.00
16.69
15.45
13.98
11.92
8.96
4.95
-0.05
-5.74
-11.74
-17.74
-23.66
-29.63
-35.94
-42.83
-50.26
-57.77
-64.48
-69.20
-70.66
-67.89
-60.54
-49.10
-34.93
-19.94
-6.09
5.09
12.89
17.36
19.08
18.78
16.99
14.06
10.27
6.01
1.88
-1.42
-3.29
-3.39
-1.80
1.06
4.53
7.94
10.73
12.55
13.31
13.07
11.96
10.13
7.66
4.52
0.65
-4.05
-9.48
-15.31
-20.83
-25.04
-26.84
-25.30
-20.02
-11.20
0.25
13.03
25.64
36.82
45.69
51.86
55.35
56.41
55.42
52.77
48.92
44.36
39.64
35.33
31.87
29.43
27.83
26.65
25.37
23.59
21.24
18.47
15.61
12.94
10.58
8.49
6.50
4.44
2.17
-0.49
-3.77
-8.04
-13.67
-20.78
-29.04
-37.46
-44.55
-48.73
-48.79
-44.32
-35.82
-24.50
-11.87
0.70
12.22
22.16
30.28
36.51
40.81
43.20
43.79
42.89
41.00
38.80
36.97
36.13
36.54
38.09
40.32
42.54
44.07
44.37
43.18
40.57
36.81
32.32
27.49
22.58
17.56
12.09
5.62
-2.48
-12.60
-24.68
-38.03
-51.29
-62.61
-69.97
-71.63
-66.68
-55.37
-39.13
-20.31
-1.50
15.06
27.97
36.76
41.57
42.88
41.23
37.13
31.19
24.16
16.93
10.37
5.16
1.62
-0.25
-0.72
-0.30
0.41
0.78
0.24
-1.52
-4.41
-7.99
-11.60
-14.65
-16.90
-18.51
-20.02
-22.11
-25.41
-30.40
-37.28
-45.91
-55.60
-65.06
-72.41
-75.63
-73.22
-64.83
-51.48
-35.43
-19.36
-5.62
4.42
10.45
12.95
12.64
10.24
6.21
0.96
-5.09
-11.35
-17.23
-22.20
-25.99
-28.59
-30.20
-31.17
-31.79
-32.28
-32.68
-32.93
-32.99
-32.86
-32.65
-32.54
-32.76
-33.48
-34.84
-36.86
-39.37
-41.85
-43.27
-42.22
-37.18
-27.08
-11.79
7.61
29.10
50.23
68.78
83.26
92.99
97.92
98.41
95.00
88.43
79.71
70.14
61.11
53.86
49.21
47.36
47.95
50.30
53.59
57.07
60.17
62.43
63.59
63.52
62.31
60.18
57.28
53.48
48.07
39.90
27.71
10.79
-10.48
-34.35
-58.02
-78.25
-92.22
-98.24
-96.01
-86.65
-72.28
-55.57
-39.18
-25.29
-15.33
-9.86
-8.69
-11.06
-16.02
-22.52
-29.65
-36.71
-43.26
-49.03
-53.67
-56.54
-56.54
-52.32
-42.82
-27.90
-8.64
12.85
34.08
52.99
68.36
79.66
86.51
88.25
83.98
73.07
56.01
34.90
13.21
-5.25
-17.66
-23.16
-22.91
-19.13
-13.74
-7.21
1.36
13.25
28.53
45.22
59.46
67.05
65.32
54.26
36.43
15.64
-4.57
-21.88
-35.24
-44.12
-48.04
-46.49
-39.48
-28.16
-14.86
-2.54
6.29
10.42
10.11
6.70
1.68
-4.00
-10.24
-17.60
-26.73
-37.85
-50.41
-63.21
-74.71
-83.52
-88.86
-90.62
-89.38
-86.08
-81.59
-76.46
-70.62
-63.41
-53.80
-40.72
-23.55
-2.51
21.31
46.10
69.98
91.47
109.93
125.46
138.49
149.19
157.09
161.17
160.26
153.66
141.68
125.70
107.87
90.46
75.30
63.41
55.02
49.78
47.09
46.18
46.27
46.59
46.58
46.09
45.48
45.42
46.49
48.59
50.75
51.24
48.21
40.45
27.95
12.15
-4.35
-18.52
-27.78
-30.87
-28.27
-21.97
-14.74
-9.10
-6.44
-6.79
-9.13
-12.09
-14.64
-16.46
-17.84
-19.32
-21.35
-24.17
-27.83
-32.24
-37.23
-42.43
-47.26
-50.96
-52.82
-52.41
-49.82
-45.72
-41.32
-37.98
-36.76
-38.17
-41.85
-46.95
-52.35
-57.17
-61.02
-64.09
-67.00
-70.48
-75.03
-80.58
-86.37
-90.89
-92.25
-88.76
-79.58
-65.15
-47.22
-28.31
-10.92
3.22
13.49
20.09
23.60
24.42
22.68
18.48
12.22
4.79
-2.54
-8.55
-12.50
-14.37
-14.67
-14.22
-13.74
-13.64
-14.01
-14.82
-15.99
-17.51
-19.40
-21.72
-24.56
-28.05
-32.40
-37.75
-44.06
-50.85
-57.20
-61.79
-63.29
-60.75
-53.91
-43.39
-30.46
-16.77
-3.85
7.14
15.64
21.59
25.22
26.85
26.75
25.12
22.24
18.51
14.52
10.89
8.08
6.25
5.19
4.46
3.58
2.20
0.25
-2.19
-4.91
-7.78
-10.79
-14.07
-17.94
-22.72
-28.67
-35.79
-43.67
-51.42
-57.78
-61.34
-60.94
-56.00
-46.79
-34.32
-20.13
-5.91
6.96
17.61
25.80
31.72
35.74
38.18
39.17
38.75
36.97
34.11
30.67
27.27
24.39
22.26
20.69
19.31
17.64
15.40
12.55
9.33
6.05
2.98
0.18
-2.54
-5.63
-9.63
-14.95
-21.73
-29.60
-37.70
-44.75
-49.33
-50.20
-46.61
-38.61
-27.01
-13.25
0.99
14.16
25.15
33.53
39.38
43.19
45.49
46.69
46.98
46.34
44.72
42.17
38.86
35.20
31.60
28.47
26.02
24.26
23.00
21.93
20.69
18.97
16.53
13.31
9.35
4.81
-0.18
-5.49
-11.13
-17.19
-23.85
-31.22
-39.20
-47.33
-54.69
-59.92
-61.56
-58.49
-50.33
-37.70
-22.15
-5.71
9.63
22.49
32.22
38.93
43.11
45.37
46.20
45.94
44.87
43.28
41.49
39.85
38.59
37.78
37.27
36.78
35.92
34.39
31.97
28.65
24.57
19.95
15.03
10.00
4.95
-0.07
-5.14
-10.38
-16.01
-22.28
-29.29
-36.81
-44.04
-49.61
-51.91
-49.54
-41.88
-29.42
-13.70
3.15
18.99
32.24
42.15
48.70
52.31
53.59
53.07
51.14
48.13
44.37
40.20
36.05
32.30
29.30
27.21
25.91
25.03
24.12
22.74
20.71
18.15
15.31
12.42
9.49
6.27
2.36
-2.67
-9.09
-16.98
-26.13
-36.07
-45.93
-54.49
-60.33
-62.10
-59.01
-51.11
-39.30
-25.14
-10.41
3.26
14.67
23.14
28.37
30.36
29.25
25.29
18.87
10.64
1.66
-6.66
-12.72
-15.14
-13.27
-7.53
0.61
8.90
14.98
16.96
13.85
5.74
-6.32
-20.51
-34.58
-46.36
-54.23
-57.59
-57.06
-54.17
-50.75
-48.23
-47.10
-46.77
-45.82
-42.45
-34.93
-22.06
-3.54
19.61
45.01
69.19
88.53
100.31
103.75
100.12
92.16
82.76
73.78
65.50
56.95
46.74
34.22
19.91
5.38
-7.37
-16.77
-22.24
-24.25
-24.05
-23.11
-22.58
-23.03
-24.42
-26.36
-28.43
-30.39
-32.28
-34.37
-37.10
-40.98
-46.46
-53.78
-62.65
-72.06
-80.28
-85.19
-84.86
-78.33
-65.95
-49.37
-31.01
-13.30
1.96
13.94
22.73
28.91
33.19
36.10
37.96
38.93
39.36
39.74
40.82
43.28
47.58
53.62
60.82
68.16
74.48
78.76
80.30
78.84
74.54
67.91
59.63
50.43
40.92
31.46
22.19
13.09
4.06
-4.90
-13.70
-22.06
-29.55
-35.55
-39.30
-40.03
-37.18
-30.61
-20.85
-8.99
3.51
15.21
25.02
32.33
36.99
39.13
38.96
36.63
32.37
26.60
20.02
13.63
8.41
5.03
3.56
3.46
3.84
3.82
2.89
0.96
-1.75
-5.01
-8.72
-12.86
-17.37
-21.99
-26.23
-29.59
-31.84
-33.17
-34.22
-35.88
-39.01
-44.07
-50.96
-58.84
-66.24
-71.32
-72.29
-67.95
-58.07
-43.56
-26.21
-8.21
8.50
22.58
33.53
41.46
46.83
50.10
51.63
51.68
50.54
48.53
46.03
43.33
40.63
38.00
35.44
33.02
30.86
29.11
27.84
26.94
26.08
24.83
22.83
19.86
15.98
11.44
6.62
1.79
-2.96
-7.81
-13.17
-19.55
-27.24
-36.10
-45.34
-53.52
-58.85
-59.69
-55.19
-45.54
-32.08
-16.88
-2.13
10.45
19.97
26.36
30.04
31.57
31.32
29.51
26.30
21.99
17.11
12.31
8.15
4.92
2.61
1.01
-0.14
-1.03
-1.77
-2.51
-3.41
-4.63
-6.32
-8.48
-11.03
-13.86
-16.94
-20.38
-24.45
-29.43
-35.48
-42.43
-49.60
-55.75
-59.32
-58.84
-53.39
-43.02
-28.80
-12.59
3.56
17.89
29.29
37.33
42.08
43.87
43.11
40.26
35.84
30.41
24.57
18.84
13.61
9.10
5.33
2.15
-0.76
-3.71
-6.99
-10.71
-14.71
-18.73
-22.43
-25.62
-28.41
-31.24
-34.74
-39.56
-46.10
-54.32
-63.62
-72.91
-80.74
-85.61
-86.24
-81.94
-72.78
-59.70
-44.39
-28.90
-15.17
-4.60
2.22
5.51
6.00
4.58
1.96
-1.47
-5.49
-9.95
-14.61
-19.08
-22.95
-25.95
-27.99
-29.12
-29.50
-29.22
-28.35
-26.95
-25.20
-23.49
-22.34
-22.40
-24.14
-27.81
-33.38
-40.61
-49.19
-58.80
-68.98
-79.02
-87.82
-93.90
-95.75
-92.35
-83.63
-70.66
-55.50
-40.42
-27.26
-16.81
-8.77
-1.96
5.39
15.41
30.54
53.31
85.74
128.49
180.08
236.68
292.71
342.16
380.03
403.32
411.34
405.25
387.24
360.00
326.36
289.17
251.10
214.10
178.81
144.14
107.56
66.09
17.82
-36.63
-93.61
-147.07
-190.40
-218.56
-229.65
-225.28
-209.69
-188.19
-165.56
-145.17
-128.68
-116.43
-108.12
-103.21
-101.25
-101.83
-104.38
-108.01
-111.47
-113.22
-111.84
-106.39
-96.78
-83.95
-69.71
-56.27
-45.57
-38.64
-35.20
-33.83
-32.52
-29.64
-24.71
-18.70
-13.65
-11.74
-14.29
-21.17
-30.66
-40.03
-46.38
-47.45
-42.23
-31.11
-15.70
1.69
18.71
33.53
45.09
53.08
57.72
59.45
58.78
56.29
52.78
49.31
47.07
46.99
49.41
53.91
59.41
64.54
68.16
69.70
69.32
67.66
65.43
63.00
60.18
56.27
50.40
41.85
30.25
15.63
-1.61
-20.63
-40.10
-58.06
-72.12
-79.93
-80.01
-72.36
-58.77
-42.31
-26.45
-14.07
-6.76
-4.80
-7.53
-13.92
-22.81
-32.89
-42.55
-49.85
-52.77
-49.78
-40.40
-25.48
-7.00
12.56
30.89
46.46
58.66
67.61
73.69
77.21
78.15
76.27
71.34
63.34
52.56
39.55
25.05
9.92
-4.77
-17.61
-26.91
-31.03
-28.94
-20.77
-7.99
6.92
21.13
32.36
39.43
42.30
41.74
38.71
33.91
27.70
20.29
12.04
3.57
-4.34
-11.09
-16.49
-20.91
-25.01
-29.41
-34.37
-39.62
-44.56
-48.58
-51.40
-53.27
-54.82
-56.87
-60.08
-64.77
-70.83
-77.75
-84.69
-90.57
-94.03
-93.67
-88.29
-77.26
-60.91
-40.64
-18.70
2.38
20.48
34.40
44.08
50.25
53.94
55.94
56.59
55.94
54.03
51.28
48.45
46.44
45.85
46.77
48.69
50.77
52.21
52.54
51.76
50.16
48.11
45.82
43.22
40.03
35.87
30.40
23.43
15.01
5.46
-4.46
-13.55
-20.24
-22.94
-20.52
-12.75
-0.59
14.04
28.73
41.22
49.96
54.34
54.58
51.51
46.18
39.65
32.84
26.50
21.23
17.39
15.07
14.05
13.78
13.61
12.90
11.34
9.06
6.49
4.22
2.62
1.62
0.67
-1.05
-4.33
-9.64
-16.81
-25.06
-33.08
-39.31
-42.34
-41.29
-36.07
-27.44
-16.80
-5.82
4.00
11.68
16.75
19.14
18.92
16.19
11.12
4.13
-4.00
-12.16
-19.23
-24.35
-27.16
-27.82
-26.82
-24.65
-21.61
-17.83
-13.50
-9.07
-5.41
-3.53
-4.34
-8.19
-14.71
-22.87
-31.21
-38.12
-42.20
-42.41
-38.29
-30.09
-18.79
-5.92
6.73
17.61
25.77
30.96
33.48
33.86
32.55
29.85
25.91
20.97
15.45
10.02
5.47
2.56
1.79
3.27
6.66
11.21
15.99
20.01
22.51
23.00
21.32
17.59
12.33
6.56
1.85
0.23
3.76
13.83
30.55
52.51
77.09
101.14
121.75
136.65
144.22
143.26
132.94
113.09
84.72
50.33
13.60
-21.48
-51.65
-75.19
-91.91
-102.67
-108.57
-110.54
-109.25
-105.44
-100.10
-94.50
-90.03
-87.90
-88.92
-93.25
-100.23
-108.18
-114.56
-116.42
-111.33
-98.25
-78.02
-53.08
-26.73
-2.03
18.82
34.71
45.31
50.63
50.79
46.03
36.82
23.98
8.55
-8.29
-25.29
-41.27
-55.13
-66.05
-73.66
-78.26
-80.79
-82.62
-85.34
-90.47
-99.34
-112.72
-130.31
-150.04
-167.97
-178.86
-177.80
-162.16
-132.98
-94.99
-55.12
-20.13
5.55
20.72
26.95
27.17
24.44
21.54
21.15
26.19
39.37
61.95
92.40
125.93
155.59
174.66
179.38
170.38
152.31
131.67
114.03
101.91
94.37
88.19
79.81
67.04
49.85
30.00
10.25
-6.77
-19.30
-26.86
-30.09
-30.14
-28.47
-26.58
-25.82
-27.06
-30.49
-35.60
-41.35
-46.43
-49.30
-48.82
-44.80
-37.94
-29.20
-19.21
-8.08
4.19
17.38
31.11
44.33
55.19
61.51
61.80
55.83
44.45
29.32
12.87
-0.75
-6.71
-1.22
16.59
44.06
75.44
103.75
123.33
127.63
115.42
92.54
69.07
52.69
44.98
42.96
42.90
42.97
43.38
45.76
50.92
57.85
64.01
67.23
66.83
63.49
58.96
54.90
52.72
52.70
53.95
54.04
51.09
44.75
35.62
25.38
15.88
8.69
4.32
1.97
-0.07
-3.28
-8.17
-14.84
-22.39
-29.76
-36.21
-41.84
-47.94
-56.76
-71.28
-89.52
-111.66
-137.94
-167.94
-199.57
-228.74
-249.98
-258.11
-250.17
-226.64
-192.13
-152.77
-114.34
-80.83
-54.27
-35.35
-24.18
-20.33
-22.17
-26.99
-30.33
-27.31
-14.41
9.06
40.70
75.85
109.13
136.08
153.72
161.20
159.36
150.02
135.40
117.75
99.21
81.71
66.83
55.46
47.85
43.72
42.44
43.33
45.78
49.20
52.88
55.93
57.20
55.58
50.22
40.68
26.93
9.34
-11.49
-34.75
-59.32
-83.61
-105.48
-122.46
-132.18
-133.08
-125.03
-109.51
-89.33
-67.75
-47.49
-30.05
-15.58
-3.50
6.72
14.97
20.44
22.22
20.00
14.60
7.80
1.75
-1.84
-2.30
-0.07
3.64
7.53
10.71
12.94
14.47
15.61
16.30
15.88
13.17
6.96
-3.56
-18.28
-36.11
-55.08
-72.71
-86.45
-93.99
-93.73
-85.10
-68.78
-46.69
-21.63
3.36
25.70
43.72
56.81
65.10
69.04
69.16
65.99
60.12
52.39
43.71
35.00
26.90
19.80
13.81
8.88
4.96
2.15
0.75
1.11
3.40
7.28
11.74
15.18
15.87
12.58
5.05
-5.85
-18.41
-30.67
-40.96
-48.23
-51.91
-51.67
-47.27
-38.64
-26.23
-11.22
4.47
18.64
29.47
36.10
38.87
38.98
37.78
36.07
33.88
30.65
25.81
19.38
12.11
5.19
-0.33
-4.04
-6.30
-8.01
-10.05
-12.90
-16.42
-20.06
-23.25
-25.72
-27.67
-29.72
-32.63
-37.04
-43.21
-50.96
-59.60
-67.95
-74.42
-77.26
-74.93
-66.59
-52.53
-34.21
-13.99
5.47
21.98
34.23
41.95
45.57
45.73
42.93
37.40
29.34
19.28
8.25
-2.32
-10.93
-16.41
-18.27
-16.74
-12.59
-6.68
0.47
8.93
19.16
31.59
46.06
61.49
76.12
87.92
95.25
97.27
94.04
86.19
74.76
61.10
46.86
34.12
24.98
21.07
22.91
29.64
39.25
49.24
57.41
62.30
63.43
61.03
55.74
48.34
39.67
30.60
22.01
14.68
9.11
5.40
3.19
1.80
0.45
-1.48
-4.26
-7.70
-11.38
-14.80
-17.61
-19.84
-21.91
-24.58
-28.65
-34.64
-42.48
-51.29
-59.46
-64.99
-65.98
-61.26
-50.74
-35.50
-17.50
0.91
17.61
31.08
40.50
45.66
46.81
44.46
39.35
32.47
24.88
17.63
11.47
6.63
2.90
-0.27
-3.36
-6.58
-9.76
-12.54
-14.72
-16.42
-18.19
-20.83
-25.05
-31.12
-38.63
-46.37
-52.54
-55.18
-52.67
-44.35
-30.73
-13.52
4.97
22.41
37.06
48.03
55.16
58.67
58.86
55.96
50.28
42.33
32.99
23.33
14.40
6.92
1.18
-2.99
-6.00
-8.37
-10.49
-12.62
-14.96
-17.73
-21.23
-25.85
-31.81
-38.91
-46.32
-52.54
-55.69
-54.15
-47.15
-35.09
-19.54
-2.74
13.13
26.41
36.30
42.68
45.81
46.04
43.74
39.30
33.21
26.09
18.61
11.39
4.85
-0.80
-5.46
-9.16
-12.04
-14.38
-16.61
-19.28
-22.90
-27.87
-34.30
-41.97
-50.24
-58.13
-64.31
-67.41
-66.28
-60.36
-49.89
-35.97
-20.31
-4.79
8.89
19.57
26.67
30.11
30.09
26.97
21.26
13.57
4.69
-4.57
-13.48
-21.62
-28.99
-35.90
-42.81
-50.08
-57.78
-65.67
-73.40
-80.68
-87.41
-93.78
-100.24
-107.35
-115.48
-124.34
-132.67
-138.24
-138.41
-131.14
-115.84
-93.95
-68.36
-42.47
-18.95
1.00
17.53
31.47
43.45
53.43
60.79
64.87
65.54
63.39
59.65
55.70
52.67
51.08
50.87
51.47
52.15
52.28
51.51
49.84
47.43
44.46
41.01
37.09
32.70
28.02
23.34
19.05
15.48
12.95
11.73
12.20
14.77
19.70
26.88
35.63
44.82
53.27
60.12
65.10
68.39
70.35
71.16
70.59
68.21
63.67
57.08
49.11
40.93
33.80
28.60
25.56
24.20
23.54
22.44
20.08
16.14
10.98
5.42
0.39
-3.41
-5.80
-7.25
-8.71
-11.24
-15.62
-22.11
-30.27
-39.08
-47.13
-52.89
-54.94
-52.26
-44.56
-32.37
-17.02
-0.33
15.79
29.77
40.63
47.93
51.67
52.15
49.79
45.28
39.49
33.43
27.99
23.77
20.86
18.90
17.23
15.26
12.65
9.54
6.34
3.59
1.65
0.52
-0.19
-1.12
-2.94
-6.22
-11.23
-18.02
-26.18
-34.91
-42.96
-48.80
-50.95
-48.33
-40.70
-28.70
-13.74
2.38
17.95
31.62
42.60
50.54
55.38
57.11
55.80
51.56
44.78
36.26
27.26
19.18
13.18
9.78
8.56
8.53
8.55
7.84
6.37
4.55
2.89
1.51
0.07
-2.15
-5.83
-11.41
-19.03
-28.54
-39.53
-51.21
-62.27
-70.98
-75.46
-74.32
-67.12
-54.66
-38.74
-21.71
-5.77
7.44
17.02
22.65
24.37
22.38
17.02
8.85
-1.25
-12.14
-22.63
-31.86
-39.53
-46.05
-52.23
-58.78
-65.93
-73.12
-79.35
-83.53
-85.13
-84.33
-82.08
-79.65
-78.33
-79.05
-82.29
-88.16
-96.42
-106.45
-117.11
-126.81
-133.68
-136.10
-133.28
-125.38
-113.18
-97.37
-77.82
-53.52
-23.25
13.23
54.23
96.07
133.95
163.58
182.44
190.36
189.15
181.54
170.26
157.53
144.93
133.53
123.90
116.09
109.48
102.95
95.35
85.91
74.69
62.56
50.90
40.94
33.23
27.33
21.89
15.13
5.58
-7.22
-22.40
-37.78
-50.56
-58.07
-58.71
-52.36
-40.50
-25.62
-10.59
2.21
11.40
16.72
18.82
18.68
17.17
14.78
11.64
7.79
3.40
-1.10
-5.18
-8.36
-10.39
-11.21
-10.85
-9.36
-6.92
-3.89
-0.87
1.38
2.22
1.42
-0.74
-3.54
-6.14
-7.96
-8.93
-9.60
-10.97
-14.02
-19.31
-26.53
-34.34
-40.71
-43.51
-41.16
-33.18
-20.31
-4.32
12.58
28.19
40.85
49.70
54.71
56.50
56.07
54.38
52.13
49.64
47.00
44.21
41.36
38.67
36.27
34.18
32.19
30.07
27.64
24.93
22.12
19.37
16.67
13.77
10.28
5.85
0.43
-5.67
-11.89
-17.64
-22.66
-27.17
-31.81
-37.34
-44.15
-51.84
-59.14
-64.09
-64.73
-59.69
-48.80
-33.19
-14.91
3.59
20.20
33.56
43.13
49.07
51.81
51.81
49.45
45.08
39.18
32.40
25.53
19.42
14.69
11.68
10.35
10.36
11.13
11.96
12.15
11.10
8.46
4.18
-1.43
-7.79
-14.22
-20.11
-25.11
-29.20
-32.78
-36.47
-41.01
-46.91
-54.17
-62.00
-68.79
-72.44
-70.91
-63.07
-49.13
-30.82
-10.93
7.50
22.00
31.27
35.25
34.73
30.83
24.54
16.62
7.69
-1.59
-10.32
-17.60
-22.79
-25.75
-26.89
-26.93
-26.59
-26.25
-25.91
-25.35
-24.42
-23.24
-22.10
-21.44
-21.56
-22.62
-24.70
-27.91
-32.46
-38.52
-45.98
-54.16
-61.70
-66.71
-67.26
-62.02
-50.76
-34.55
-15.59
3.47
20.26
33.23
41.86
46.44
47.65
46.19
42.62
37.39
31.02
24.21
17.72
12.27
8.29
5.79
4.43
3.62
2.82
1.58
-0.30
-2.92
-6.35
-10.61
-15.73
-21.63
-28.11
-34.90
-41.81
-48.88
-56.29
-64.15
-72.13
-79.18
-83.68
-83.77
-77.96
-65.51
-46.70
-22.68
4.76
33.42
61.06
85.58
105.21
118.88
126.28
128.00
125.35
120.10
114.11
108.92
105.41
103.53
102.28
100.10
95.44
87.44
76.26
62.95
48.94
35.39
22.79
10.93
-0.69
-12.46
-24.38
-36.21
-47.72
-58.94
-70.14
-81.41
-92.26
-101.38
-106.81
-106.62
-99.67
-86.10
-67.40
-45.78
-23.38
-1.71
18.45
36.66
52.21
63.95
70.46
70.80
65.09
54.72
42.02
29.51
19.15
11.86
7.59
5.59
4.89
4.58
4.01
2.77
0.69
-2.23
-6.01
-10.60
-16.06
-22.55
-30.26
-39.33
-49.78
-61.33
-73.27
-84.21
-92.30
-95.72
-93.41
-85.79
-74.80
-63.13
-53.17
-45.98
-41.01
-36.59
-30.97
-23.21
-13.55
-3.12
6.67
14.69
20.36
23.78
25.58
26.79
28.61
32.03
37.29
43.91
50.85
56.97
61.55
64.38
65.45
64.67
61.59
55.60
46.48
34.80
22.05
10.27
1.40
-3.38
-3.89
-0.83
4.67
11.57
19.14
26.92
34.61
41.72
47.57
51.28
51.97
49.05
42.37
32.36
20.06
6.98
-5.28
-15.37
-22.61
-27.08
-29.54
-30.98
-32.25
-33.67
-35.18
-36.57
-37.86
-39.45
-42.12
-46.57
-53.07
-61.22
-69.86
-77.32
-81.79
-81.76
-76.38
-65.68
-50.63
-32.94
-14.62
2.44
16.85
27.95
35.66
40.24
42.01
41.28
38.44
34.06
28.97
24.07
20.09
17.38
15.80
14.83
13.80
12.19
9.77
6.74
3.58
0.78
-1.36
-3.01
-4.87
-7.94
-13.19
-20.96
-30.62
-40.54
-48.47
-52.25
-50.51
-43.01
-30.66
-15.13
1.69
18.14
33.04
45.68
55.71
62.93
67.26
68.72
67.57
64.33
59.78
54.84
50.31
46.65
43.79
41.20
38.12
33.92
28.38
21.71
14.46
7.23
0.43
-5.84
-11.71
-17.48
-23.53
-30.21
-37.75
-46.03
-54.42
-61.64
-65.96
-65.67
-59.68
-48.03
-32.07
-14.12
3.24
17.93
28.83
35.82
39.42
40.29
38.95
35.67
30.68
24.42
17.61
11.08
5.51
1.20
-1.97
-4.38
-6.45
-8.47
-10.64
-13.20
-16.40
-20.39
-24.89
-28.93
-30.96
-29.43
-23.47
-13.53
-1.45
10.05
18.29
21.45
19.12
12.25
2.71
-7.19
-15.22
-19.56
-19.07
-13.51
-3.62
9.08
22.70
35.47
46.23
54.46
60.17
63.54
64.70
63.69
60.56
55.52
48.97
41.41
33.29
25.00
16.79
8.89
1.51
-5.17
-10.95
-15.65
-19.14
-21.48
-23.08
-24.74
-27.42
-31.95
-38.63
-47.11
-56.45
-65.50
-73.36
-79.64
-84.46
-88.18
-91.01
-92.61
-91.93
-87.40
-77.37
-60.77
-37.63
-9.37
21.44
51.66
78.26
99.03
112.94
120.08
121.47
118.62
113.11
106.23
98.84
91.33
83.78
76.09
68.16
59.89
51.18
42.01
32.49
22.99
14.17
6.75
1.23
-2.39
-4.62
-6.26
-8.04
-10.43
-13.60
-17.62
-22.68
-29.00
-36.49
-44.40
-51.22
-55.02
-54.13
-47.89
-37.02
-23.38
-9.30
3.23
13.01
19.82
24.04
26.20
26.67
25.50
22.65
18.28
12.96
7.60
3.22
0.53
-0.35
0.10
0.99
1.41
0.79
-1.05
-3.97
-7.74
-12.29
-17.78
-24.54
-32.92
-43.06
-54.69
-67.00
-78.54
-87.50
-91.96
-90.50
-82.61
-68.97
-51.41
-32.47
-14.77
-0.29
10.00
16.20
19.14
19.82
19.06
17.28
14.73
11.66
8.50
5.75
3.73
2.48
1.77
1.33
1.16
1.56
2.95
5.50
8.89
12.24
14.30
13.79
9.83
2.21
-8.33
-20.13
-30.79
-37.66
-38.61
-32.72
-20.66
-4.57
12.62
28.03
39.71
46.98
50.39
51.23
50.82
50.09
49.20
47.78
45.29
41.58
37.05
32.58
29.02
26.71
25.21
23.56
20.73
16.30
10.71
5.01
0.35
-2.64
-4.14
-5.04
-6.56
-9.86
-15.58
-23.71
-33.46
-43.35
-51.41
-55.63
-54.43
-47.21
-34.59
-18.29
-0.63
16.15
30.41
41.39
49.00
53.53
55.29
54.51
51.44
46.48
40.31
33.73
27.48
21.99
17.33
13.40
10.12
7.57
5.85
4.92
4.35
3.40
1.25
-2.62
-8.26
-15.16
-22.54
-29.63
-35.99
-41.62
-46.88
-52.38
-58.69
-66.09
-74.25
-82.10
-87.85
-89.45
-85.16
-74.22
-57.22
-36.02
-13.27
8.33
26.73
40.84
50.47
56.12
58.50
58.36
56.35
53.07
49.01
44.58
39.99
35.19
29.94
23.94
17.07
9.52
1.81
-5.40
-11.65
-16.90
-21.65
-26.65
-32.52
-39.33
-46.53
-53.04
-57.79
-60.03
-59.66
-57.21
-53.71
-50.41
-48.46
-48.52
-50.27
-52.24
-51.88
-46.27
-33.14
-11.95
15.56
45.69
73.90
96.18
110.19
115.69
114.12
107.71
98.61
88.36
77.82
67.45
57.64
48.80
41.31
35.33
30.64
26.81
23.35
20.00
16.79
13.97
11.71
9.99
8.46
6.57
3.78
-0.20
-5.32
-11.30
-17.73
-24.30
-30.91
-37.71
-45.06
-53.27
-62.35
-71.74
-80.21
-86.00
-87.40
-83.29
-73.74
-60.09
-44.56
-29.60
-17.10
-8.04
-2.42
0.38
1.07
0.11
-2.34
-6.27
-11.57
-17.78
-24.17
-29.93
-34.45
-37.57
-39.54
-40.89
-42.17
-43.72
-45.66
-47.93
-50.49
-53.34
-56.52
-60.00
-63.65
-67.32
-70.91
-74.47
-78.12
-81.89
-85.44
-88.04
-88.50
-85.54
-78.14
-65.92
-49.39
-29.75
-8.57
12.67
32.90
51.56
68.47
83.66
97.13
108.88
118.87
127.05
133.30
137.56
139.98
141.17
142.27
144.47
148.40
153.41
157.49
157.90
152.25
139.54
120.49
97.11
71.81
46.44
22.05
-1.11
-23.01
-43.61
-62.71
-80.10
-95.53
-108.65
-118.81
-125.07
-126.38
-122.14
-112.60
-99.13
-83.91
-69.33
-57.28
-48.60
-42.93
-38.99
-35.19
-30.28
-23.73
-15.90
-7.85
-0.96
3.49
4.68
2.52
-2.37
-8.84
-15.59
-21.61
-26.37
-29.90
-32.60
-34.92
-37.17
-39.43
-41.61
-43.52
-45.03
-46.16
-47.09
-48.17
-49.74
-51.97
-54.58
-56.69
-56.95
-53.93
-46.63
-34.90
-19.60
-2.25
15.38
31.88
46.39
58.57
68.33
75.58
80.10
81.69
80.42
76.71
71.34
65.18
58.91
52.90
47.13
41.45
35.73
30.02
24.53
19.48
15.04
11.20
7.87
4.88
2.08
-0.77
-4.09
-8.49
-14.70
-23.24
-34.03
-46.07
-57.48
-65.81
-68.81
-65.02
-54.24
-37.60
-17.20
4.47
25.17
43.30
58.04
69.19
76.95
81.53
83.06
81.63
77.47
71.19
63.69
56.08
49.27
43.76
39.54
36.26
33.55
31.17
29.07
27.17
25.28
22.94
19.66
15.10
9.31
2.68
-4.29
-11.29
-18.48
-26.39
-35.74
-46.90
-59.52
-72.23
-82.76
-88.35
-86.52
-75.82
-56.35
-29.96
0.24
30.69
58.25
80.92
97.97
109.63
116.58
119.57
119.15
115.84
110.31
103.44
96.28
89.69
84.24
79.96
76.47
73.20
69.55
65.00
59.16
51.77
42.76
32.30
20.80
8.88
-2.84
-13.92
-24.25
-34.00
-43.48
-52.92
-62.38
-71.60
-80.00
-86.65
-90.44
-90.25
-85.41
-75.92
-62.61
-47.03
-30.95
-15.96
-3.10
7.10
14.55
19.28
21.27
20.49
16.98
11.05
3.32
-5.20
-13.38
-20.07
-24.48
-26.30
-25.82
-23.81
-21.18
-18.71
-16.85
-15.66
-15.01
-14.90
-15.55
-17.53
-21.57
-28.27
-37.82
-49.77
-62.96
-75.72
-86.10
-92.31
-93.02
-87.67
-76.54
-60.70
-41.68
-21.26
-1.16
17.22
32.84
45.12
53.87
59.20
61.36
60.73
57.78
53.07
47.27
41.06
34.97
29.31
24.12
19.23
14.43
9.59
4.71
-0.15
-4.95
-9.76
-14.76
-20.20
-26.26
-32.95
-39.93
-46.54
-51.78
-54.52
-53.83
-49.24
-40.87
-29.42
-15.97
-1.66
12.57
26.06
38.40
49.19
57.94
63.96
66.60
65.58
61.25
54.69
47.50
41.29
37.12
35.25
35.08
35.52
35.38
33.86
30.75
26.46
21.75
17.37
13.70
10.43
6.52
0.35
-9.79
-25.05
-45.35
-69.00
-92.81
-112.78
-125.08
-127.17
-118.53
-100.78
-77.07
-51.14
-26.32
-4.87
12.19
24.76
33.30
38.46
40.95
41.47
40.66
39.10
37.15
34.94
32.35
29.18
25.30
20.85
16.14
11.66
7.81
4.79
2.54
0.76
-0.96
-3.07
-5.89
-9.71
-14.73
-21.23
-29.47
-39.55
-51.08
-62.88
-72.92
-78.65
-77.70
-68.71
-52.08
-29.99
-5.93
16.44
34.33
46.61
53.87
57.74
59.92
61.37
61.91
60.58
56.30
48.73
38.61
27.71
18.13
11.49
8.19
7.28
6.77
4.53
-0.86
-9.53
-20.09
-30.44
-38.41
-42.61
-42.46
-37.87
-29.14
-17.13
-3.72
8.36
16.54
20.25
22.00
26.89
39.82
62.12
89.36
112.25
120.66
108.36
76.08
30.64
-18.71
-64.61
-103.76
-136.14
-162.40
-181.60
-191.20
-188.53
-172.97
-146.78
-113.78
-77.47
-39.27
1.38
45.19
91.17
135.73
173.45
199.23
210.23
206.90
192.34
171.02
147.36
125.03
106.66
93.59
85.53
80.38
74.83
65.66
51.42
33.43
15.45
2.00
-3.75
-1.33
7.07
17.94
28.14
35.89
40.78
43.09
43.00
40.44
35.19
27.09
16.03
2.00
-14.87
-33.94
-53.63
-71.33
-83.99
-89.30
-86.94
-79.05
-69.68
-63.17
-62.47
-68.13
-78.55
-91.09
-103.41
-114.26
-123.34
-130.56
-135.47
-137.10
-134.45
-127.24
-116.40
-104.01
-92.73
-84.86
-81.51
-82.33
-85.59
-88.88
-89.90
-87.26
-80.77
-71.48
-61.21
-51.88
-44.91
-40.71
-38.62
-36.97
-33.69
-26.89
-15.55
0.05
18.30
36.67
52.55
64.15
71.14
74.70
76.99
80.05
84.88
91.02
97.00
101.28
103.24
103.47
103.18
103.25
103.27
101.54
95.76
84.33
67.29
46.54
25.28
6.94
-5.63
-10.76
-7.98
1.90
16.99
34.58
51.67
65.69
75.12
79.64
79.75
76.17
69.29
59.11
45.83
30.45
15.15
2.78
-4.13
-4.57
0.42
8.18
15.44
19.65
19.73
16.21
10.62
4.72
-0.22
-3.80
-6.43
-8.98
-12.25
-16.51
-21.38
-25.98
-29.46
-31.49
-32.43
-33.14
-34.47
-36.84
-40.03
-43.23
-45.08
-43.80
-37.38
-24.19
-3.87
21.78
48.82
72.09
86.97
90.94
84.30
69.37
49.17
26.18
2.14
-21.50
-42.84
-59.39
-68.70
-69.34
-61.64
-47.70
-30.76
-14.25
-1.10
6.97
9.73
8.63
6.42
6.22
10.17
18.30
28.31
36.59
40.10
37.94
31.93
25.63
22.48
24.14
29.84
37.02
42.86
45.55
44.87
41.77
37.48
32.71
27.39
20.97
13.04
3.85
-5.60
-13.94
-20.02
-23.45
-24.81
-25.36
-26.45
-28.93
-32.85
-37.54
-42.03
-45.57
-47.98
-49.71
-51.65
-54.80
-59.80
-66.60
-74.25
-81.06
-84.93
-84.00
-77.23
-64.83
-48.21
-29.64
-11.53
4.22
16.59
25.52
31.46
34.95
36.30
35.56
32.75
28.15
22.46
16.60
11.46
7.51
4.72
2.67
0.78
-1.35
-3.79
-6.31
-8.63
-10.54
-12.11
-13.72
-15.89
-19.13
-23.66
-29.28
-35.26
-40.48
-43.66
-43.70
-39.99
-32.60
-22.22
-9.99
2.81
14.99
25.56
33.90
39.70
42.91
43.70
42.39
39.39
35.12
29.99
24.39
18.68
13.15
7.99
3.28
-1.02
-5.00
-8.79
-12.43
-16.00
-19.58
-23.33
-27.50
-32.37
-38.07
-44.35
-50.55
-55.59
-58.17
-57.18
-52.07
-43.03
-30.97
-17.31
-3.59
8.86
19.11
26.67
31.42
33.57
33.43
31.52
28.35
24.48
20.41
16.50
13.04
10.15
7.85
6.04
4.55
3.16
1.68
-0.06
-2.20
-4.94
-8.57
-13.39
-19.56
-26.85
-34.38
-40.73
-44.16
-43.16
-37.02
-26.14
-11.92
3.63
18.50
31.14
40.73
47.06
50.25
50.56
48.29
43.81
37.73
30.90
24.27
18.60
14.29
11.18
8.79
6.50
3.87
0.81
-2.42
-5.46
-8.09
-10.47
-13.11
-16.69
-21.67
-27.94
-34.67
-40.37
-43.36
-42.26
-36.50
-26.49
-13.54
0.61
14.21
25.95
35.10
41.44
45.04
46.09
44.69
41.08
35.70
29.33
22.96
17.58
13.82
11.68
10.68
9.97
8.80
6.73
3.77
0.24
-3.43
-6.95
-10.25
-13.47
-16.88
-20.76
-25.35
-30.79
-37.09
-44.05
-51.12
-57.37
-61.62
-62.63
-59.46
-51.83
-40.22
-25.88
-10.39
4.64
17.91
28.63
36.35
40.93
42.39
40.95
37.06
31.49
25.14
18.93
13.46
8.96
5.27
2.01
-1.16
-4.42
-7.61
-10.39
-12.33
-13.09
-12.63
-11.24
-9.55
-8.27
-8.01
-9.03
-11.27
-14.48
-18.44
-23.11
-28.63
-34.93
-41.54
-47.40
-51.01
-50.90
-46.15
-36.77
-23.79
-8.94
5.85
19.06
29.80
37.94
43.84
47.94
50.54
51.71
51.40
49.66
46.81
43.39
40.02
37.20
35.16
33.85
32.99
32.23
31.20
29.52
26.88
22.99
17.65
10.82
2.75
-6.01
-14.66
-22.31
-28.34
-32.66
-35.82
-38.88
-42.95
-48.66
-55.76
-63.02
-68.54
-70.34
-67.03
-58.24
-44.79
-28.30
-10.86
5.66
19.86
31.02
38.96
43.79
45.85
45.53
43.32
39.85
35.79
31.76
28.17
25.20
22.86
21.08
19.80
18.99
18.53
18.14
17.38
15.80
13.05
9.08
4.20
-1.09
-6.24
-10.93
-15.15
-19.22
-23.69
-29.05
-35.57
-43.07
-50.83
-57.65
-62.00
-62.45
-58.03
-48.63
-35.03
-18.83
-1.95
13.77
27.00
37.02
43.73
47.50
48.91
48.62
47.21
45.06
42.34
39.10
35.33
31.12
26.72
22.47
18.73
15.80
13.74
12.44
11.58
10.67
9.16
6.58
2.66
-2.55
-8.70
-15.26
-21.66
-27.54
-32.79
-37.62
-42.46
-47.69
-53.27
-58.48
-61.85
-61.53
-55.97
-44.69
-28.64
-10.07
8.24
23.94
35.79
43.67
48.26
50.34
50.38
48.51
44.85
39.76
34.02
28.59
24.24
21.29
19.57
18.64
17.96
17.13
15.83
13.83
11.01
7.46
3.52
-0.20
-3.02
-4.52
-4.73
-4.21
-3.93
-4.89
-7.82
-12.93
-19.88
-27.76
-35.25
-40.78
-42.84
-40.35
-33.07
-21.79
-8.20
5.57
17.55
26.52
32.25
35.32
36.67
37.17
37.31
37.11
36.31
34.59
31.68
27.55
22.39
16.59
10.62
4.98
0.03
-4.04
-7.21
-9.57
-11.24
-12.40
-13.31
-14.31
-15.76
-17.95
-21.01
-24.94
-29.68
-35.19
-41.44
-48.21
-54.93
-60.61
-63.87
-63.47
-58.57
-49.21
-36.29
-21.42
-6.41
7.12
18.16
26.33
31.85
35.19
36.83
37.08
36.01
33.61
30.03
25.67
21.20
17.43
15.01
14.19
14.68
15.73
16.41
15.92
13.88
10.35
5.78
0.71
-4.43
-9.44
-14.29
-19.07
-23.85
-28.66
-33.56
-38.56
-43.55
-48.12
-51.50
-52.61
-50.38
-44.21
-34.30
-21.70
-8.03
4.98
15.95
24.10
29.26
31.64
31.71
29.97
26.99
23.33
19.49
15.85
12.55
9.57
6.78
4.05
1.36
-1.23
-3.64
-5.87
-7.97
-10.04
-12.13
-14.24
-16.35
-18.41
-20.45
-22.51
-24.67
-26.97
-29.34
-31.56
-33.19
-33.65
-32.33
-28.75
-22.81
-14.85
-5.63
3.87
12.75
20.41
26.53
31.03
33.73
34.27
32.23
27.33
19.88
10.91
1.96
-5.31
-9.71
-10.91
-9.45
-6.50
-3.33
-0.95
0.16
-0.07
-1.49
-3.93
-7.27
-11.52
-16.62
-22.40
-28.53
-34.53
-39.81
-43.72
-45.60
-44.98
-41.63
-35.69
-27.70
-18.44
-8.69
0.91
10.00
18.31
25.57
31.33
35.05
36.19
34.54
30.29
24.07
16.71
9.14
2.09
-4.00
-8.96
-13.02
-16.67
-20.61
-25.53
-32.00
-40.21
-49.84
-60.00
-69.13
-75.22
-76.16
-70.26
-56.85
-36.53
-11.20
16.34
42.96
65.80
82.72
92.39
94.42
89.25
78.06
62.60
44.95
27.26
11.37
-1.39
-10.30
-15.20
-16.39
-14.40
-9.90
-3.61
3.66
10.94
17.11
20.93
21.26
17.28
8.75
-3.83
-19.14
-35.16
-49.34
-59.11
-62.48
-58.57
-47.89
-32.27
-14.32
3.22
18.16
29.17
35.82
38.36
37.54
34.34
29.85
25.09
20.79
17.27
14.35
11.58
8.43
4.56
-0.01
-4.97
-9.82
-14.08
-17.48
-20.11
-22.44
-25.31
-29.59
-35.78
-43.64
-51.91
-58.48
-61.01
-57.64
-47.79
-32.40
-13.71
5.51
22.74
36.41
46.01
51.83
54.48
54.45
52.09
47.71
41.86
35.42
29.34
24.38
20.75
18.06
15.62
12.82
9.48
5.94
2.72
0.19
-1.73
-3.68
-6.57
-11.29
-18.30
-27.47
-38.02
-48.55
-57.32
-62.42
-62.21
-55.75
-43.13
-25.60
-5.37
15.00
33.19
47.68
57.91
64.03
66.52
65.87
62.39
56.46
48.71
40.17
32.15
25.94
22.31
21.27
22.13
23.67
24.65
24.17
21.87
17.91
12.85
7.42
2.22
-2.36
-6.38
-10.26
-14.68
-20.34
-27.67
-36.62
-46.51
-56.04
-63.45
-66.84
-64.62
-55.98
-41.30
-22.24
-1.38
18.43
34.90
46.83
54.20
57.80
58.67
57.53
54.70
50.27
44.47
37.86
31.35
25.88
22.11
20.20
19.79
20.17
20.56
20.36
19.22
17.04
13.85
9.80
5.18
0.40
-4.10
-8.13
-11.91
-16.19
-21.90
-29.74
-39.60
-50.39
-60.16
-66.65
-67.98
-63.22
-52.61
-37.47
-19.76
-1.62
15.05
28.93
39.35
46.23
49.87
50.84
49.74
47.25
43.98
40.43
36.95
33.74
30.88
28.44
26.54
25.25
24.50
23.98
23.17
21.47
18.45
14.05
8.57
2.57
-3.32
-8.64
-13.24
-17.26
-21.11
-25.34
-30.53
-37.08
-44.94
-53.41
-61.06
-65.88
-65.88
-59.74
-47.45
-30.45
-11.29
7.18
22.67
34.01
41.22
45.08
46.61
46.55
45.30
42.96
39.61
35.51
31.10
26.87
23.31
20.70
19.11
18.41
18.29
18.34
18.08
17.09
15.01
11.66
7.08
1.46
-4.77
-11.13
-17.18
-22.73
-28.00
-33.59
-40.20
-48.20
-57.09
-65.32
-70.58
-70.53
-63.81
-50.66
-33.00
-13.80
3.97
18.30
28.57
35.31
39.62
42.35
43.83
43.86
42.10
38.51
33.46
27.75
22.21
17.46
13.73
10.84
8.38
5.94
3.26
0.28
-2.85
-5.94
-8.83
-11.56
-14.37
-17.68
-21.90
-27.34
-34.07
-41.93
-50.51
-59.15
-66.86
-72.29
-73.87
-70.16
-60.42
-45.06
-25.75
-5.01
14.51
30.77
42.84
50.76
55.14
56.68
55.80
52.75
47.78
41.39
34.48
28.11
23.19
20.18
18.89
18.62
18.42
17.46
15.37
12.25
8.54
4.73
1.07
-2.57
-6.54
-11.27
-17.11
-24.18
-32.41
-41.40
-50.40
-58.16
-63.07
-63.49
-58.29
-47.43
-32.14
-14.67
2.45
17.19
28.57
36.63
41.99
45.29
46.76
46.29
43.72
39.31
33.83
28.42
24.19
21.72
20.81
20.56
19.79
17.49
13.28
7.53
1.30
-4.06
-7.32
-7.80
-5.61
-1.75
2.01
3.55
0.95
-6.76
-19.10
-33.93
-47.95
-57.55
-59.97
-54.15
-40.98
-22.96
-3.26
15.15
30.17
40.71
46.54
47.96
45.62
40.42
33.47
26.04
19.34
14.29
11.27
10.05
9.90
9.86
9.05
6.99
3.73
-0.23
-4.09
-7.16
-9.20
-10.55
-12.10
-14.93
-19.88
-27.22
-36.39
-46.12
-54.68
-60.28
-61.50
-57.62
-48.83
-36.15
-21.22
-5.89
8.17
19.71
28.04
32.99
34.75
33.74
30.53
25.77
20.18
14.52
9.48
5.58
2.99
1.56
0.82
0.23
-0.59
-1.79
-3.33
-5.16
-7.36
-10.19
-13.89
-18.54
-23.78
-28.95
-33.28
-36.03
-36.82
-35.53
-32.24
-27.22
-20.78
-13.29
-5.03
3.92
13.74
24.66
36.67
49.17
60.92
70.33
76.12
77.87
76.26
72.78
69.05
66.13
64.14
62.36
59.74
55.43
49.13
41.13
32.11
22.82
13.94
5.90
-1.15
-7.37
-13.28
-19.69
-27.47
-37.12
-48.44
-60.20
-70.38
-76.70
-77.41
-71.90
-60.87
-46.08
-29.73
-13.82
0.15
11.31
19.18
23.59
24.57
22.43
17.84
11.70
5.04
-1.35
-7.06
-12.10
-16.70
-21.12
-25.44
-29.57
-33.32
-36.64
-39.67
-42.82
-46.61
-51.57
-58.07
-66.12
-75.24
-84.34
-91.81
-95.86
-94.97
-88.55
-77.17
-62.47
-46.67
-31.82
-19.31
-9.62
-2.64
2.00
4.56
5.08
3.65
0.67
-3.12
-6.70
-9.28
-10.57
-10.93
-11.15
-12.05
-14.09
-17.21
-20.86
-24.26
-26.74
-28.08
-28.70
-29.71
-32.60
-38.74
-48.75
-61.78
-75.39
-85.96
-89.64
-83.56
-66.94
-41.34
-10.24
22.05
51.68
76.17
94.73
107.91
116.99
123.40
128.44
133.12
138.26
144.34
151.38
158.87
165.91
171.51
174.98
176.09
175.03
172.16
167.81
162.27
155.82
148.94
142.17
135.96
130.37
125.07
119.30
112.23
103.26
92.21
79.37
65.42
51.16
37.31
24.29
12.17
0.86
-9.73
-19.38
-27.26
-32.01
-31.94
-25.60
-12.48
6.36
28.19
49.00
64.54
71.53
68.61
56.64
38.17
16.49
-5.48
-25.76
-43.40
-58.10
-69.78
-78.34
-83.81
-86.55
-87.37
-87.38
-87.65
-88.78
-90.73
-92.93
-94.62
-95.21
-94.53
-92.86
-90.64
-88.29
-85.97
-83.62
-81.08
-78.36
-75.76
-73.79
-72.77
-72.54
-72.13
-69.98
-64.47
-54.55
-40.31
-22.97
-4.49
13.06
28.08
39.73
47.76
52.28
53.48
51.54
46.71
39.51
30.81
21.78
13.70
7.59
4.03
2.93
3.73
5.49
7.32
8.53
8.71
7.75
5.68
2.64
-1.16
-5.53
-10.25
-15.15
-20.13
-25.11
-29.97
-34.59
-38.77
-42.31
-45.14
-47.31
-49.05
-50.75
-52.96
-56.21
-60.96
-67.34
-74.93
-82.70
-88.99
-91.92
-89.94
-82.41
-69.88
-54.05
-37.22
-21.56
-8.59
1.25
8.32
13.47
17.60
21.43
25.52
30.25
35.76
41.67
47.08
50.73
51.57
49.24
44.30
38.05
32.01
27.40
24.87
24.59
26.45
30.20
35.35
40.99
45.84
48.41
47.64
43.23
35.93
27.19
18.65
11.60
6.59
3.41
1.36
-0.39
-2.51
-5.40
-9.34
-14.44
-20.66
-27.52
-33.94
-38.29
-38.85
-34.50
-25.35
-12.91
0.31
11.67
19.25
22.44
21.82
18.70
14.45
10.05
5.96
2.31
-0.82
-3.23
-4.66
-4.91
-4.07
-2.53
-0.86
0.39
0.92
0.74
0.10
-0.71
-1.49
-2.26
-3.15
-4.35
-5.90
-7.69
-9.45
-10.88
-11.86
-12.60
-13.58
-15.43
-18.58
-23.00
-28.13
-33.09
-37.13
-40.05
-42.39
-45.10
-48.85
-53.53
-57.90
-60.04
-57.89
-50.00
-35.82
-15.65
9.32
36.86
63.51
84.70
95.80
93.65
78.11
52.54
22.97
-3.92
-22.93
-31.59
-30.30
-21.31
-7.65
7.65
21.80
32.39
37.65
36.90
30.90
21.71
11.95
3.89
-1.29
-3.80
-4.78
-5.76
-7.89
-11.50
-16.18
-21.09
-25.61
-29.57
-33.41
-37.81
-43.21
-49.42
-55.55
-60.25
-62.15
-60.21
-54.06
-44.02
-31.00
-16.35
-1.59
11.85
22.90
30.94
35.91
38.22
38.55
37.66
36.17
34.37
32.19
29.39
25.88
21.90
18.12
15.40
14.35
15.04
16.89
18.99
20.47
20.87
20.17
18.65
16.55
13.97
10.78
6.83
2.07
-3.31
-8.99
-14.55
-19.76
-24.57
-29.00
-32.94
-35.93
-37.01
-35.13
-29.50
-20.20
-8.30
4.37
15.85
24.83
31.03
35.08
38.04
40.73
43.34
45.42
46.24
45.25
42.37
38.12
33.41
29.12
25.95
24.10
23.34
23.24
23.28
23.09
22.43
21.03
18.57
14.60
8.73
0.81
-8.85
-19.60
-30.58
-41.06
-50.55
-58.76
-65.43
-70.18
-72.44
-71.59
-67.24
-59.39
-48.60
-35.85
-22.42
-9.62
1.42
9.93
15.61
18.61
19.38
18.56
16.74
14.34
11.59
8.58
5.39
2.17
-0.87
-3.60
-6.09
-8.68
-11.85
-16.01
-21.20
-27.06
-32.88
-37.96
-41.80
-44.38
-46.15
-47.91
-50.50
-54.63
-60.57
-67.97
-75.57
-81.08
-81.55
-74.02
-56.56
-29.13
6.08
44.99
82.68
114.55
137.37
149.63
151.45
144.09
129.48
109.84
87.56
65.04
44.43
27.28
14.25
5.08
-1.26
-6.14
-10.90
-16.48
-23.40
-31.71
-41.11
-50.95
-60.39
-68.62
-75.09
-79.76
-83.13
-85.93
-88.75
-91.65
-94.00
-94.69
-92.49
-86.52
-76.43
-62.53
-45.76
-27.50
-9.41
6.87
20.02
29.34
34.88
37.31
37.64
36.94
36.03
35.50
35.64
36.55
38.13
40.04
41.74
42.50
41.61
38.56
33.28
26.18
18.03
9.57
1.18
-7.30
-16.55
-27.27
-39.84
-53.99
-68.97
-83.75
-97.45
-109.41
-118.96
-125.20
-126.87
-122.75
-112.16
-95.63
-74.91
-52.61
-31.20
-12.22
4.19
18.99
33.50
48.40
63.16
76.13
85.21
88.89
87.07
81.16
73.60
66.87
62.52
60.71
60.33
59.61
56.92
51.31
42.77
32.16
20.82
10.17
1.31
-5.24
-9.76
-13.10
-16.55
-21.28
-27.95
-36.24
-44.90
-52.02
-55.62
-54.41
-48.21
-38.04
-25.63
-12.90
-1.30
8.35
15.78
21.02
24.03
24.70
22.81
18.30
11.41
3.19
-4.21
-7.47
-2.85
12.59
39.51
75.42
114.96
151.32
178.36
192.34
192.66
181.41
162.08
138.22
112.59
87.01
62.59
40.02
19.67
1.57
-14.66
-29.66
-43.91
-57.35
-68.98
-77.06
-79.64
-75.46
-64.57
-48.64
-30.39
-12.72
2.15
13.19
20.52
24.86
26.99
27.45
26.44
23.98
20.13
15.06
9.03
2.36
-4.62
-11.47
-17.66
-22.63
-26.01
-27.85
-28.71
-29.50
-31.13
-34.16
-38.58
-43.77
-48.85
-52.94
-55.53
-56.49
-56.05
-54.67
-52.96
-51.64
-51.44
-52.80
-55.38
-57.80
-57.72
-52.60
-40.83
-22.63
-0.29
22.56
42.33
56.74
65.36
69.30
70.17
69.16
66.69
62.68
57.20
50.96
45.07
40.55
37.61
35.46
32.72
28.16
21.52
13.71
6.46
1.47
-0.41
0.47
2.66
4.25
3.44
-1.08
-9.78
-22.38
-37.74
-53.83
-67.97
-77.25
-79.31
-73.10
-59.34
-40.35
-19.42
0.21
16.25
27.80
35.24
39.67
42.22
43.64
44.21
43.92
42.83
41.18
39.30
37.41
35.42
33.00
29.73
25.50
20.60
15.65
11.29
7.75
4.79
1.66
-2.49
-8.36
-16.22
-25.88
-36.64
-47.39
-56.54
-62.35
-63.17
-58.05
-47.11
-31.67
-13.92
3.80
19.56
32.28
41.56
47.41
49.91
49.23
45.78
40.48
34.66
29.83
27.09
26.80
28.39
30.59
31.82
30.80
26.92
20.44
12.37
4.08
-3.18
-8.78
-12.85
-16.29
-20.35
-26.15
-34.18
-44.01
-54.27
-62.96
-67.97
-67.55
-60.80
-47.83
-29.76
-8.66
12.82
31.90
46.23
54.46
56.57
53.81
48.25
41.97
36.42
32.11
28.75
25.79
22.74
19.49
16.02
12.27
7.98
2.78
-3.43
-10.33
-17.01
-22.35
-25.39
-25.79
-24.09
-21.59
-19.92
-20.51
-24.05
-30.30
-38.04
-45.47
-50.56
-51.38
-46.52
-35.33
-18.29
2.92
25.52
46.12
61.49
69.39
69.14
61.80
49.77
36.12
23.86
15.27
11.52
12.38
16.36
21.11
24.20
23.93
19.95
13.28
5.73
-0.94
-5.88
-9.42
-12.87
-17.75
-25.08
-34.84
-46.00
-56.77
-65.07
-69.03
-67.32
-59.47
-45.92
-28.02
-7.71
12.85
31.71
47.48
59.36
67.24
71.36
72.24
70.45
66.67
61.61
56.11
51.06
47.16
44.63
42.99
41.16
37.90
32.49
25.17
17.11
9.86
4.35
0.31
-3.91
-10.64
-21.82
-38.01
-57.94
-78.72
-96.71
-108.53
-111.94
-106.45
-93.20
-74.58
-53.44
-32.33
-12.99
3.74
17.61
28.58
36.50
41.08
42.16
40.09
35.85
30.90
26.63
23.91
22.65
21.99
20.80
18.21
14.11
9.16
4.35
0.56
-1.99
-3.80
-5.91
-9.53
-15.66
-24.83
-36.87
-50.82
-64.86
-76.47
-82.98
-82.28
-73.57
-57.79
-37.42
-15.65
4.55
21.32
34.11
43.37
49.85
54.08
56.19
56.12
53.96
50.29
46.05
42.30
39.76
38.59
38.37
38.30
37.55
35.53
32.01
27.20
21.57
15.70
10.05
4.80
-0.19
-5.28
-10.95
-17.63
-25.75
-35.61
-47.27
-60.23
-73.12
-83.69
-89.09
-86.77
-75.47
-55.90
-30.68
-3.54
21.90
43.09
58.97
69.56
75.40
76.98
74.76
69.29
61.57
52.99
45.02
38.67
34.28
31.55
29.81
28.36
26.68
24.39
21.24
17.06
11.86
5.83
-0.66
-7.28
-13.86
-20.46
-27.31
-34.64
-42.65
-51.48
-61.26
-72.03
-83.48
-94.57
-103.45
-107.71
-105.17
-94.73
-76.95
-53.91
-28.45
-3.22
19.97
40.10
56.55
68.58
75.29
76.04
71.03
61.59
49.88
38.23
28.48
21.57
17.67
16.52
17.71
20.78
25.05
29.48
32.82
33.88
31.92
26.89
19.43
10.64
1.62
-6.81
-14.44
-21.65
-29.21
-37.96
-48.33
-60.01
-71.75
-81.59
-87.22
-86.75
-79.29
-65.35
-46.73
-26.09
-6.15
10.97
24.12
33.17
38.65
41.37
42.04
41.18
39.09
36.09
32.54
28.89
25.62
23.00
21.13
19.80
18.66
17.28
15.36
12.75
9.48
5.69
1.53
-2.85
-7.32
-11.74
-16.00
-20.16
-24.46
-29.38
-35.47
-43.03
-51.81
-60.78
-68.15
-71.76
-69.75
-61.16
-46.40
-27.30
-6.56
12.92
28.87
40.14
46.73
49.46
49.42
47.50
44.20
39.77
34.36
28.33
22.24
16.72
12.33
9.28
7.39
6.16
4.97
3.28
0.85
-2.25
-5.77
-9.38
-12.84
-16.07
-19.05
-21.84
-24.53
-27.33
-30.52
-34.43
-39.11
-43.99
-47.68
-48.22
-43.70
-33.10
-16.87
3.01
23.68
42.25
56.67
66.12
70.87
71.85
70.15
66.75
62.49
58.08
54.11
50.96
48.64
46.73
44.51
41.20
36.22
29.43
21.20
12.26
3.46
-4.58
-11.67
-18.15
-24.63
-31.74
-39.80
-48.65
-57.70
-66.15
-73.14
-77.83
-79.40
-77.12
-70.46
-59.32
-44.30
-26.72
-8.41
8.75
23.28
34.38
41.89
46.06
47.25
45.86
42.34
37.34
31.68
26.22
21.58
17.98
15.17
12.77
10.47
8.26
6.18
4.07
1.29
-3.16
-10.17
-20.02
-32.12
-45.16
-57.64
-68.33
-76.43
-81.34
-82.36
-78.63
-69.52
-55.10
-36.61
-16.29
3.20
19.66
31.91
39.87
44.14
45.46
44.32
40.95
35.62
28.83
21.46
14.49
8.63
4.12
0.62
-2.49
-5.79
-9.57
-13.80
-18.29
-22.96
-27.94
-33.60
-40.46
-48.91
-59.00
-70.05
-80.64
-88.57
-91.41
-87.21
-75.15
-56.10
-32.39
-7.21
16.36
36.13
51.14
61.51
67.88
71.04
71.59
70.04
66.91
62.90
58.74
55.08
52.26
50.21
48.68
47.33
46.00
44.75
43.69
42.70
41.23
38.34
32.94
24.32
12.43
-1.87
-17.08
-31.40
-43.22
-51.44
-55.50
-55.41
-51.48
-44.22
-34.10
-21.58
-7.08
8.81
25.22
40.86
54.26
64.10
69.62
70.87
68.64
64.17
58.69
53.11
47.87
42.99
38.23
33.22
27.57
20.99
13.44
5.26
-2.83
-9.97
-15.47
-19.19
-21.71
-24.27
-28.50
-35.84
-46.96
-61.21
-76.36
-89.02
-95.51
-93.16
-81.37
-61.95
-38.60
-15.56
3.72
17.52
25.69
29.07
28.57
24.75
17.98
8.90
-1.10
-9.92
-15.28
-15.38
-9.53
1.63
16.24
31.74
45.36
54.82
58.65
56.42
48.77
37.05
23.05
8.55
-4.99
-16.59
-25.86
-33.01
-38.76
-44.10
-49.96
-56.77
-64.15
-70.83
-75.05
-75.04
-69.72
-59.12
-44.35
-27.35
-10.28
4.99
17.32
26.41
32.65
36.72
39.21
40.44
40.49
39.58
38.25
37.35
37.65
39.34
41.71
43.29
42.55
38.67
32.04
24.17
16.94
11.85
9.34
8.75
8.73
7.74
4.47
-2.00
-12.08
-25.62
-41.70
-58.54
-73.69
-84.48
-88.79
-85.62
-75.40
-59.75
-41.09
-21.97
-4.63
9.33
19.01
24.38
26.05
25.12
22.88
20.45
18.53
17.33
16.73
16.39
15.95
15.08
13.54
11.09
7.62
3.18
-1.97
-7.34
-12.29
-16.24
-18.86
-20.16
-20.60
-21.02
-22.48
-26.08
-32.56
-42.08
-53.86
-66.15
-76.35
-81.65
-79.81
-69.97
-53.01
-31.38
-8.41
12.73
29.80
41.86
49.10
52.31
52.31
49.75
45.05
38.64
31.14
23.45
16.57
11.33
8.14
6.88
6.83
6.95
6.09
3.36
-1.60
-8.56
-16.70
-24.89
-32.01
-37.29
-40.53
-42.19
-43.29
-45.21
-49.18
-55.81
-64.44
-72.96
-77.99
-75.88
-63.97
-41.75
-11.28
23.37
57.41
86.75
108.94
123.24
130.10
130.40
125.10
115.22
102.07
87.40
73.13
60.90
51.60
45.16
40.68
36.97
33.04
28.51
23.59
18.86
14.88
11.78
9.29
6.72
3.25
-1.82
-9.05
-18.75
-30.92
-45.07
-59.89
-73.24
-82.46
-85.06
-79.63
-66.37
-47.14
-24.84
-2.56
17.21
32.98
44.08
50.42
52.14
49.53
43.11
33.81
23.01
12.35
3.41
-2.72
-5.69
-5.93
-4.48
-2.61
-1.44
-1.66
-3.40
-6.39
-10.15
-14.25
-18.44
-22.59
-26.69
-30.71
-34.64
-38.63
-42.94
-47.86
-53.30
-58.60
-62.35
-62.78
-58.34
-48.36
-33.48
-15.46
3.34
20.59
34.61
44.53
50.21
51.99
50.46
46.27
40.11
32.75
25.00
17.65
11.42
6.85
4.08
2.89
2.69
2.74
2.32
0.97
-1.43
-4.85
-9.19
-14.46
-20.68
-27.66
-34.75
-40.65
-43.87
-43.33
-39.04
-32.24
-24.90
-18.75
-14.42
-11.19
-7.46
-1.70
6.74
17.31
28.64
39.17
47.76
53.85
57.32
58.21
56.61
52.78
47.24
40.83
34.52
29.20
25.32
22.85
21.27
19.82
17.85
15.06
11.56
7.86
4.45
1.55
-1.14
-4.37
-9.09
-15.92
-24.67
-34.17
-42.43
-47.20
-46.74
-40.40
-28.87
-13.83
2.61
18.58
32.73
44.25
52.65
57.50
58.44
55.36
48.73
39.61
29.46
19.67
11.11
3.89
-2.42
-8.40
-14.27
-19.78
-24.32
-27.39
-28.97
-29.67
-30.49
-32.49
-36.29
-41.89
-48.66
-55.53
-61.19
-64.35
-63.94
-59.28
-50.34
-37.82
-23.09
-7.90
6.04
17.46
25.69
30.65
32.59
31.89
28.99
24.40
18.76
12.84
7.44
3.09
-0.10
-2.44
-4.55
-7.04
-10.25
-14.18
-18.54
-22.94
-27.17
-31.33
-35.77
-40.90
-46.91
-53.48
-59.77
-64.44
-66.14
-63.80
-57.00
-46.09
-32.10
-16.47
-0.76
13.61
25.55
34.44
40.05
42.60
42.58
40.71
37.74
34.33
30.87
27.49
24.17
20.83
17.55
14.52
12.01
10.17
8.91
7.80
6.22
3.43
-1.25
-8.16
-17.17
-27.45
-37.41
-44.89
-47.65
-44.05
-33.73
-17.81
1.37
20.94
38.43
52.36
62.35
68.80
72.33
73.44
72.37
69.33
64.67
58.94
52.73
46.33
39.66
32.28
23.78
14.04
3.44
-7.32
-17.46
-26.45
-34.24
-41.23
-48.14
-55.65
-64.18
-73.51
-82.74
-90.28
-94.21
-92.77
-84.98
-71.04
-52.43
-31.53
-10.92
7.33
22.10
33.25
41.33
47.02
50.87
53.13
53.84
53.01
50.76
47.33
42.98
37.94
32.40
26.60
20.91
15.82
11.73
8.58
5.60
1.41
-5.52
-16.13
-30.20
-46.20
-61.64
-73.73
-80.10
-79.39
-71.43
-57.28
-38.88
-18.78
0.39
16.42
27.93
34.50
36.59
35.14
31.25
25.90
19.82
13.47
7.07
0.70
-5.65
-11.89
-17.77
-22.97
-27.17
-30.25
-32.41
-34.16
-36.24
-39.49
-44.63
-52.07
-61.57
-72.06
-81.55
-87.49
-87.45
-79.92
-64.89
-43.92
-19.72
4.69
26.77
44.91
58.45
67.43
72.12
72.82
69.85
63.74
55.33
45.80
36.45
28.37
22.18
17.93
15.33
14.04
13.94
15.03
17.24
19.97
22.01
21.76
17.72
9.20
-3.35
-18.28
-33.15
-45.21
-52.02
-51.90
-44.17
-29.39
-9.29
13.50
35.90
55.08
69.05
76.93
78.88
75.82
69.04
59.93
49.86
40.21
32.35
27.39
25.83
27.35
30.65
33.78
34.70
31.99
25.27
15.34
3.82
-7.50
-17.28
-25.15
-31.71
-38.26
-46.20
-56.36
-68.46
-80.98
-91.36
-96.75
-94.98
-85.34
-68.97
-48.66
-27.98
-10.21
2.59
10.15
13.87
16.16
19.46
25.43
34.49
46.00
58.76
71.59
83.66
94.49
103.59
110.24
113.51
112.51
106.84
96.97
84.21
70.48
57.64
46.91
38.31
30.59
21.51
8.74
-9.08
-31.45
-55.76
-78.01
-94.16
-101.60
-100.12
-91.86
-80.29
-68.79
-59.46
-52.62
-47.31
-42.16
-36.34
-29.88
-23.52
-17.97
-13.50
-9.69
-5.72
-0.74
5.72
13.60
22.45
31.54
40.09
47.40
52.92
56.33
57.62
57.02
54.91
51.65
47.51
42.56
36.67
29.48
20.50
9.36
-3.86
-18.26
-32.01
-42.67
-47.82
-45.92
-36.77
-21.55
-2.50
17.68
36.27
50.84
59.47
61.07
55.65
44.58
30.36
16.08
4.52
-2.62
-5.07
-3.81
-0.47
3.26
6.04
7.04
5.94
2.80
-1.89
-7.45
-13.12
-18.32
-22.86
-27.09
-31.77
-37.81
-45.83
-55.80
-66.76
-76.93
-83.97
-85.69
-80.66
-68.85
-51.78
-32.11
-12.81
3.71
16.13
24.27
28.66
29.97
28.59
24.72
18.64
11.02
3.09
-3.70
-8.09
-9.55
-8.45
-5.87
-3.16
-1.35
-0.83
-1.30
-2.13
-2.74
-3.00
-3.28
-4.27
-6.64
-10.83
-16.84
-24.27
-32.32
-39.75
-44.96
-46.23
-42.09
-31.95
-16.49
2.47
22.33
40.57
55.34
65.78
71.87
74.05
72.88
68.94
62.93
55.77
48.50
42.07
37.03
33.45
30.91
28.81
26.64
24.14
21.30
18.26
15.16
11.98
8.48
4.24
-1.29
-8.62
-17.92
-28.79
-39.97
-49.52
-55.18
-55.09
-48.52
-36.12
-19.89
-2.44
13.72
26.84
36.13
41.53
43.44
42.34
38.73
33.19
26.42
19.26
12.44
6.50
1.64
-2.21
-5.29
-7.85
-10.12
-12.31
-14.65
-17.43
-21.06
-25.93
-32.44
-40.66
-50.16
-59.83
-67.86
-72.19
-71.02
-63.50
-50.13
-32.68
-13.75
4.10
18.90
29.75
36.58
39.91
40.33
38.35
34.33
28.71
22.04
15.05
8.47
2.81
-1.70
-5.23
-8.16
-10.98
-14.12
-17.88
-22.41
-27.85
-34.30
-41.88
-50.45
-59.43
-67.65
-73.37
-74.69
-70.12
-59.20
-42.77
-22.91
-2.37
16.25
31.13
41.51
47.58
50.07
49.82
47.55
43.75
38.83
33.14
27.08
21.00
15.22
9.95
5.31
1.39
-1.74
-4.10
-5.85
-7.42
-9.61
-13.48
-20.05
-29.79
-42.06
-54.90
-65.36
-70.42
-68.08
-58.11
-42.13
-22.95
-3.47
14.20
29.06
41.01
50.24
56.79
60.46
61.07
58.82
54.43
49.02
43.56
38.58
33.95
29.12
23.59
17.24
10.53
4.28
-0.77
-4.36
-6.91
-9.29
-12.55
-17.52
-24.59
-33.67
-44.22
-55.22
-65.16
-72.18
-74.38
-70.36
-59.78
-43.62
-23.86
-2.99
16.80
34.08
48.28
59.30
67.22
72.04
73.72
72.45
68.85
63.93
58.83
54.40
50.94
48.14
45.31
41.72
36.93
30.95
24.18
17.17
10.44
4.31
-1.15
-6.03
-10.47
-14.66
-18.76
-23.01
-27.71
-33.23
-39.92
-47.88
-56.78
-65.66
-72.97
-76.92
-75.98
-69.45
-57.71
-42.11
-24.44
-6.36
10.98
27.02
41.48
54.03
64.15
71.22
74.86
75.12
72.56
68.01
62.30
56.09
49.90
44.25
39.73
36.87
35.93
36.65
38.26
39.57
39.42
36.97
32.01
24.84
16.15
6.67
-3.01
-12.66
-22.37
-32.55
-43.67
-55.93
-68.86
-81.10
-90.49
-94.72
-92.04
-82.02
-65.86
-45.99
-25.25
-6.02
10.39
23.68
34.10
41.91
47.10
49.57
49.45
47.37
44.29
41.24
38.81
36.97
35.28
33.20
30.48
27.30
24.15
21.52
19.54
17.85
15.76
12.54
7.76
1.54
-5.53
-12.67
-19.23
-24.93
-30.03
-35.21
-41.34
-49.18
-58.97
-70.23
-81.59
-90.97
-96.06
-94.96
-86.83
-72.19
-52.79
-31.06
-9.36
10.58
27.80
42.02
53.18
61.24
66.07
67.62
66.19
62.48
57.58
52.69
48.76
46.21
44.84
43.91
42.58
40.28
36.96
33.19
29.76
27.29
25.87
24.96
23.56
20.71
15.87
9.09
0.92
-7.85
-16.52
-24.63
-31.91
-38.27
-43.79
-48.69
-53.28
-57.75
-61.90
-64.85
-65.22
-61.50
-52.76
-39.17
-22.13
-3.79
13.63
28.67
40.84
50.67
59.14
67.28
75.75
84.52
92.85
99.33
102.31
100.53
93.69
82.81
69.87
57.18
46.48
38.48
32.88
28.88
25.70
22.88
20.17
17.30
13.78
9.04
2.74
-5.02
-13.57
-22.02
-29.56
-35.80
-40.86
-45.20
-49.42
-53.97
-59.07
-64.63
-70.42
-76.09
-81.20
-85.15
-87.21
-86.58
-82.74
-75.63
-65.83
-54.42
-42.57
-31.16
-20.54
-10.66
-1.42
6.98
13.99
18.88
21.20
21.08
19.28
16.90
14.87
13.69
13.21
12.88
12.14
10.67
8.56
6.20
3.97
2.03
0.18
-2.06
-5.12
-9.23
-14.18
-19.46
-24.41
-28.53
-31.63
-33.93
-35.95
-38.42
-42.04
-47.38
-54.62
-63.30
-72.24
-79.58
-83.13
-81.07
-72.53
-58.06
-39.57
-19.73
-1.15
14.36
26.19
34.77
41.05
45.88
49.59
51.96
52.53
51.01
47.56
42.85
37.77
33.13
29.36
26.40
23.94
21.62
19.27
16.88
14.52
12.14
9.49
6.25
2.22
-2.51
-7.46
-11.94
-15.30
-17.22
-17.88
-18.03
-18.78
-21.41
-26.91
-35.62
-46.91
-59.11
-69.71
-76.03
-76.00
-68.82
-55.25
-37.32
-17.68
1.16
17.39
30.03
38.84
43.95
45.75
44.78
41.80
37.78
33.69
30.23
27.68
25.77
23.96
21.65
18.54
14.74
10.72
7.14
4.58
3.44
3.82
5.48
7.88
10.18
11.39
10.59
7.21
1.17
-7.01
-16.34
-25.53
-33.15
-37.77
-38.16
-33.58
-24.05
-10.53
5.21
21.05
35.08
46.13
53.86
58.57
60.78
60.91
59.11
55.39
49.81
42.62
34.29
25.44
16.78
8.87
2.03
-3.80
-8.97
-14.01
-19.34
-25.09
-31.08
-36.95
-42.39
-47.39
-52.22
-57.26
-62.73
-68.41
-73.51
-76.77
-76.75
-72.27
-62.91
-49.19
-32.57
-15.06
1.35
15.18
25.70
32.84
36.97
38.65
38.45
36.88
34.34
31.11
27.22
22.53
16.92
10.43
3.42
-3.47
-9.51
-14.15
-17.10
-18.46
-18.67
-18.47
-18.83
-20.76
-24.99
-31.74
-40.29
-49.02
-55.70
-58.12
-54.74
-45.30
-30.88
-13.61
4.04
19.91
32.62
41.71
47.32
49.92
50.00
48.00
44.34
39.45
33.81
27.88
22.03
16.45
11.22
6.30
1.61
-2.86
-7.07
-10.88
-14.23
-17.24
-20.36
-24.30
-29.79
-37.19
-46.15
-55.39
-62.98
-66.79
-65.17
-57.52
-44.48
-27.78
-9.68
7.63
22.53
34.17
42.34
47.24
49.15
48.37
45.32
40.61
35.10
29.71
25.12
21.58
18.74
15.92
12.40
7.79
2.15
-4.04
-10.16
-15.78
-20.84
-25.70
-31.02
-37.49
-45.56
-55.28
-66.08
-76.82
-85.80
-91.18
-91.33
-85.36
-73.39
-56.60
-36.84
-16.21
3.46
20.86
35.16
45.91
52.87
56.03
55.69
52.57
47.76
42.49
37.75
34.06
31.38
29.21
26.95
24.14
20.61
16.53
12.21
7.90
3.66
-0.71
-5.58
-11.41
-18.61
-27.41
-37.73
-49.01
-60.05
-69.10
-74.18
-73.68
-66.93
-54.59
-38.41
-20.78
-3.98
10.49
22.06
30.95
37.73
42.94
46.81
49.30
50.24
49.58
47.45
44.23
40.43
36.66
33.42
30.98
29.40
28.37
27.43
25.98
23.53
19.81
14.85
8.97
2.71
-3.34
-8.70
-13.20
-17.00
-20.71
-25.14
-30.98
-38.38
-46.53
-53.64
-57.38
-55.66
-47.56
-33.80
-16.59
1.08
16.54
28.21
35.89
40.50
43.33
45.48
47.41
49.07
50.11
50.24
49.40
47.71
45.31
42.18
38.16
33.09
27.11
20.80
15.12
11.08
9.17
9.02
9.38
8.62
5.37
-0.78
-9.13
-18.22
-26.46
-32.91
-37.57
-41.31
-45.42
-51.01
-58.51
-67.34
-75.95
-82.12
-83.45
-78.13
-65.62
-46.97
-24.62
-1.68
19.02
35.76
48.14
56.79
62.73
66.68
68.94
69.45
68.23
65.62
62.28
58.92
55.99
53.52
51.21
48.73
45.88
42.73
39.41
35.98
32.27
27.96
22.70
16.44
9.39
2.05
-5.03
-11.44
-17.09
-22.23
-27.36
-33.10
-39.87
-47.60
-55.52
-62.15
-65.61
-64.16
-56.85
-43.87
-26.68
-7.55
11.07
27.21
39.75
48.39
53.39
55.23
54.32
51.04
45.85
39.43
32.69
26.61
21.93
18.97
17.52
16.91
16.30
14.90
12.29
8.41
3.59
-1.61
-6.67
-11.26
-15.39
-19.45
-24.11
-30.09
-37.90
-47.53
-58.22
-68.42
-75.98
-78.69
-74.88
-64.05
-47.25
-26.76
-5.50
13.89
29.70
41.38
49.22
53.76
55.34
54.01
49.81
43.17
35.11
27.01
20.29
15.76
13.49
12.78
12.61
12.02
10.50
8.03
5.02
1.93
-0.99
-3.83
-7.06
-11.35
-17.32
-25.26
-35.02
-45.89
-56.60
-65.38
-70.11
-68.83
-60.19
-44.18
-22.44
1.95
25.29
44.32
57.19
63.81
65.37
63.51
59.41
53.52
45.85
36.62
26.82
18.08
12.12
9.92
11.20
14.45
17.61
18.93
17.57
13.81
8.69
3.25
-1.89
-6.83
-12.19
-18.67
-26.71
-36.32
-47.13
-58.52
-69.75
-79.80
-87.40
-90.99
-89.14
-81.01
-66.88
-48.19
-27.28
-6.72
11.41
25.97
36.81
44.39
49.40
52.36
53.51
52.93
50.71
47.09
42.55
37.64
32.89
28.62
24.89
21.47
18.00
14.10
9.61
4.56
-0.81
-6.23
-11.53
-16.71
-21.98
-27.66
-34.10
-41.62
-50.40
-60.40
-71.11
-81.45
-89.63
-93.51
-91.14
-81.48
-64.90
-43.33
-19.67
3.03
22.38
37.17
47.33
53.45
56.35
56.67
54.84
51.31
46.72
41.87
37.60
34.47
32.55
31.42
30.34
28.60
25.76
21.82
17.10
12.10
7.22
2.69
-1.50
-5.52
-9.55
-13.86
-18.79
-24.75
-32.14
-41.23
-51.80
-62.93
-72.90
-79.46
-80.35
-74.10
-60.61
-41.33
-19.03
3.12
22.41
37.32
47.66
54.21
58.06
60.01
60.30
58.84
55.50
50.57
44.86
39.51
35.57
33.63
33.60
34.76
36.17
36.97
36.64
35.02
32.18
28.23
23.20
17.11
10.11
2.52
-5.23
-12.71
-19.85
-26.92
-34.43
-42.77
-51.69
-60.05
-65.91
-67.03
-61.73
-49.62
-31.92
-11.17
9.59
27.73
41.73
51.32
57.12
60.06
60.94
60.15
57.87
54.23
49.59
44.49
39.56
35.31
31.93
29.32
27.10
24.78
21.87
18.06
13.22
7.48
1.16
-5.33
-11.60
-17.42
-22.76
-27.83
-33.05
-38.84
-45.47
-52.81
-60.13
-66.10
-69.05
-67.35
-60.02
-47.12
-29.85
-10.28
9.21
26.61
40.65
50.93
57.68
61.42
62.55
61.25
57.57
51.61
43.82
35.03
26.36
18.82
12.97
8.71
5.34
1.94
-2.16
-7.10
-12.41
-17.35
-21.39
-24.55
-27.44
-31.05
-36.26
-43.48
-52.43
-62.15
-71.16
-77.80
-80.52
-78.13
-70.08
-56.59
-38.68
-17.95
3.66
24.32
42.52
57.23
67.85
74.18
76.37
75.03
71.16
66.12
61.39
58.26
57.51
59.21
62.52
65.84
67.17
64.78
57.83
46.74
33.06
18.95
6.24
-4.13
-12.33
-19.28
-25.96
-32.89
-39.90
-46.29
-51.25
-54.10
-54.44
-52.06
-46.90
-39.07
-28.93
-17.15
-4.73
7.16
17.36
25.04
29.84
31.86
31.60
29.65
26.55
22.67
18.24
13.47
8.62
3.97
-0.28
-4.09
-7.70
-11.43
-15.58
-20.27
-25.37
-30.76
-36.41
-42.53
-49.46
-57.51
-66.74
-76.90
-87.35
-97.18
-105.17
-110.00
-110.34
-105.30
-94.73
-79.41
-61.05
-41.75
-23.48
-7.61
5.26
15.09
22.08
26.44
28.35
28.08
26.15
23.31
20.38
18.02
16.49
15.59
14.74
13.27
10.69
6.98
2.64
-1.49
-4.71
-6.80
-8.31
-10.30
-13.97
-20.03
-28.52
-38.84
-50.03
-61.10
-71.03
-78.77
-83.12
-83.03
-77.96
-68.11
-54.50
-38.32
-20.41
-0.86
20.68
44.33
69.10
92.66
111.78
123.49
126.18
120.23
107.81
91.95
75.57
60.60
47.94
37.63
29.41
23.07
18.43
15.26
13.00
10.89
8.06
3.98
-1.50
-8.09
-15.38
-23.10
-31.28
-40.07
-49.45
-58.80
-66.79
-71.47
-70.86
-63.66
-49.83
-30.81
-9.23
11.84
29.77
43.08
51.65
56.40
58.66
59.55
59.66
59.08
57.74
55.70
53.25
50.82
48.76
47.19
45.89
44.52
42.61
39.78
35.81
30.62
24.30
17.11
9.46
1.79
-5.44
-11.82
-17.14
-21.45
-25.23
-29.39
-35.11
-43.23
-53.69
-65.06
-74.67
-79.40
-76.80
-66.15
-48.73
-27.36
-5.34
14.63
31.11
43.82
53.19
59.73
63.70
65.07
63.72
59.72
53.52
45.97
38.17
31.21
25.90
22.59
21.10
20.87
21.25
21.63
21.60
20.90
19.35
16.89
13.51
9.43
4.98
0.52
-3.83
-8.34
-13.72
-20.79
-30.09
-41.31
-53.06
-62.97
-68.40
-67.27
-58.92
-44.36
-26.04
-6.93
10.38
24.29
34.43
41.19
45.30
47.37
47.82
46.99
45.22
43.00
40.77
38.79
37.08
35.41
33.48
31.01
27.87
24.13
19.95
15.50
10.87
6.11
1.21
-3.78
-8.78
-13.65
-18.34
-23.00
-27.99
-33.78
-40.66
-48.43
-56.19
-62.40
-65.28
-63.37
-56.05
-43.89
-28.48
-12.00
3.41
16.18
25.53
31.39
34.10
34.03
31.52
26.91
20.66
13.49
6.29
-0.14
-5.26
-8.97
-11.54
-13.44
-15.17
-17.12
-19.52
-22.45
-25.85
-29.49
-33.01
-36.02
-38.31
-39.98
-41.55
-43.79
-47.40
-52.57
-58.74
-64.52
-67.98
-67.28
-61.23
-49.75
-33.85
-15.35
3.68
21.39
36.38
47.75
55.04
58.13
57.30
53.29
47.23
40.49
34.36
29.68
26.68
24.90
23.49
21.50
18.22
13.35
7.06
-0.12
-7.56
-14.74
-21.42
-27.74
-34.11
-41.00
-48.76
-57.31
-66.05
-73.82
-79.04
-80.06
-75.74
-65.79
-51.02
-33.16
-14.43
3.13
18.12
29.93
38.54
44.17
46.97
47.00
44.31
39.22
32.40
24.82
17.44
10.93
5.54
1.24
-2.16
-4.71
-6.31
-6.81
-6.24
-4.99
-3.82
-3.63
-5.25
-9.16
-15.50
-24.00
-34.06
-44.75
-54.67
-62.05
-65.10
-62.55
-54.19
-41.20
-25.84
-10.76
2.00
11.65
18.80
24.91
31.40
38.90
46.88
54.02
58.91
60.83
60.09
57.81
55.25
53.11
51.09
48.06
42.77
34.63
24.16
12.72
1.84
-7.48
-15.18
-21.90
-28.52
-35.69
-43.63
-52.26
-61.35
-70.44
-78.66
-84.57
-86.37
-82.44
-72.07
-55.88
-35.75
-14.19
6.39
24.27
38.61
49.30
56.55
60.75
62.38
62.04
60.48
58.39
56.21
53.87
50.85
46.46
40.36
32.81
24.67
17.00
10.46
5.08
0.40
-4.08
-8.38
-12.09
-14.66
-16.08
-17.14
-19.22
-23.70
-31.14
-40.84
-50.93
-58.92
-62.49
-60.09
-51.26
-36.63
-17.64
3.76
25.44
45.39
62.00
74.25
81.76
84.79
84.06
80.56
75.37
69.38
63.25
57.35
51.79
46.50
41.34
36.29
31.52
27.40
24.44
22.95
22.79
23.23
23.13
21.40
17.44
11.42
4.10
-3.62
-11.11
-18.33
-25.57
-33.12
-40.76
-47.59
-52.11
-52.62
-47.69
-36.77
-20.54
-1.09
18.40
34.52
44.60
47.67
44.60
37.56
28.94
20.36
12.17
3.87
-5.19
-15.13
-25.33
-34.73
-42.26
-47.13
-48.68
-46.38
-39.83
-29.12
-15.13
0.34
14.93
26.35
33.04
34.49
31.19
24.13
14.42
2.96
-9.64
-22.98
-36.63
-50.03
-62.24
-71.90
-77.32
-76.86
-69.46
-55.14
-35.13
-11.69
12.49
34.83
53.42
67.05
75.21
77.83
75.19
67.95
57.18
44.40
31.35
19.66
10.50
4.43
1.29
0.47
1.16
2.56
4.11
5.44
6.35
6.76
6.64
5.91
4.42
1.78
-2.52
-9.05
-18.11
-29.40
-41.86
-53.81
-63.28
-68.55
-68.55
-62.95
-52.14
-37.06
-19.09
-0.01
18.13
33.32
43.93
49.15
49.15
44.92
37.93
29.65
21.25
13.49
6.85
1.54
-2.48
-5.48
-7.92
-10.33
-13.03
-16.07
-19.21
-22.09
-24.55
-26.76
-29.27
-32.83
-38.05
-45.11
-53.54
-62.27
-69.73
-74.28
-74.56
-69.93
-60.66
-47.87
-33.21
-18.42
-4.84
6.68
15.76
22.28
26.21
27.47
26.08
22.27
16.58
9.79
2.86
-3.35
-8.20
-11.36
-12.77
-12.63
-11.35
-9.44
-7.44
-5.85
-5.09
-5.48
-7.24
-10.59
-15.70
-22.63
-31.18
-40.60
-49.54
-56.09
-58.24
-54.49
-44.34
-28.54
-8.82
12.70
34.04
53.80
71.09
85.24
95.56
101.23
101.61
96.68
87.39
75.67
63.97
54.42
48.14
44.91
43.43
42.03
39.43
35.23
29.82
23.96
18.23
12.69
6.94
0.43
-7.20
-15.76
-24.58
-32.65
-38.83
-42.15
-41.98
-38.08
-30.69
-20.48
-8.51
3.96
15.60
25.30
32.26
36.09
36.80
34.60
29.87
23.11
14.94
6.12
-2.53
-10.36
-17.01
-22.48
-26.98
-30.71
-33.60
-35.38
-35.78
-34.86
-33.25
-31.98
-32.23
-34.79
-39.76
-46.49
-53.76
-60.10
-64.12
-64.68
-61.02
-52.84
-40.33
-24.27
-6.01
12.76
30.29
45.06
56.19
63.38
66.95
67.56
66.02
63.11
59.40
55.32
51.10
46.85
42.60
38.34
34.08
29.77
25.42
21.00
16.52
11.89
6.94
1.38
-5.09
-12.60
-20.89
-29.22
-36.39
-41.01
-41.89
-38.37
-30.61
-19.47
-6.39
7.04
19.40
29.65
37.28
42.16
44.41
44.20
41.71
37.09
30.64
22.80
14.14
5.27
-3.28
-11.07
-17.76
-23.15
-27.20
-30.08
-32.22
-34.22
-36.67
-40.05
-44.61
-50.42
-57.29
-64.66
-71.48
-76.25
-77.30
-73.31
-63.79
-49.35
-31.50
-12.25
6.56
23.58
38.05
49.66
58.25
63.78
66.29
66.11
63.93
60.71
57.44
54.87
53.21
52.08
50.73
48.40
44.64
39.52
33.49
27.12
20.75
14.32
7.46
-0.41
-9.74
-20.71
-33.13
-46.48
-59.93
-72.39
-82.54
-89.07
-90.90
-87.64
-79.79
-68.72
-56.31
-44.35
-34.06
-25.86
-19.55
-14.72
-11.11
-8.78
-7.98
-8.87
-11.28
-14.73
-18.54
-22.15
-25.30
-28.11
-31.01
-34.47
-38.85
-44.12
-49.95
-55.78
-61.12
-65.81
-70.09
-74.63
-80.24
-87.59
-96.98
-108.17
-120.30
-131.91
-141.01
-145.37
-142.92
-132.32
-113.49
-87.82
-57.86
-26.62
3.24
29.93
52.70
71.43
86.15
96.68
102.70
104.12
101.43
95.85
89.03
82.54
77.29
73.33
69.93
66.06
60.86
54.09
46.25
38.32
31.44
26.42
23.51
22.26
21.71
20.57
17.66
12.13
3.84
-6.51
-17.35
-26.62
-32.26
-32.85
-28.01
-18.49
-5.86
8.11
21.89
34.53
45.57
54.84
62.17
67.29
69.89
69.80
67.14
62.43
56.53
50.36
44.75
40.08
36.30
32.98
29.59
25.79
21.54
17.08
12.73
8.65
4.71
0.51
-4.53
-10.99
-19.24
-29.26
-40.47
-51.63
-60.95
-66.35
-66.00
-58.89
-45.18
-26.27
-4.41
17.87
38.34
55.55
68.84
78.22
84.04
86.77
86.83
84.68
80.83
75.91
70.57
65.38
60.60
56.23
52.04
47.69
42.96
37.83
32.51
27.27
22.34
17.79
13.48
9.12
4.33
-1.27
-8.08
-16.45
-26.51
-37.94
-49.72
-60.04
-66.57
-67.10
-60.33
-46.42
-27.05
-4.98
16.87
36.22
51.80
63.30
70.94
75.11
76.12
74.31
70.15
64.36
57.84
51.32
45.30
39.79
34.45
28.68
21.92
13.91
4.83
-4.67
-13.64
-21.22
-26.94
-30.88
-33.65
-36.14
-39.26
-43.64
-49.55
-56.76
-64.52
-71.61
-76.39
-77.17
-72.53
-61.85
-45.57
-25.21
-3.11
18.17
36.47
50.49
59.95
65.33
67.43
67.05
64.64
60.51
54.99
48.57
42.02
36.05
31.12
27.27
24.11
21.09
17.75
13.91
9.65
5.24
0.91
-3.31
-7.55
-12.13
-17.39
-23.62
-30.94
-39.29
-48.35
-57.47
-65.62
-71.54
-73.92
-71.69
-64.38
-52.33
-36.64
-18.99
-1.27
14.80
27.96
37.50
43.25
45.45
44.55
41.08
35.62
28.76
21.20
13.69
6.97
1.55
-2.48
-5.44
-7.99
-10.79
-14.28
-18.49
-23.09
-27.60
-31.66
-35.21
-38.52
-42.16
-46.81
-53.06
-61.20
-70.88
-80.98
-89.60
-94.38
-93.14
-84.55
-68.72
-47.27
-22.95
1.09
22.18
38.66
50.04
56.73
59.53
59.26
56.56
52.04
46.45
40.72
35.80
32.34
30.37
29.27
28.02
25.68
21.83
16.71
11.07
5.72
1.13
-2.77
-6.59
-11.17
-17.30
-25.43
-35.49
-46.87
-58.37
-68.34
-74.95
-76.59
-72.33
-62.25
-47.51
-30.02
-11.97
4.80
19.13
30.49
38.77
43.86
45.53
43.52
37.93
29.52
19.74
10.39
2.98
-1.79
-4.17
-5.20
-6.06
-7.57
-9.79
-12.18
-13.97
-14.74
-14.71
-14.84
-16.49
-20.96
-29.00
-40.46
-54.26
-68.44
-80.51
-87.78
-87.92
-79.52
-62.66
-39.09
-12.04
14.72
37.93
55.75
68.20
76.71
83.25
89.26
95.07
99.89
102.33
101.25
96.36
88.38
78.80
69.19
60.74
53.85
48.28
43.52
39.16
35.05
31.17
27.44
23.50
18.76
12.62
4.76
-4.70
-15.30
-26.39
-37.32
-47.42
-55.95
-62.02
-64.65
-63.06
-56.98
-46.85
-33.82
-19.51
-5.56
6.72
16.58
23.88
28.88
31.99
33.51
33.63
32.44
30.05
26.79
23.12
19.61
16.77
14.82
13.69
13.03
12.35
11.16
9.11
6.05
2.05
-2.70
-7.90
-13.29
-18.73
-24.27
-30.16
-36.70
-44.09
-52.17
-60.22
-67.01
-71.03
-70.87
-65.72
-55.63
-41.55
-25.08
-8.00
8.10
22.09
33.28
41.31
46.06
47.53
45.99
41.95
36.17
29.48
22.67
16.30
10.70
5.97
2.04
-1.34
-4.46
-7.65
-11.14
-14.96
-19.04
-23.25
-27.62
-32.34
-37.83
-44.43
-52.23
-60.94
-69.77
-77.63
-83.15
-85.00
-82.12
-73.99
-60.89
-43.87
-24.55
-4.70
14.15
30.95
45.04
55.99
63.42
67.04
66.82
63.27
57.49
50.90
44.97
40.66
38.28
37.42
37.13
36.29
33.99
29.83
23.99
17.12
9.99
3.08
-3.56
-10.36
-17.92
-26.71
-36.82
-47.81
-58.82
-68.61
-75.67
-78.48
-75.80
-67.14
-53.10
-35.40
-16.54
0.95
15.26
25.74
32.70
36.97
39.18
39.48
37.57
33.18
26.42
18.02
9.15
1.01
-5.65
-10.69
-14.56
-17.97
-21.54
-25.58
-29.99
-34.49
-38.88
-43.25
-48.10
-54.12
-61.95
-71.84
-83.42
-95.68
-107.08
-115.74
-119.70
-117.31
-107.64
-90.84
-68.24
-42.10
-15.07
10.51
33.01
51.71
66.48
77.36
84.33
87.30
86.34
82.00
75.33
67.78
60.66
54.85
50.46
46.99
43.61
39.70
35.24
30.81
27.34
25.50
25.26
25.69
25.16
21.98
15.00
4.02
-10.22
-26.18
-42.02
-55.73
-65.43
-69.41
-66.46
-56.21
-39.33
-17.56
6.76
31.36
54.65
75.93
94.89
110.91
122.45
127.28
123.39
110.30
89.86
66.13
44.08
27.82
19.23
17.55
20.11
23.73
26.01
25.87
23.39
19.19
13.78
7.33
-0.22
-8.93
-18.62
-28.84
-38.99
-48.43
-56.54
-62.76
-66.47
-67.10
-64.15
-57.29
-46.55
-32.43
-15.98
1.25
17.45
30.95
40.56
45.89
47.32
45.67
41.88
36.68
30.58
23.97
17.28
11.05
5.72
1.47
-1.90
-4.91
-8.07
-11.62
-15.30
-18.53
-20.72
-21.62
-21.46
-20.95
-20.97
-22.34
-25.47
-30.34
-36.39
-42.62
-47.68
-50.14
-48.79
-42.99
-32.94
-19.68
-4.74
10.25
24.02
35.83
45.37
52.54
57.24
59.35
58.97
56.50
52.72
48.56
44.74
41.49
38.51
35.24
31.22
26.39
21.13
16.07
11.77
8.38
5.60
2.72
-1.18
-6.90
-14.93
-25.16
-36.84
-48.52
-58.29
-64.26
-65.01
-60.07
-50.07
-36.56
-21.54
-6.92
5.92
16.27
23.93
28.90
31.16
30.63
27.38
21.79
14.68
7.11
0.04
-5.94
-10.81
-14.89
-18.59
-22.04
-25.09
-27.36
-28.60
-28.89
-28.74
-28.94
-30.38
-33.90
-40.09
-49.20
-61.03
-74.71
-88.60
-100.43
-107.73
-108.44
-101.59
-87.55
-68.01
-45.45
-22.49
-1.33
16.58
30.53
40.40
46.44
49.13
49.10
47.05
43.78
40.04
36.57
33.84
32.08
31.11
30.47
29.55
27.88
25.29
21.97
18.37
14.86
11.55
8.21
4.26
-0.91
-7.76
-16.40
-26.52
-37.36
-47.77
-56.28
-61.25
-61.26
-55.41
-43.71
-27.17
-7.64
12.68
31.72
47.94
60.55
69.33
74.46
76.20
74.78
70.37
63.29
54.09
43.73
33.41
24.29
17.15
12.14
8.78
6.11
3.18
-0.68
-5.66
-11.53
-17.84
-24.20
-30.48
-36.77
-43.39
-50.70
-59.00
-68.35
-78.42
-88.42
-97.09
-102.91
-104.44
-100.63
-91.07
-76.15
-56.92
-35.00
-12.30
9.29
28.14
43.19
54.04
60.89
64.27
64.84
63.25
60.18
56.46
53.19
51.55
52.40
55.88
61.28
67.11
71.69
73.64
72.34
68.01
61.48
53.83
46.09
38.91
32.47
26.47
20.18
12.80
3.83
-6.57
-17.41
-27.12
-34.04
-37.10
-36.16
-32.01
-25.91
-18.94
-11.63
-3.84
4.85
14.59
24.81
34.17
40.89
43.40
40.92
33.78
23.35
11.54
0.28
-8.85
-14.88
-17.39
-16.58
-13.19
-8.49
-4.11
-1.73
-2.67
-7.49
-15.95
-27.04
-39.38
-51.47
-61.97
-69.70
-73.71
-73.31
-68.14
-58.36
-44.77
-28.66
-11.58
5.00
19.97
32.79
43.27
51.39
56.99
59.76
59.39
55.88
49.75
42.10
34.25
27.28
21.77
17.64
14.39
11.49
8.62
5.73
2.89
0.02
-3.24
-7.46
-13.24
-20.89
-30.26
-40.74
-51.23
-60.40
-66.78
-69.04
-66.21
-57.98
-44.82
-28.03
-9.39
9.19
26.02
39.96
50.46
57.41
61.07
61.82
60.13
56.54
51.75
46.56
41.79
38.09
35.74
34.46
33.62
32.46
30.43
27.51
24.02
20.46
17.07
13.63
9.52
3.93
-3.75
-13.67
-25.30
-37.49
-48.51
-56.46
-59.66
-57.15
-49.06
-36.62
-21.79
-6.64
7.24
19.05
28.61
36.00
41.18
43.75
43.24
39.45
32.77
24.24
15.26
7.10
0.43
-4.82
-9.30
-13.82
-18.88
-24.50
-30.37
-36.03
-41.25
-46.08
-50.79
-55.74
-61.21
-67.38
-74.30
-81.85
-89.70
-97.15
-103.08
-106.15
-105.05
-98.95
-87.72
-72.08
-53.37
-33.22
-13.22
5.28
21.22
33.77
42.32
46.54
46.57
43.08
37.25
30.41
23.70
17.76
12.61
7.86
3.04
-2.02
-7.10
-11.64
-15.05
-17.03
-17.75
-17.86
-18.37
-20.45
-25.11
-32.98
-43.95
-56.96
-69.97
-80.20
-84.84
-81.74
-70.20
-51.20
-27.14
-1.17
23.60
44.68
60.44
69.96
72.90
69.50
60.69
48.35
35.16
24.14
17.82
17.34
22.01
29.49
36.62
40.65
40.16
35.41
27.94
19.80
12.62
7.28
3.88
2.16
1.75
2.22
2.91
2.79
0.66
-4.26
-11.68
-20.06
-27.02
-30.21
-28.22
-20.98
-9.71
3.78
17.64
30.41
41.05
48.84
53.26
54.06
51.34
45.50
37.20
27.16
16.01
4.38
-7.08
-17.61
-26.56
-33.49
-38.33
-41.47
-43.59
-45.51
-47.97
-51.45
-56.06
-61.33
-66.24
-69.25
-68.62
-62.88
-51.24
-33.89
-11.98
12.63
37.74
61.25
81.41
96.97
107.32
112.45
112.98
110.01
104.95
99.17
93.77
89.35
85.93
83.10
80.28
77.00
73.04
68.46
63.40
57.90
51.80
44.69
36.08
25.64
13.50
0.53
-11.60
-20.67
-24.58
-22.03
-13.15
0.43
16.03
30.86
42.82
50.89
54.98
55.47
52.79
47.25
39.25
29.55
19.28
9.66
1.61
-4.56
-9.22
-13.09
-16.82
-20.76
-24.83
-28.82
-32.59
-36.30
-40.49
-45.85
-53.06
-62.39
-73.38
-84.60
-93.70
-97.95
-95.01
-83.86
-65.35
-42.05
-17.47
5.07
23.35
36.55
45.03
49.63
51.13
50.03
46.75
41.88
36.31
31.00
26.69
23.56
21.20
18.98
16.40
13.41
10.41
7.96
6.42
5.62
4.84
3.07
-0.64
-6.85
-15.46
-25.64
-35.83
-43.96
-47.86
-45.83
-37.27
-22.88
-4.64
14.84
33.01
48.02
58.97
65.65
68.33
67.33
63.08
56.17
47.51
38.30
29.73
22.63
17.15
12.77
8.59
3.76
-2.09
-8.71
-15.39
-21.34
-26.03
-29.48
-32.20
-34.95
-38.47
-43.20
-49.14
-55.84
-62.36
-67.41
-69.55
-67.51
-60.60
-48.98
-33.70
-16.45
0.87
16.53
29.30
38.46
43.70
45.05
42.84
37.74
30.67
22.69
14.83
7.77
1.77
-3.30
-7.76
-11.89
-15.77
-19.26
-22.11
-24.19
-25.60
-26.74
-28.21
-30.67
-34.65
-40.39
-47.67
-55.74
-63.27
-68.54
-69.74
-65.50
-55.35
-39.98
-21.15
-1.25
17.31
32.60
43.47
49.63
51.37
49.44
44.81
38.49
31.51
24.61
18.24
12.42
6.92
1.49
-3.89
-8.90
-13.02
-15.83
-17.46
-18.67
-20.78
-25.28
-33.27
-44.88
-58.94
-72.81
-82.57
-83.86
-73.19
-49.42
-14.85
24.91
62.50
91.19
107.11
110.27
103.87
92.40
79.72
67.94
57.50
48.16
39.86
32.99
27.96
24.59
21.87
18.30
12.68
4.79
-4.39
-13.19
-20.01
-24.28
-26.74
-29.22
-33.78
-41.65
-52.50
-64.28
-73.83
-77.99
-74.66
-63.55
-46.13
-25.06
-3.32
16.64
33.32
46.20
55.33
60.98
63.32
62.43
58.44
51.77
43.22
33.84
24.61
16.18
8.63
1.60
-5.45
-12.93
-20.84
-28.86
-36.58
-43.89
-51.15
-59.19
-68.97
-81.11
-95.57
-111.49
-127.22
-140.56
-149.06
-150.29
-142.14
-123.30
-93.64
-54.57
-9.18
38.22
82.74
119.99
146.82
161.71
164.70
157.00
140.66
118.37
93.29
68.85
48.14
33.24
24.58
20.77
19.18
17.01
12.42
5.13
-3.71
-12.46
-19.93
-26.06
-31.78
-38.16
-45.41
-52.24
-56.02
-53.87
-43.94
-26.30
-3.08
22.33
46.24
65.65
78.61
84.19
82.26
73.29
58.38
39.25
18.27
-1.91
-18.80
-30.60
-36.63
-37.42
-34.47
-29.66
-24.71
-20.60
-17.44
-14.77
-12.02
-8.98
-6.02
-3.91
-3.56
-5.77
-10.95
-19.05
-29.44
-40.80
-51.14
-58.14
-59.72
-54.73
-43.45
-27.55
-9.61
7.66
22.12
32.58
38.72
40.83
39.52
35.59
30.07
24.22
19.35
16.43
15.72
16.58
17.54
16.88
13.23
6.19
-3.50
-14.19
-23.87
-30.91
-34.52
-34.88
-32.95
-29.98
-27.14
-25.24
-24.74
-25.77
-28.09
-31.09
-33.67
-34.48
-32.34
-26.71
-17.85
-6.42
7.12
22.97
41.75
63.69
87.67
110.85
129.27
139.26
139.00
129.26
113.04
94.27
76.29
60.88
48.17
37.28
27.22
17.52
8.39
0.34
-6.23
-11.41
-15.86
-20.54
-26.22
-33.31
-41.79
-51.45
-62.12
-73.73
-85.96
-97.87
-107.58
-112.59
-110.50
-99.98
-81.48
-57.35
-31.20
-6.89
12.63
25.89
32.96
34.85
32.81
27.85
20.68
11.97
2.70
-5.81
-12.14
-15.38
-15.51
-13.55
-11.09
-9.62
-9.91
-11.76
-14.22
-16.26
-17.28
-17.50
-17.77
-19.22
-22.78
-28.90
-37.44
-47.80
-58.86
-69.05
-76.44
-79.09
-75.59
-65.68
-50.44
-32.07
-13.23
3.86
17.92
28.59
36.01
40.32
41.40
39.03
33.39
25.36
16.49
8.59
3.07
0.47
0.32
1.44
2.49
2.52
1.23
-1.01
-3.56
-5.79
-7.41
-8.55
-9.69
-11.49
-14.51
-18.97
-24.55
-30.24
-34.49
-35.44
-31.63
-22.36
-8.17
9.30
27.77
45.00
59.46
70.65
78.94
84.96
88.95
90.38
88.17
81.32
69.67
54.25
36.96
19.86
4.43
-8.75
-19.74
-28.75
-35.63
-39.97
-41.37
-40.01
-36.78
-33.11
-30.47
-29.88
-31.71
-35.60
-40.61
-45.37
-48.34
-48.07
-43.55
-34.58
-21.79
-6.64
9.04
23.44
35.14
43.36
47.86
48.79
46.56
41.73
35.01
27.37
19.91
13.72
9.53
7.45
6.88
6.75
5.97
3.89
0.60
-3.24
-6.77
-9.46
-11.44
-13.51
-16.75
-22.06
-29.56
-38.42
-46.93
-52.98
-54.69
-51.07
-42.34
-29.84
-15.63
-1.77
10.15
19.22
25.10
27.75
27.22
23.75
17.89
10.62
3.15
-3.41
-8.45
-11.99
-14.50
-16.59
-18.62
-20.59
-22.23
-23.30
-23.76
-23.93
-24.45
-26.16
-29.85
-35.97
-44.25
-53.38
-61.08
-64.67
-61.85
-51.67
-34.96
-14.09
7.80
27.77
43.89
55.31
62.02
64.34
62.57
57.09
48.57
38.20
27.60
18.37
11.54
7.24
4.77
2.92
0.72
-2.26
-5.76
-9.16
-11.91
-13.96
-15.87
-18.63
-23.23
-30.26
-39.48
-49.72
-59.05
-65.10
-65.79
-59.95
-47.78
-30.92
-11.93
6.51
22.45
35.06
44.54
51.48
56.21
58.46
57.55
52.97
45.04
35.18
25.55
18.28
14.68
14.73
17.21
20.30
22.41
22.70
21.24
18.73
15.98
13.43
10.94
7.87
3.34
-3.48
-13.04
-25.21
-39.06
-52.88
-64.37
-71.21
-71.58
-64.77
-51.39
-33.25
-12.82
7.34
25.14
39.14
48.63
53.48
53.99
50.87
45.11
37.98
30.85
24.97
21.29
20.19
21.39
24.05
26.99
29.05
29.38
27.58
23.63
17.77
10.34
1.76
-7.47
-16.70
-25.17
-32.20
-37.48
-41.22
-44.18
-47.48
-52.18
-58.85
-67.09
-75.54
-82.03
-84.25
-80.47
-70.25
-54.58
-35.69
-16.30
1.17
15.23
25.58
32.86
38.23
42.74
47.03
51.13
54.70
57.31
58.63
58.64
57.55
55.74
53.67
51.76
50.32
49.40
48.71
47.67
45.54
41.74
36.11
28.99
21.06
13.08
5.50
-1.63
-8.71
-16.35
-25.20
-35.67
-47.73
-60.59
-72.58
-81.26
-83.86
-78.05
-62.89
-39.42
-10.63
19.24
45.98
66.51
79.60
85.77
86.64
84.01
79.34
73.54
67.16
60.64
54.45
48.96
44.36
40.66
37.84
36.01
35.48
36.51
39.05
42.44
45.35
46.17
43.44
36.50
25.81
12.79
-0.64
-12.84
-23.05
-31.60
-39.49
-47.73
-56.52
-64.95
-71.19
-73.23
-69.75
-60.72
-47.38
-31.84
-16.37
-2.79
7.84
15.42
20.73
25.22
30.52
37.85
47.29
57.50
66.05
70.34
68.66
61.06
49.27
35.92
23.49
13.37
5.70
-0.33
-5.64
-10.87
-16.06
-20.83
-24.78
-27.67
-29.60
-31.02
-32.53
-34.58
-37.57
-41.59
-46.54
-52.06
-57.34
-60.91
-60.78
-54.94
-42.39
-24.04
-2.88
16.88
31.38
38.74
39.60
36.53
32.43
29.21
27.12
25.49
23.61
21.51
19.79
18.74
17.45
13.66
4.64
-11.26
-33.20
-57.55
-78.90
-91.79
-92.92
-82.35
-63.57
-42.41
-25.07
-16.28
-18.08
-29.79
-48.86
-72.19
-97.25
-122.61
-147.75
-172.30
-195.37
-215.23
-229.60
-236.35
-234.47
-224.39
-207.84
-187.12
-164.29
-140.61
-116.50
-91.90
-66.82
-41.69
-17.47
4.75
24.10
40.35
53.97
65.96
77.40
89.05
101.03
112.90
123.83
132.97
139.75
144.03
146.05
146.24
145.01
142.49
138.64
133.29
126.37
118.10
108.95
99.57
90.53
82.11
74.20
66.39
58.19
49.25
39.60
29.72
20.42
12.71
7.49
5.35
6.40
10.31
16.39
23.84
31.91
40.00
47.61
54.19
59.09
61.53
60.85
56.72
49.42
39.85
29.49
20.06
13.14
9.76
10.14
13.64
18.98
24.72
29.70
33.43
36.07
38.19
40.37
42.83
45.39
47.61
49.11
49.81
49.93
49.78
49.50
48.79
46.99
43.33
37.27
28.92
19.16
9.54
1.89
-2.17
-1.75
3.10
11.54
22.22
33.71
44.87
54.90
63.30
69.69
73.77
75.38
74.63
71.97
68.14
63.86
59.68
55.75
51.91
47.86
43.36
38.37
33.11
27.91
23.08
18.82
15.11
11.78
8.52
5.04
1.16
-3.13
-7.66
-12.17
-16.42
-20.32
-24.06
-27.93
-32.23
-36.96
-41.58
-45.07
-46.20
-43.90
-37.80
-28.42
-17.06
-5.47
4.71
12.28
16.73
18.27
17.67
16.19
15.19
15.77
18.25
21.93
25.23
26.32
23.92
17.91
9.38
0.02
-8.64
-15.87
-21.83
-27.16
-32.39
-37.52
-41.98
-45.05
-46.21
-45.50
-43.52
-41.09
-39.01
-37.86
-38.08
-40.01
-43.84
-49.39
-55.87
-61.92
-65.90
-66.48
-63.15
-56.46
-47.66
-38.19
-29.11
-20.85
-13.54
-7.32
-2.75
-0.82
-2.62
-8.74
-18.69
-30.64
-41.69
-48.87
-50.22
-45.71
-37.31
-28.15
-21.26
-18.30
-19.04
-21.76
-24.29
-25.08
-23.83
-21.35
-18.97
-17.83
-18.44
-20.51
-23.11
-25.03
-25.18
-22.91
-18.15
-11.32
-3.10
5.85
14.97
23.91
32.30
39.67
45.41
48.91
49.85
48.39
45.18
41.12
36.91
32.77
28.36
23.04
16.26
8.04
-0.94
-9.45
-16.23
-20.45
-22.03
-21.68
-20.59
-20.02
-20.85
-23.48
-27.72
-32.96
-38.31
-42.80
-45.50
-45.70
-43.04
-37.57
-29.84
-20.75
-11.38
-2.65
4.76
10.62
14.92
17.88
19.65
20.24
19.48
17.07
12.76
6.61
-0.90
-8.84
-16.02
-21.40
-24.45
-25.25
-24.48
-23.04
-21.77
-21.25
-21.75
-23.36
-26.08
-29.79
-34.26
-39.03
-43.48
-47.01
-49.16
-49.80
-49.08
-47.39
-45.18
-42.78
-40.27
-37.51
-34.20
-30.10
-25.20
-19.84
-14.65
-10.36
-7.51
-6.29
-6.41
-7.27
-8.17
-8.55
-8.26
-7.51
-6.78
-6.61
-7.34
-9.00
-11.35
-14.07
-16.99
-20.14
-23.87
-28.60
-34.66
-42.16
-50.77
-59.74
-67.90
-73.81
-76.12
-73.93
-67.13
-56.49
-43.45
-29.68
-16.56
-4.95
4.86
12.86
19.07
23.30
25.35
25.09
22.75
18.92
14.43
10.08
6.45
3.77
1.95
0.68
-0.43
-1.78
-3.65
-6.23
-9.51
-13.42
-17.76
-22.45
-27.52
-33.24
-40.01
-48.16
-57.66
-67.80
-77.14
-83.71
-85.53
-81.29
-70.85
-55.45
-37.34
-19.31
-3.86
7.42
14.31
18.05
21.03
26.08
35.51
50.39
70.05
92.38
114.45
133.43
147.26
154.93
156.41
152.29
143.50
131.15
116.47
100.77
85.27
70.94
58.20
46.93
36.42
25.63
13.54
-0.48
-16.45
-33.64
-50.71
-66.01
-77.90
-85.08
-86.88
-83.36
-75.35
-64.19
-51.46
-38.53
-26.31
-15.10
-4.83
4.64
13.32
21.02
27.42
32.37
36.01
38.79
41.34
44.18
47.43
50.73
53.26
54.09
52.57
48.70
43.15
37.05
31.42
26.81
23.09
19.52
15.18
9.33
1.60
-8.00
-19.15
-31.30
-43.54
-54.62
-62.92
-66.77
-64.89
-56.87
-43.53
-26.71
-8.79
8.04
22.43
34.04
43.23
50.54
56.14
59.75
60.96
59.72
56.62
52.89
49.91
48.64
49.26
51.22
53.54
55.24
55.70
54.76
52.58
49.55
46.01
42.19
38.08
33.31
27.20
18.84
7.44
-7.22
-24.41
-42.35
-58.44
-70.01
-74.95
-72.40
-62.79
-47.62
-28.82
-8.17
13.06
34.07
54.24
72.80
88.56
99.92
105.21
103.16
93.37
76.63
54.90
30.80
6.97
-14.58
-32.87
-47.80
-59.74
-69.07
-75.89
-80.03
-81.43
-80.49
-78.19
-75.97
-75.24
-76.81
-80.52
-85.23
-89.06
-90.02
-86.58
-78.14
-65.01
-48.27
-29.31
-9.49
10.00
28.13
43.96
56.68
65.67
70.78
72.31
71.02
67.84
63.69
59.31
55.25
51.83
49.11
46.90
44.79
42.36
39.33
35.79
32.02
28.36
24.80
20.89
15.79
8.68
-0.78
-12.16
-24.20
-35.02
-42.64
-45.54
-43.13
-35.92
-25.46
-13.78
-2.85
5.91
11.83
14.97
15.93
15.54
14.65
13.88
13.52
13.39
12.97
11.55
8.56
3.86
-2.12
-8.54
-14.39
-18.75
-21.16
-21.63
-20.74
-19.53
-19.22
-20.94
-25.18
-31.55
-38.69
-44.67
-47.62
-46.34
-40.73
-31.73
-20.90
-9.82
0.36
9.11
16.37
22.33
27.06
30.49
32.44
32.72
31.29
28.36
24.32
19.62
14.75
10.06
5.78
2.15
-0.61
-2.21
-2.44
-1.35
0.56
2.39
3.01
1.51
-2.46
-8.65
-16.35
-24.69
-32.83
-40.06
-45.69
-48.89
-48.81
-44.74
-36.48
-24.54
-10.16
5.03
19.42
31.81
41.51
48.29
52.17
53.23
51.62
47.66
41.95
35.38
28.83
22.98
17.95
13.39
8.74
3.56
-2.19
-8.09
-13.46
-17.69
-20.51
-22.16
-23.35
-25.05
-28.24
-33.50
-40.80
-49.36
-57.83
-64.57
-68.05
-67.24
-61.76
-51.91
-38.44
-22.39
-4.90
12.78
29.31
43.27
53.20
57.92
56.72
49.62
37.41
21.61
4.43
-11.53
-23.74
-30.31
-30.64
-25.68
-17.70
-9.36
-2.86
0.80
1.67
0.32
-3.01
-8.75
-17.77
-30.71
-47.26
-65.94
-84.48
-100.39
-111.62
-116.78
-115.23
-107.01
-92.75
-73.62
-51.28
-27.62
-4.44
16.78
35.04
49.82
60.98
68.56
72.85
74.31
73.58
71.47
68.65
65.53
62.08
57.96
52.75
46.31
38.84
30.99
23.49
16.92
11.42
6.64
1.92
-3.46
-10.03
-17.98
-27.21
-37.25
-47.27
-56.14
-62.41
-64.59
-61.47
-52.58
-38.43
-20.49
-0.80
18.61
36.16
50.96
62.63
70.99
75.76
76.60
73.30
66.15
56.03
44.37
32.70
22.26
13.74
7.24
2.36
-1.52
-5.10
-9.02
-13.73
-19.42
-26.01
-33.22
-40.63
-47.81
-54.46
-60.46
-66.01
-71.49
-77.31
-83.58
-89.73
-94.42
-95.72
-91.71
-81.23
-64.45
-42.91
-19.10
4.39
25.61
43.52
57.88
68.74
76.07
79.56
78.85
73.99
65.65
55.28
44.74
35.80
29.58
26.28
25.16
24.92
24.18
21.98
18.00
12.52
6.22
-0.23
-6.33
-12.00
-17.47
-23.18
-29.70
-37.39
-46.26
-55.73
-64.46
-70.53
-71.89
-67.02
-55.56
-38.63
-18.50
2.06
20.63
35.73
46.92
54.45
58.76
60.16
58.71
54.51
48.03
40.22
32.38
25.83
21.43
19.33
18.99
19.42
19.61
18.85
16.88
13.84
10.08
5.94
1.62
-2.89
-7.83
-13.62
-20.78
-29.73
-40.44
-52.08
-62.82
-70.07
-71.10
-63.87
-47.82
-24.17
4.19
33.50
60.05
80.99
94.80
101.34
101.39
96.33
87.67
76.94
65.57
54.87
45.91
39.34
35.20
32.91
31.44
29.67
26.79
22.56
17.20
11.24
5.13
-0.96
-7.24
-14.17
-22.28
-32.06
-43.73
-57.09
-71.28
-84.65
-94.92
-99.67
-97.17
-87.06
-70.71
-50.85
-30.66
-12.78
1.40
11.77
19.05
24.13
27.54
29.40
29.63
28.28
25.64
22.31
18.93
15.99
13.71
12.04
10.75
9.53
8.20
6.75
5.30
4.03
2.95
1.76
-0.09
-3.24
-8.33
-15.66
-25.20
-36.51
-48.68
-60.34
-69.68
-74.69
-73.58
-65.48
-50.71
-31.00
-8.90
12.88
32.24
48.03
59.97
68.25
73.05
74.39
72.29
67.03
59.43
50.73
42.31
35.27
30.12
26.73
24.46
22.51
20.21
17.21
13.50
9.36
5.11
1.02
-2.90
-6.94
-11.63
-17.61
-25.34
-34.92
-45.78
-56.69
-65.83
-71.15
-70.90
-64.14
-51.17
-33.45
-13.28
6.87
25.06
40.23
52.11
60.83
66.48
68.84
67.63
62.93
55.59
47.28
40.00
35.37
33.99
35.20
37.42
38.86
38.23
35.26
30.66
25.78
22.13
20.93
22.83
27.61
33.88
39.04
39.69
32.81
17.15
-5.73
-31.57
-54.68
-70.03
-74.94
-69.73
-56.98
-40.01
-21.57
-3.34
13.67
28.47
39.77
46.20
47.00
42.48
34.08
23.89
14.04
6.04
0.42
-3.29
-6.35
-10.30
-16.38
-25.12
-36.16
-48.42
-60.64
-71.87
-81.77
-90.53
-98.56
-106.20
-113.51
-120.38
-126.49
-131.37
-134.20
-133.68
-128.24
-116.56
-98.20
-74.04
-46.28
-17.79
8.65
31.09
48.64
61.27
69.45
73.67
74.35
71.98
67.28
61.24
54.96
49.36
44.81
41.07
37.41
33.04
27.45
20.72
13.49
6.62
0.78
-3.87
-7.79
-11.82
-16.85
-23.54
-32.19
-42.68
-54.40
-66.03
-75.44
-79.87
-76.66
-64.26
-43.11
-15.84
13.54
40.90
63.35
79.84
90.84
97.45
100.49
100.20
96.49
89.59
80.33
70.22
60.85
53.44
48.53
45.97
45.19
45.45
46.05
46.37
45.98
44.62
42.27
39.05
35.22
30.96
26.35
21.35
15.81
9.58
2.48
-5.61
-14.58
-23.80
-31.80
-36.33
-34.80
-25.17
-6.95
18.32
47.23
75.45
99.04
115.44
123.89
125.11
120.61
112.00
100.61
87.53
73.81
60.58
48.97
39.95
34.00
30.95
30.02
29.88
29.01
26.06
20.30
11.76
1.24
-10.04
-20.93
-30.78
-39.57
-47.85
-56.31
-65.49
-75.56
-86.25
-96.93
-106.67
-114.27
-118.43
-117.94
-112.11
-101.10
-86.06
-69.02
-52.30
-37.87
-26.79
-18.98
-13.56
-9.33
-5.44
-1.72
1.45
3.52
4.19
3.71
2.76
2.00
1.76
1.88
1.82
1.08
-0.48
-2.60
-4.80
-6.70
-8.37
-10.39
-13.75
-19.50
-28.32
-40.16
-54.06
-68.26
-80.53
-88.66
-91.05
-87.03
-77.05
-62.45
-45.07
-26.82
-9.27
6.47
19.70
29.99
37.03
40.68
40.97
38.24
33.19
26.72
19.79
13.17
7.35
2.47
-1.55
-4.93
-7.89
-10.60
-13.11
-15.48
-17.75
-20.04
-22.58
-25.69
-29.71
-34.91
-41.51
-49.49
-58.57
-68.02
-76.56
-82.47
-83.94
-79.47
-68.37
-50.97
-28.66
-3.68
21.26
43.42
60.57
71.34
75.52
73.89
67.89
59.13
48.90
38.12
27.35
16.89
6.95
-2.44
-11.26
-19.27
-25.72
-29.35
-28.77
-23.30
-13.73
-2.36
7.62
13.34
13.30
7.72
-1.93
-13.76
-26.12
-37.69
-47.01
-52.25
-51.32
-42.69
-26.29
-3.95
20.96
44.62
63.99
77.67
85.94
90.11
91.56
91.15
88.95
84.61
77.98
69.48
60.19
51.46
44.43
39.48
36.15
33.26
29.47
23.85
16.25
7.37
-1.63
-9.57
-15.86
-20.59
-24.63
-29.17
-35.35
-43.85
-54.50
-66.21
-76.96
-84.14
-85.11
-78.02
-62.52
-40.07
-13.78
12.57
35.52
52.85
63.92
69.40
70.57
68.77
64.97
59.85
53.98
47.99
42.54
38.16
34.99
32.75
30.84
28.56
25.41
21.29
16.39
11.14
5.91
0.83
-4.19
-9.48
-15.36
-22.09
-29.80
-38.49
-47.96
-57.67
-66.54
-72.91
-74.80
-70.54
-59.48
-42.46
-21.71
-0.19
19.30
34.90
45.93
52.62
55.52
55.06
51.50
45.18
36.89
28.04
20.31
15.19
13.32
14.30
16.79
19.09
19.71
17.85
13.59
7.60
0.93
-5.50
-11.16
-16.02
-20.55
-25.64
-32.30
-41.40
-53.34
-67.68
-82.88
-96.34
-104.85
-105.42
-96.27
-77.61
-51.80
-22.78
5.10
28.29
44.91
54.90
59.44
60.14
58.31
54.69
49.54
43.13
35.98
28.98
23.08
18.98
16.88
16.35
16.61
16.80
16.26
14.68
12.03
8.47
4.18
-0.68
-6.04
-11.85
-18.13
-24.98
-32.56
-41.05
-50.43
-60.23
-69.23
-75.56
-77.04
-71.95
-59.73
-41.49
-19.69
2.49
22.24
37.80
48.70
55.39
58.62
58.96
56.71
52.03
45.33
37.40
29.32
22.19
16.81
13.43
11.76
11.10
10.62
9.64
7.81
5.12
1.87
-1.67
-5.37
-9.33
-13.86
-19.24
-25.68
-33.23
-41.87
-51.50
-61.78
-71.81
-80.01
-84.21
-82.31
-73.02
-56.65
-35.16
-11.71
10.40
28.68
41.99
50.40
54.65
55.46
53.27
48.29
40.96
32.17
23.34
15.97
11.16
9.10
9.06
9.69
9.62
8.00
4.77
0.53
-3.86
-7.76
-11.01
-13.94
-17.16
-21.25
-26.55
-33.24
-41.25
-50.35
-59.89
-68.59
-74.54
-75.49
-69.60
-56.24
-36.47
-12.97
10.73
31.32
46.56
55.68
59.26
58.58
55.09
49.99
44.17
38.29
32.89
28.51
25.57
24.36
24.90
26.93
29.98
33.50
37.07
40.42
43.43
45.80
46.85
45.44
40.36
30.91
17.35
1.02
-16.13
-32.23
-46.06
-57.14
-65.49
-71.06
-73.47
-72.18
-66.81
-57.59
-45.38
-31.48
-17.21
-3.69
8.22
17.83
24.53
27.87
27.70
24.35
18.72
12.10
5.86
1.10
-1.74
-2.91
-3.24
-3.71
-5.17
-7.92
-11.81
-16.37
-21.06
-25.65
-30.24
-35.23
-41.17
-48.40
-56.78
-65.51
-73.06
-77.51
-76.96
-70.22
-57.18
-38.99
-17.69
4.30
24.78
42.08
55.12
63.20
65.89
62.97
54.76
42.14
26.76
10.63
-4.27
-16.52
-25.45
-31.10
-33.85
-34.14
-32.29
-28.62
-23.69
-18.45
-14.23
-12.45
-14.21
-20.00
-29.43
-41.24
-53.43
-63.59
-69.36
-68.89
-61.36
-47.25
-28.30
-7.08
13.68
31.78
45.92
55.72
61.45
63.59
62.60
58.90
53.05
45.93
38.65
32.25
27.40
24.10
21.84
19.87
17.65
15.01
12.17
9.38
6.72
3.90
0.40
-4.42
-10.96
-19.18
-28.46
-37.53
-44.71
-48.20
-46.60
-39.37
-27.03
-11.05
6.57
23.85
39.33
52.17
62.03
68.78
72.34
72.64
69.77
64.21
56.85
48.85
41.27
34.73
29.27
24.43
19.63
14.56
9.34
4.46
0.49
-2.38
-4.51
-6.82
-10.46
-16.29
-24.43
-34.08
-43.57
-50.77
-53.65
-50.93
-42.41
-29.10
-12.88
4.13
20.13
33.99
45.21
53.72
59.42
62.11
61.55
57.77
51.30
43.15
34.53
26.46
19.50
13.68
8.74
4.32
0.24
-3.47
-6.61
-8.94
-10.44
-11.39
-12.46
-14.54
-18.49
-24.90
-33.85
-44.94
-57.44
-70.44
-82.84
-93.36
-100.50
-102.75
-99.09
-89.37
-74.65
-56.92
-38.59
-21.79
-7.88
2.71
10.27
15.47
19.04
21.52
23.28
24.50
25.31
25.80
26.13
26.44
26.86
27.50
28.37
29.50
30.82
32.18
33.19
33.22
31.52
27.53
21.20
13.08
4.17
-4.46
-12.20
-19.19
-26.24
-34.44
-44.59
-56.53
-68.94
-79.42
-85.13
-83.66
-73.89
-56.49
-33.72
-8.76
15.30
36.23
52.98
65.43
73.85
78.44
79.22
76.35
70.46
62.85
55.29
49.43
46.24
45.68
46.82
48.35
49.24
49.12
48.22
47.10
46.01
44.67
42.30
38.01
31.34
22.56
12.69
3.09
-5.08
-11.31
-15.93
-19.97
-24.82
-31.81
-41.69
-54.31
-68.35
-81.45
-90.59
-92.94
-86.71
-71.89
-50.29
-25.03
0.54
23.75
43.15
58.49
70.15
78.57
83.93
86.19
85.47
82.22
77.41
72.14
67.35
63.41
60.13
56.96
53.27
48.83
43.84
38.81
34.23
30.16
26.08
20.99
13.86
4.11
-7.98
-21.31
-34.33
-45.54
-54.07
-59.89
-63.80
-67.16
-71.57
-78.41
-88.42
-101.22
-114.94
-126.31
-131.38
-126.74
-110.90
-84.99
-52.55
-18.38
13.02
38.64
57.36
69.38
75.47
76.39
72.88
65.97
57.29
48.86
42.52
39.30
39.04
40.69
42.83
44.35
44.68
43.76
41.68
38.46
34.07
28.55
22.16
15.43
8.92
3.00
-2.34
-7.63
-13.76
-21.80
-32.59
-46.27
-61.94
-77.48
-89.95
-96.30
-94.36
-83.66
-65.70
-43.58
-20.99
-1.22
13.70
23.24
28.10
29.60
29.09
27.53
25.42
22.98
20.32
17.62
15.10
13.01
11.50
10.60
10.25
10.26
10.41
10.41
9.90
8.57
6.19
2.78
-1.42
-5.96
-10.43
-14.53
-18.32
-22.24
-27.02
-33.47
-42.10
-52.74
-64.26
-74.57
-81.04
-81.26
-73.94
-59.39
-39.62
-17.66
3.33
20.95
33.96
42.28
46.53
47.53
46.05
42.72
38.15
33.00
27.95
23.57
20.11
17.45
15.23
13.06
10.74
8.36
6.12
4.14
2.23
-0.21
-3.94
-9.63
-17.54
-27.32
-38.08
-48.71
-58.28
-66.50
-73.96
-81.97
-92.14
-105.52
-121.91
-139.52
-155.28
-165.84
-168.78
-163.56
-151.78
-136.59
-121.61
-109.78
-102.59
-99.73
-99.15
-97.55
-91.13
-76.76
-53.12
-21.50
14.48
50.00
80.83
104.81
122.29
135.35
146.40
156.81
166.47
174.12
178.32
178.16
173.59
165.22
154.01
140.92
126.87
112.67
98.94
86.12
74.23
62.90
51.50
39.53
27.04
15.00
5.22
-0.12
0.79
8.55
22.11
38.88
55.47
68.72
76.61
78.71
76.02
70.37
63.61
57.02
51.13
45.90
41.03
36.35
31.84
27.53
23.29
18.83
13.79
8.00
1.70
-4.43
-9.63
-13.34
-15.50
-16.64
-17.57
-19.12
-21.81
-25.77
-30.73
-36.09
-41.01
-44.34
-44.75
-40.84
-31.54
-16.56
3.35
26.46
50.39
72.82
91.94
106.77
117.07
122.95
124.60
122.12
115.71
105.89
93.84
81.18
69.62
60.25
53.01
46.70
39.38
29.24
15.50
-1.21
-19.14
-36.25
-51.09
-63.42
-74.11
-84.60
-96.11
-109.09
-123.09
-136.84
-148.51
-155.99
-157.29
-150.93
-136.55
-115.25
-89.53
-62.68
-37.85
-17.14
-1.28
10.15
18.06
23.10
25.39
24.60
20.41
12.94
2.93
-8.37
-19.64
-29.80
-38.25
-44.97
-50.30
-54.86
-59.31
-64.15
-69.51
-75.05
-80.03
-83.52
-84.76
-83.52
-80.26
-76.03
-72.16
-69.70
-69.10
-69.85
-70.58
-69.43
-64.47
-54.35
-38.54
-17.49
7.64
35.10
62.78
88.21
108.74
121.97
126.48
122.42
111.75
97.70
83.74
72.48
65.02
60.97
59.07
57.91
56.47
54.29
51.42
48.31
45.57
43.88
43.61
44.52
45.52
44.78
40.23
30.21
14.24
-6.62
-29.87
-52.15
-70.09
-81.18
-84.33
-79.97
-69.72
-55.74
-40.10
-24.41
-9.74
3.23
13.93
21.81
26.46
27.84
26.48
23.45
20.00
17.01
14.61
12.14
8.49
2.79
-5.06
-14.30
-23.56
-31.59
-37.85
-42.77
-47.56
-53.70
-62.37
-73.94
-87.80
-102.39
-115.39
-124.29
-126.91
-122.13
-110.32
-93.33
-74.16
-56.11
-41.80
-32.11
-25.74
-19.56
-9.86
5.92
27.79
53.01
77.17
96.21
108.14
113.69
115.33
115.43
114.62
111.48
103.61
89.44
69.63
47.15
26.06
9.73
-0.49
-5.69
-8.76
-13.13
-21.49
-34.96
-52.81
-72.62
-90.96
-104.22
-109.59
-105.81
-93.49
-74.85
-53.03
-31.39
-12.47
2.55
14.27
25.00
38.07
56.51
81.60
111.81
142.87
169.20
185.95
190.91
185.04
171.62
154.56
136.78
119.59
103.07
86.85
70.73
54.77
38.98
23.03
6.27
-12.04
-32.25
-53.96
-75.82
-95.63
-110.64
-118.00
-115.74
-103.36
-82.32
-55.81
-27.83
-2.09
18.89
34.16
43.88
48.64
48.87
44.67
36.16
24.07
10.06
-3.49
-14.07
-20.04
-21.17
-18.76
-14.93
-11.70
-10.15
-10.25
-11.12
-11.88
-12.38
-13.55
-16.96
-24.14
-35.73
-51.09
-68.35
-84.97
-98.32
-106.25
-107.46
-101.60
-89.23
-71.77
-51.22
-29.93
-10.16
6.24
18.17
25.25
27.74
26.29
21.67
14.61
5.74
-4.31
-14.73
-24.38
-31.76
-35.30
-33.76
-26.78
-15.15
-0.71
14.11
26.92
35.82
39.64
37.86
30.43
17.78
1.04
-17.74
-35.54
-48.83
-54.50
-50.84
-38.24
-19.19
2.56
23.13
39.59
50.58
56.15
57.21
54.88
50.06
43.41
35.56
27.29
19.50
13.03
8.36
5.49
3.97
3.14
2.32
0.99
-1.19
-4.36
-8.52
-13.66
-19.83
-27.21
-36.07
-46.58
-58.37
-70.21
-79.97
-85.00
-82.99
-72.93
-55.61
-33.56
-10.25
11.02
27.90
39.27
45.04
45.54
41.17
32.37
19.87
4.88
-10.89
-25.68
-38.23
-48.24
-56.35
-63.74
-71.44
-79.85
-88.51
-96.37
-102.41
-106.12
-107.95
-109.12
-111.28
-115.70
-122.65
-130.88
-137.75
-139.88
-134.26
-119.28
-95.27
-64.33
-29.50
6.22
40.58
72.26
100.44
124.34
143.12
156.02
162.86
164.10
160.63
153.30
142.73
129.56
114.99
101.03
90.12
84.11
83.18
85.48
87.70
86.47
79.66
66.96
49.52
28.92
6.48
-16.89
-40.16
-61.61
-78.76
-89.02
-90.66
-83.67
-69.91
-52.43
-34.38
-18.01
-4.03
8.03
19.09
29.64
39.29
46.87
51.21
51.90
49.70
46.43
44.12
44.00
45.80
47.71
47.13
41.98
31.85
18.48
5.20
-4.38
-7.97
-5.58
0.56
7.02
10.69
10.00
5.27
-1.80
-8.97
-14.23
-16.04
-13.26
-5.00
9.26
29.35
54.01
80.87
106.78
128.40
142.97
148.85
145.92
135.64
120.71
104.54
90.36
80.35
75.13
73.73
74.02
73.63
70.65
64.12
54.00
40.84
25.26
7.68
-11.77
-33.11
-56.29
-80.91
-106.19
-130.89
-153.34
-171.55
-183.43
-187.12
-181.53
-166.73
-144.11
-116.13
-85.58
-54.75
-25.03
2.98
28.87
51.60
69.33
79.80
81.27
73.51
58.24
38.69
18.58
0.94
-12.78
-22.76
-30.28
-36.87
-43.59
-50.67
-57.69
-64.00
-69.11
-73.02
-76.21
-79.24
-82.68
-86.80
-91.60
-96.97
-102.59
-107.62
-110.50
-109.11
-101.70
-88.00
-70.08
-51.96
-38.28
-32.24
-34.31
-42.00
-51.18
-57.78
-59.27
-55.12
-46.40
-35.13
-23.80
-15.15
-11.69
-14.91
-24.19
-36.46
-46.73
-49.89
-42.71
-24.83
1.34
32.09
64.17
95.58
125.20
151.70
172.60
184.50
184.34
170.95
145.93
113.28
77.91
44.02
14.27
-10.18
-28.80
-41.02
-46.10
-43.61
-34.06
-19.16
-1.41
16.56
32.70
45.80
55.44
61.58
64.36
63.91
60.50
54.56
46.71
37.67
28.12
18.72
10.02
2.49
-3.52
-7.93
-10.95
-13.09
-15.06
-17.70
-21.86
-28.29
-37.39
-48.85
-61.30
-72.21
-78.37
-76.73
-65.53
-45.07
-17.73
12.74
42.46
68.58
89.84
106.34
118.79
127.68
132.92
134.03
130.72
123.37
113.36
102.62
93.10
86.10
81.90
80.01
79.57
79.82
80.15
79.79
77.42
71.27
59.78
42.71
21.89
1.08
-15.44
-24.75
-26.68
-23.79
-19.79
-17.42
-16.99
-16.41
-12.89
-4.97
6.26
17.41
24.56
25.26
19.77
10.74
1.83
-4.19
-6.56
-6.42
-5.80
-6.22
-7.93
-9.94
-10.89
-10.08
-8.00
-6.08
-5.83
-8.08
-12.62
-18.52
-24.82
-31.17
-37.94
-45.90
-55.67
-67.17
-79.51
-91.19
-100.47
-105.73
-105.85
-100.34
-89.51
-74.44
-56.85
-38.81
-22.30
-8.88
0.60
6.03
7.85
6.79
3.56
-1.20
-6.95
-13.02
-18.63
-22.84
-24.98
-24.95
-23.38
-21.52
-20.65
-21.52
-23.91
-26.79
-28.75
-28.64
-26.12
-21.65
-16.29
-11.16
-7.05
-4.07
-1.72
0.97
5.08
11.48
20.59
32.12
45.10
58.02
69.24
77.40
81.83
82.57
80.32
76.13
71.02
65.77
60.83
56.41
52.52
49.06
45.75
42.10
37.47
31.27
23.16
13.22
1.93
-10.05
-22.13
-34.02
-45.76
-57.54
-69.39
-80.87
-90.96
-98.17
-100.90
-97.91
-88.76
-74.00
-54.97
-33.54
-11.61
9.17
27.50
42.50
53.61
60.58
63.48
62.73
59.05
53.32
46.40
38.97
31.38
23.78
16.16
8.48
0.77
-6.93
-14.63
-22.48
-30.78
-39.92
-50.09
-61.05
-71.93
-81.21
-87.13
-88.06
-83.17
-72.67
-57.86
-40.77
-23.55
-7.95
4.92
14.67
21.37
25.30
26.84
26.37
24.37
21.46
18.29
15.34
12.84
10.68
8.51
6.04
3.17
0.05
-2.99
-5.71
-8.05
-10.14
-12.16
-14.25
-16.35
-18.29
-19.75
-20.33
-19.48
-16.54
-10.94
-2.40
8.67
21.13
33.25
43.23
49.79
52.51
51.81
48.61
43.89
38.27
31.97
25.00
17.38
9.39
1.45
-5.97
-12.58
-18.27
-23.20
-27.64
-31.96
-36.59
-41.99
-48.69
-57.04
-67.06
-78.09
-88.66
-96.62
-99.49
-95.25
-82.98
-63.37
-38.63
-11.95
13.42
34.97
51.33
62.15
67.68
68.41
64.90
57.99
49.03
39.79
32.10
27.12
24.87
24.15
23.09
20.00
14.12
5.89
-3.35
-12.15
-19.69
-26.19
-32.78
-40.93
-51.77
-65.54
-81.24
-96.79
-109.37
-116.02
-114.42
-103.52
-83.98
-58.16
-29.50
-1.59
22.81
42.31
56.77
66.75
72.77
74.95
73.13
67.36
58.38
47.68
37.07
28.01
21.09
15.91
11.54
7.06
2.15
-2.92
-7.60
-11.58
-15.17
-19.14
-24.16
-30.29
-36.70
-42.01
-44.83
-44.35
-40.47
-33.60
-24.16
-12.39
1.54
17.20
33.61
49.28
62.66
72.57
78.56
80.75
79.63
75.72
69.54
61.70
53.04
44.58
37.27
31.64
27.54
24.24
20.64
15.90
9.72
2.54
-4.71
-10.94
-15.51
-18.49
-20.70
-23.51
-28.31
-35.99
-46.43
-58.34
-69.34
-76.55
-77.35
-70.14
-54.96
-33.50
-8.62
16.39
38.73
56.58
69.25
76.93
80.24
79.91
76.64
71.07
63.85
55.60
46.88
38.13
29.62
21.59
14.23
7.76
2.30
-2.14
-5.73
-8.82
-11.82
-15.09
-18.90
-23.30
-28.09
-32.86
-37.08
-40.32
-42.59
-44.49
-47.20
-52.01
-59.66
-69.70
-80.26
-88.39
-90.97
-85.74
-72.15
-51.53
-26.57
-0.52
23.90
44.99
62.19
75.71
86.04
93.44
97.85
98.98
96.70
91.34
83.78
75.31
67.20
60.32
54.95
50.78
47.31
43.99
40.57
37.13
33.90
31.30
29.75
29.61
30.94
33.09
34.51
32.92
26.20
13.45
-4.15
-23.44
-40.41
-51.83
-56.66
-56.43
-54.37
-53.85
-56.87
-63.24
-70.95
-77.03
-78.73
-74.38
-63.75
-47.98
-29.14
-9.73
8.10
22.80
33.71
40.84
44.47
45.00
42.80
38.41
32.70
26.79
21.76
18.14
15.69
13.49
10.50
6.32
1.66
-1.87
-2.52
0.40
5.90
11.33
13.46
9.86
0.04
-14.40
-30.58
-45.52
-57.38
-65.77
-71.50
-75.84
-79.91
-84.39
-89.50
-95.11
-100.50
-104.36
-104.76
-99.60
-87.32
-67.58
-41.63
-12.09
17.72
44.68
66.55
82.22
91.60
95.20
93.72
87.95
78.81
67.61
56.09
46.14
39.23
35.90
35.54
36.63
37.45
36.73
34.04
29.59
23.84
17.04
9.23
0.33
-9.55
-20.07
-30.75
-41.36
-51.95
-62.72
-73.54
-83.53
-90.95
-93.61
-89.64
-78.36
-60.72
-39.19
-16.97
2.96
18.73
29.76
36.59
40.18
41.29
40.30
37.36
32.80
27.42
22.41
18.97
17.82
18.94
21.60
24.73
27.31
28.59
28.20
26.01
22.13
16.88
10.90
4.92
-0.46
-5.22
-10.08
-16.29
-24.87
-35.90
-48.05
-58.81
-65.37
-65.66
-59.24
-47.41
-32.61
-17.56
-4.30
6.15
13.77
19.01
22.41
24.31
24.88
24.37
23.24
22.10
21.56
21.95
23.24
25.07
27.01
28.73
30.12
31.19
31.97
32.37
32.26
31.51
30.10
28.14
25.66
22.49
18.28
12.67
5.60
-2.36
-9.92
-15.34
-16.98
-13.91
-6.35
4.31
15.91
26.19
33.45
36.96
36.88
33.97
29.07
22.80
15.49
7.34
-1.28
-9.70
-17.09
-22.73
-26.43
-28.71
-30.61
-33.33
-37.71
-43.94
-51.56
-59.82
-68.01
-75.78
-83.14
-90.32
-97.47
-104.34
-110.30
-114.38
-115.47
-112.55
-104.97
-92.54
-75.69
-55.47
-33.38
-11.26
9.07
26.00
38.51
46.15
49.25
48.88
46.72
44.82
44.93
47.74
52.27
55.86
55.06
47.13
31.41
9.89
-13.43
-33.95
-48.17
-54.63
-54.05
-48.61
-41.02
-33.69
-28.34
-25.70
-25.53
-26.64
-27.22
-25.36
-19.78
-10.28
2.15
15.55
27.64
36.37
40.40
39.47
34.39
26.74
18.49
11.38
6.54
4.20
3.83
4.52
5.34
5.71
5.46
4.69
3.57
2.08
0.03
-2.93
-7.23
-13.14
-20.78
-29.88
-39.64
-48.68
-55.05
-56.63
-51.78
-39.96
-22.02
-0.16
22.75
44.05
62.03
76.10
86.43
93.18
96.04
94.23
87.18
75.22
60.01
44.16
30.20
19.68
12.70
8.28
5.19
2.67
0.48
-1.47
-3.80
-7.77
-14.90
-26.12
-41.06
-57.84
-73.53
-84.96
-89.65
-86.40
-75.53
-58.69
-38.37
-17.26
2.36
19.01
32.14
41.86
48.60
52.79
54.70
54.56
52.58
49.12
44.60
39.42
34.03
28.81
24.16
20.47
17.99
16.72
16.32
16.03
14.76
11.24
4.36
-6.60
-21.43
-38.76
-56.04
-69.87
-76.88
-74.72
-62.94
-43.27
-19.09
5.58
27.33
44.22
55.91
63.18
67.13
68.63
68.00
65.32
60.73
54.77
48.37
42.53
37.99
34.92
32.89
31.14
29.00
26.14
22.69
19.08
15.66
12.47
9.07
4.77
-1.19
-9.33
-19.74
-31.98
-44.98
-56.93
-65.48
-68.12
-62.93
-49.39
-28.81
-4.23
20.33
41.03
55.34
62.55
63.67
60.75
56.01
51.15
46.98
43.63
40.89
38.56
36.65
35.28
34.41
33.62
32.05
28.66
22.72
14.19
3.88
-6.82
-16.42
-23.96
-29.25
-32.86
-35.74
-38.79
-42.65
-47.76
-54.51
-63.18
-73.64
-84.85
-94.57
-99.70
-97.30
-85.72
-65.53
-39.53
-11.88
13.34
33.27
46.89
54.77
58.28
58.84
57.40
54.48
50.44
45.73
41.01
36.97
34.10
32.49
31.83
31.57
31.21
30.40
29.02
27.02
24.30
20.63
15.84
9.92
3.18
-3.82
-10.40
-16.10
-20.87
-25.19
-29.97
-36.26
-44.72
-55.20
-66.36
-75.86
-80.88
-79.06
-69.38
-52.70
-31.47
-9.03
11.49
27.99
39.77
47.18
51.13
52.48
51.77
49.28
45.32
40.39
35.20
30.49
26.71
23.98
22.07
20.64
19.43
18.39
17.54
16.86
16.10
14.79
12.42
8.61
3.37
-2.88
-9.45
-15.63
-20.96
-25.42
-29.39
-33.61
-38.80
-45.35
-52.97
-60.47
-65.99
-67.47
-63.44
-53.67
-39.41
-23.01
-7.06
6.42
16.56
23.53
27.94
30.26
30.49
28.41
24.05
18.11
11.88
6.89
4.24
4.21
6.30
9.56
13.01
16.00
18.21
19.47
19.64
18.50
15.93
12.02
7.17
1.94
-3.07
-7.44
-11.14
-14.52
-18.27
-23.18
-29.81
-38.10
-47.09
-54.90
-59.22
-57.98
-50.19
-36.32
-18.37
0.83
18.33
31.88
40.31
43.61
42.68
38.91
33.77
28.45
23.75
20.01
17.23
15.32
14.11
13.47
13.20
12.98
12.33
10.84
8.32
4.93
1.15
-2.44
-5.44
-7.84
-10.02
-12.59
-16.20
-21.34
-28.20
-36.57
-45.83
-54.83
-61.99
-65.45
-63.54
-55.33
-41.11
-22.48
-1.97
17.69
34.36
46.92
55.17
59.52
60.45
58.32
53.46
46.40
37.99
29.43
21.88
16.15
12.41
10.25
8.91
7.60
5.81
3.39
0.47
-2.68
-5.88
-9.07
-12.40
-16.09
-20.41
-25.70
-32.30
-40.52
-50.42
-61.49
-72.39
-81.03
-85.01
-82.33
-72.24
-55.57
-34.62
-12.43
8.08
24.81
36.84
44.27
47.82
48.39
46.80
43.64
39.33
34.29
28.99
24.09
20.18
17.68
16.58
16.34
16.09
14.91
12.27
8.22
3.38
-1.48
-5.69
-9.08
-11.94
-14.89
-18.67
-23.94
-31.14
-40.35
-51.08
-62.07
-71.27
-76.18
-74.54
-65.23
-48.84
-27.73
-5.31
15.04
31.08
42.14
48.91
52.68
54.52
54.84
53.48
50.17
45.01
38.75
32.55
27.54
24.35
22.91
22.53
22.22
21.15
18.91
15.60
11.64
7.46
3.26
-1.08
-5.85
-11.38
-17.86
-25.35
-33.83
-43.25
-53.36
-63.47
-72.25
-77.75
-77.92
-71.32
-57.89
-39.16
-17.92
2.71
20.22
33.38
42.31
47.89
51.15
52.67
52.46
50.34
46.27
40.77
34.79
29.43
25.45
23.01
21.66
20.62
19.22
17.13
14.49
11.57
8.61
5.56
2.07
-2.25
-7.71
-14.39
-22.26
-31.23
-41.24
-52.02
-62.93
-72.69
-79.49
-81.45
-77.21
-66.54
-50.58
-31.58
-12.17
5.41
19.81
30.72
38.41
43.30
45.60
45.28
42.44
37.54
31.58
25.86
21.60
19.45
19.31
20.50
21.95
22.73
22.22
20.34
17.37
13.85
10.28
6.96
3.91
0.88
-2.55
-6.85
-12.44
-19.65
-28.65
-39.23
-50.59
-61.23
-69.03
-71.78
-67.90
-57.07
-40.46
-20.43
0.28
19.38
35.59
48.61
58.75
66.33
71.42
73.84
73.52
70.78
66.46
61.65
57.29
53.85
51.17
48.72
45.95
42.64
38.93
35.24
31.88
28.76
25.38
21.07
15.38
8.43
0.91
-6.25
-12.32
-17.20
-21.49
-26.27
-32.73
-41.70
-53.35
-67.02
-81.21
-93.79
-102.35
-104.75
-99.69
-87.17
-68.52
-46.07
-22.47
-0.14
19.20
34.55
45.55
52.21
54.86
54.07
50.65
45.56
39.83
34.41
30.06
27.24
26.07
26.31
27.46
28.94
30.30
31.33
32.10
32.65
32.69
31.61
28.52
22.78
14.45
4.41
-5.82
-14.72
-21.36
-25.73
-28.68
-31.45
-35.24
-40.88
-48.72
-58.63
-69.92
-81.30
-90.79
-95.96
-94.62
-85.53
-69.12
-47.42
-23.54
-0.61
19.13
34.70
46.29
54.53
60.01
62.95
63.36
61.35
57.39
52.39
47.41
43.33
40.61
39.16
38.47
37.94
37.10
35.82
34.25
32.74
31.48
30.39
29.04
26.86
23.37
18.46
12.44
5.92
-0.48
-6.34
-11.59
-16.47
-21.38
-26.71
-32.86
-40.09
-48.53
-57.94
-67.45
-75.48
-79.94
-78.84
-70.99
-56.59
-37.30
-15.79
5.17
23.39
37.77
48.13
54.88
58.56
59.62
58.51
55.84
52.44
49.29
47.14
46.18
45.98
45.59
44.01
40.62
35.44
29.17
22.86
17.47
13.58
11.21
9.90
8.92
7.58
5.36
2.04
-2.27
-7.26
-12.50
-17.58
-22.30
-26.66
-30.88
-35.42
-40.78
-47.50
-55.86
-65.65
-75.90
-84.85
-90.23
-89.92
-82.67
-68.68
-49.60
-28.11
-7.06
11.31
25.80
36.26
43.19
47.24
48.97
48.68
46.63
43.17
38.89
34.57
30.94
28.46
27.17
26.64
26.25
25.40
23.80
21.57
19.16
17.11
15.71
14.83
13.92
12.22
9.11
4.46
-1.42
-7.82
-14.01
-19.54
-24.31
-28.47
-32.19
-35.72
-39.54
-44.44
-51.28
-60.41
-70.93
-80.49
-85.91
-84.44
-74.94
-58.60
-38.40
-17.88
0.20
14.57
25.29
32.96
38.03
40.53
40.37
37.81
33.65
28.99
24.81
21.64
19.32
17.38
15.33
12.94
10.35
7.97
6.20
5.23
4.91
4.79
4.25
2.74
0.02
-3.76
-8.05
-12.19
-15.66
-18.37
-20.76
-23.64
-27.93
-34.29
-42.77
-52.67
-62.49
-70.16
-73.54
-71.06
-62.16
-47.64
-29.45
-10.17
7.77
22.72
34.10
42.25
47.94
51.80
54.06
54.63
53.35
50.33
46.02
41.11
36.20
31.58
27.21
22.88
18.42
13.87
9.43
5.29
1.45
-2.28
-6.20
-10.56
-15.43
-20.69
-26.04
-31.19
-35.97
-40.46
-45.09
-50.52
-57.41
-65.96
-75.58
-84.66
-90.86
-91.72
-85.59
-72.35
-53.54
-32.00
-10.89
7.19
20.81
29.79
34.70
36.29
35.14
31.65
26.25
19.80
13.58
8.98
7.04
7.96
11.04
14.90
18.03
19.33
18.46
15.82
12.29
8.75
5.84
3.76
2.38
1.31
-0.03
-2.43
-6.72
-13.57
-23.04
-34.25
-45.23
-53.34
-56.02
-51.70
-40.37
-23.59
-3.82
16.35
35.02
51.16
64.34
74.27
80.33
81.65
77.43
67.56
53.07
36.09
19.35
5.38
-4.24
-9.22
-10.46
-9.53
-8.04
-7.15
-7.36
-8.56
-10.31
-12.11
-13.63
-14.86
-16.05
-17.80
-20.87
-26.06
-33.97
-44.71
-57.52
-70.67
-81.59
-87.50
-86.15
-76.69
-59.99
-38.50
-15.51
5.83
23.25
35.75
43.35
46.73
46.81
44.43
40.35
35.31
30.02
25.14
21.07
17.88
15.28
12.79
10.04
6.95
3.81
1.16
-0.48
-0.93
-0.51
0.02
-0.33
-2.43
-6.75
-13.27
-21.65
-31.41
-42.08
-53.11
-63.64
-72.25
-77.10
-76.32
-68.70
-54.20
-34.19
-11.01
12.59
34.24
52.34
66.12
75.50
80.70
82.14
80.28
75.70
69.15
61.53
53.86
47.12
42.11
39.15
38.12
38.39
39.07
39.22
38.11
35.37
30.95
25.10
18.23
10.84
3.41
-3.64
-10.08
-15.98
-21.75
-28.04
-35.60
-44.80
-55.33
-65.91
-74.44
-78.44
-75.88
-65.89
-49.28
-28.30
-6.03
14.65
31.80
44.83
54.15
60.60
64.77
66.72
66.11
62.71
56.76
49.15
41.11
33.83
28.09
24.05
21.47
19.89
18.89
18.13
17.35
16.28
14.63
12.15
8.76
4.58
-0.17
-5.37
-11.21
-18.15
-26.83
-37.61
-50.12
-62.98
-73.94
-80.34
-79.99
-71.92
-56.87
-37.08
-15.71
4.17
20.39
32.11
39.70
44.21
46.76
48.06
48.38
47.72
46.16
43.97
41.59
39.51
37.97
36.93
36.08
35.00
33.36
30.97
27.82
23.95
19.41
14.14
8.03
0.98
-6.94
-15.51
-24.45
-33.64
-43.15
-53.15
-63.57
-73.74
-82.21
-87.01
-86.23
-78.80
-64.94
-46.20
-24.98
-3.83
15.17
30.85
42.75
51.00
55.97
58.09
57.87
55.81
52.51
48.59
44.56
40.76
37.36
34.36
31.71
29.31
27.07
24.87
22.52
19.81
16.54
12.64
8.18
3.39
-1.45
-6.21
-10.99
-16.22
-22.49
-30.37
-40.17
-51.75
-64.39
-76.74
-86.93
-92.92
-93.00
-86.31
-73.27
-55.52
-35.47
-15.56
2.35
17.36
29.43
38.96
46.34
51.70
55.01
56.25
55.61
53.54
50.55
47.05
43.24
39.18
34.97
30.87
27.32
24.75
23.28
22.53
21.60
19.43
15.16
8.56
0.10
-9.18
-18.12
-25.81
-31.97
-36.94
-41.60
-47.04
-54.27
-63.83
-75.50
-88.08
-99.44
-106.96
-108.17
-101.56
-87.11
-66.30
-41.72
-16.23
7.71
28.52
45.48
58.48
67.71
73.45
76.02
75.91
73.79
70.51
66.91
63.62
60.93
58.70
56.53
54.05
51.05
47.67
44.26
41.15
38.41
35.63
32.13
27.18
20.41
12.01
2.73
-6.48
-14.84
-22.06
-28.33
-34.24
-40.45
-47.47
-55.48
-64.16
-72.63
-79.46
-82.94
-81.50
-74.33
-61.75
-45.14
-26.58
-8.19
8.49
22.62
33.97
42.61
48.60
51.99
52.88
51.62
48.84
45.35
41.88
38.92
36.59
34.72
33.03
31.34
29.66
28.19
27.10
26.36
25.59
24.21
21.58
17.31
11.44
4.41
-3.06
-10.27
-16.76
-22.46
-27.74
-33.31
-39.94
-48.15
-57.87
-68.16
-77.26
-82.94
-83.14
-76.64
-63.60
-45.53
-24.83
-4.09
14.64
30.19
42.21
50.89
56.54
59.44
59.87
58.19
55.02
51.13
47.23
43.79
40.88
38.29
35.72
32.99
30.25
27.77
25.83
24.41
23.07
21.13
17.86
12.84
6.20
-1.44
-9.17
-16.15
-21.94
-26.63
-30.79
-35.27
-40.87
-48.11
-56.94
-66.68
-75.96
-82.91
-85.62
-82.57
-73.21
-58.19
-39.22
-18.64
1.20
18.53
32.36
42.47
49.15
52.84
54.06
53.27
50.98
47.77
44.26
40.94
38.11
35.75
33.63
31.49
29.23
26.97
25.02
23.57
22.52
21.39
19.48
16.22
11.44
5.57
-0.62
-6.35
-11.18
-15.23
-19.08
-23.50
-29.21
-36.65
-45.89
-56.50
-67.52
-77.39
-84.14
-85.89
-81.43
-70.76
-55.21
-37.00
-18.57
-1.78
12.39
23.68
32.16
37.78
40.38
39.88
36.72
31.98
27.14
23.55
21.92
22.08
23.19
24.21
24.35
23.35
21.43
19.02
16.49
13.96
11.26
8.14
4.36
-0.14
-5.11
-10.13
-14.66
-18.36
-21.22
-23.73
-26.79
-31.47
-38.60
-48.37
-60.05
-71.89
-81.47
-86.26
-84.32
-74.96
-58.97
-38.37
-15.84
5.93
24.83
39.58
49.67
55.22
56.76
55.01
50.86
45.27
39.13
33.23
28.18
24.30
21.64
20.05
19.21
18.75
18.33
17.59
16.26
14.07
10.81
6.41
1.04
-4.85
-10.70
-15.95
-20.35
-24.01
-27.50
-31.65
-37.24
-44.69
-53.71
-63.17
-71.15
-75.40
-73.99
-65.99
-51.87
-33.44
-13.25
6.18
23.10
36.80
47.38
55.28
60.81
63.97
64.63
62.86
59.13
54.30
49.32
44.89
41.28
38.34
35.70
32.98
29.90
26.29
22.12
17.45
12.47
7.45
2.71
-1.62
-5.68
-9.90
-14.90
-21.24
-29.31
-39.17
-50.57
-62.92
-75.17
-85.78
-92.83
-94.40
-89.17
-77.07
-59.41
-38.65
-17.68
1.07
16.13
27.16
34.58
39.15
41.47
41.91
40.65
37.95
34.23
30.08
26.14
22.88
20.52
18.94
17.84
16.80
15.44
13.53
10.96
7.78
4.08
-0.03
-4.50
-9.24
-14.19
-19.19
-24.15
-29.09
-34.31
-40.31
-47.54
-55.95
-64.66
-71.87
-75.26
-72.75
-63.40
-47.80
-28.09
-7.17
12.12
27.81
39.08
46.05
49.40
49.95
48.45
45.50
41.60
37.13
32.38
27.59
22.90
18.49
14.56
11.23
8.49
6.11
3.74
1.10
-1.95
-5.35
-8.89
-12.46
-16.09
-19.95
-24.31
-29.45
-35.60
-42.88
-51.22
-60.19
-68.86
-75.81
-79.31
-77.80
-70.39
-57.26
-39.71
-19.89
-0.21
17.23
31.11
40.95
46.95
49.65
49.64
47.45
43.49
38.26
32.39
26.63
21.66
17.89
15.33
13.55
11.93
9.92
7.28
4.14
0.88
-2.15
-4.80
-7.22
-9.75
-12.92
-17.23
-23.09
-30.73
-40.05
-50.41
-60.59
-68.86
-73.28
-72.24
-64.90
-51.53
-33.39
-12.49
8.97
29.08
46.43
60.26
70.33
76.76
79.87
80.12
78.05
74.24
69.29
63.75
58.13
52.89
48.43
45.02
42.72
41.28
40.09
38.41
35.46
30.83
24.54
17.07
9.18
1.58
-5.30
-11.51
-17.49
-24.09
-32.12
-42.08
-53.78
-66.05
-76.77
-83.24
-82.81
-73.73
-55.79
-30.80
-2.29
25.24
47.59
62.03
67.96
66.84
61.35
54.19
47.27
41.40
36.55
32.45
28.99
26.21
24.10
22.32
20.26
17.37
13.53
9.19
5.13
2.01
-0.08
-1.74
-4.09
-8.21
-14.71
-23.41
-33.42
-43.42
-52.24
-59.29
-64.91
-70.24
-76.79
-85.78
-97.47
-110.66
-122.82
-130.51
-130.34
-119.90
-98.47
-67.28
-29.19
12.02
52.50
89.02
119.32
142.18
157.21
164.65
165.21
159.98
150.40
138.05
124.39
110.59
97.28
84.71
72.86
61.68
51.23
41.59
32.79
24.65
16.78
8.74
0.28
-8.55
-17.36
-25.62
-32.88
-38.97
-44.08
-48.67
-53.39
-58.91
-65.78
-74.15
-83.53
-92.60
-99.36
-101.58
-97.48
-86.40
-69.09
-47.58
-24.55
-2.60
16.37
31.39
42.31
49.47
53.31
54.20
52.44
48.38
42.66
36.20
30.13
25.44
22.71
21.85
22.19
22.76
22.58
21.03
17.93
13.40
7.75
1.29
-5.74
-13.07
-20.49
-27.86
-35.26
-43.00
-51.48
-60.80
-70.40
-78.89
-84.33
-84.74
-78.82
-66.46
-48.85
-28.15
-6.86
12.77
29.22
41.81
50.55
55.91
58.47
58.86
57.57
54.99
51.48
47.33
42.86
38.38
34.25
30.81
28.35
26.92
26.30
25.96
25.22
23.50
20.55
16.55
11.96
7.30
2.95
-1.08
-5.13
-9.84
-16.02
-24.35
-35.10
-47.73
-60.69
-71.55
-77.52
-76.32
-67.00
-50.43
-29.08
-6.30
14.74
31.83
44.10
51.86
56.08
57.81
57.84
56.60
54.32
51.10
47.11
42.59
37.82
33.06
28.57
24.53
21.06
18.16
15.73
13.56
11.32
8.67
5.29
1.10
-3.83
-9.19
-14.63
-19.86
-24.87
-30.00
-35.88
-43.18
-52.27
-62.80
-73.50
-82.22
-86.47
-84.16
-74.45
-58.20
-37.84
-16.64
2.34
17.10
27.10
32.95
35.80
36.68
36.16
34.40
31.48
27.65
23.43
19.53
16.58
14.96
14.78
15.83
17.66
19.67
21.23
21.71
20.68
17.92
13.50
7.76
1.22
-5.51
-11.84
-17.33
-21.82
-25.55
-29.15
-33.56
-39.65
-47.79
-57.34
-66.53
-72.71
-73.24
-66.41
-52.23
-32.54
-10.35
11.09
29.33
43.12
52.29
57.35
58.93
57.69
54.29
49.58
44.49
39.90
36.26
33.59
31.52
29.59
27.53
25.37
23.35
21.71
20.44
19.16
17.24
14.05
9.28
3.11
-3.76
-10.42
-16.10
-20.51
-23.96
-27.33
-31.76
-38.24
-47.24
-58.35
-70.18
-80.48
-86.66
-86.53
-79.06
-64.80
-45.82
-25.05
-5.36
11.15
23.50
31.75
36.47
38.33
37.79
35.13
30.51
24.29
17.37
11.38
8.58
11.20
20.62
36.43
56.20
76.00
91.71
100.35
100.94
94.35
82.53
67.41
50.37
32.26
13.76
-4.18
-20.50
-34.41
-45.93
-56.05
-66.29
-77.81
-90.46
-102.38
-110.34
-110.92
-102.03
-83.91
-59.33
-32.71
-8.65
9.52
20.50
24.95
24.75
22.25
19.68
18.98
21.67
28.57
39.52
53.19
67.30
79.33
87.34
90.60
89.62
85.57
79.61
72.33
63.69
53.43
41.44
28.08
14.16
0.65
-11.65
-22.32
-31.44
-39.48
-47.18
-55.31
-64.40
-74.41
-84.51
-93.00
-97.67
-96.43
-88.06
-72.85
-52.70
-30.65
-9.93
6.95
18.86
25.99
29.42
30.40
29.91
28.41
26.04
22.92
19.27
15.54
12.20
9.61
7.82
6.66
5.73
4.62
2.99
0.69
-2.26
-5.68
-9.38
-13.22
-17.08
-20.96
-24.88
-28.96
-33.48
-38.87
-45.52
-53.50
-62.23
-70.23
-75.36
-75.37
-68.69
-55.17
-36.26
-14.69
6.40
24.37
37.71
46.23
50.67
52.13
51.57
49.54
46.32
42.12
37.30
32.45
28.15
24.76
22.21
20.05
17.68
14.67
11.04
7.20
3.79
1.21
-0.58
-2.09
-4.08
-7.31
-12.26
-19.13
-27.81
-37.96
-48.80
-59.07
-66.96
-70.42
-67.77
-58.38
-43.10
-24.18
-4.65
12.60
25.62
33.71
37.28
37.35
34.97
30.89
25.62
19.56
13.22
7.31
2.58
-0.40
-1.52
-1.13
0.00
0.96
1.00
-0.17
-2.40
-5.13
-7.80
-10.14
-12.29
-14.79
-18.37
-23.64
-30.83
-39.54
-48.67
-56.49
-60.91
-60.03
-52.80
-39.42
-21.48
-1.50
17.76
34.10
46.28
53.96
57.41
57.11
53.61
47.58
39.95
31.96
24.88
19.70
16.83
15.93
16.12
16.30
15.51
13.24
9.56
4.98
0.21
-4.16
-7.97
-11.57
-15.77
-21.46
-29.26
-39.10
-50.07
-60.51
-68.32
-71.46
-68.49
-58.97
-43.66
-24.30
-3.21
17.24
35.11
49.16
58.78
63.87
64.68
61.75
55.88
48.15
39.79
31.95
25.43
20.47
16.82
13.90
11.15
8.25
5.18
2.09
-0.88
-3.84
-7.20
-11.60
-17.72
-26.00
-36.35
-48.00
-59.49
-68.85
-74.07
-73.59
-66.78
-54.13
-37.14
-17.92
1.34
18.78
33.04
43.30
49.20
50.73
48.37
43.09
36.32
29.70
24.66
22.10
22.10
24.03
26.73
28.85
29.10
26.56
20.83
12.16
1.35
-10.50
-22.40
-33.75
-44.49
-54.74
-64.37
-72.45
-77.25
-76.75
-69.43
-55.18
-35.62
-13.72
7.09
24.06
35.86
42.65
45.48
45.52
43.44
39.38
33.40
25.98
18.26
11.73
7.60
6.16
6.63
7.55
7.46
5.52
1.85
-2.77
-7.46
-11.78
-16.06
-21.17
-28.13
-37.51
-48.97
-61.14
-71.80
-78.53
-79.27
-73.01
-60.05
-41.83
-20.52
1.63
22.69
41.30
56.55
67.83
74.72
77.07
75.31
70.53
64.52
59.17
55.90
55.07
55.77
56.19
54.54
49.86
42.59
34.43
27.59
23.78
23.36
25.04
26.20
23.79
15.23
-0.67
-23.19
-49.78
-76.52
-99.17
-114.37
-120.55
-118.34
-110.34
-100.10
