1676875206.00
64.000000
-0.00
-0.00
-0.00
-0.00
-0.00
-0.00
-0.00
-0.00
-0.00
-0.00
0.00
0.01
0.01
-0.00
-0.03
-0.05
-0.05
0.00
0.13
0.36
0.66
1.01
1.37
1.72
2.06
2.40
2.79
3.24
3.80
4.42
5.06
5.66
6.20
6.68
7.15
7.68
8.31
9.14
10.09
11.04
11.88
12.56
13.14
13.76
14.65
15.96
17.91
20.32
22.90
25.38
27.58
29.57
31.68
34.32
37.81
42.54
48.15
54.10
59.83
64.97
69.58
74.14
79.34
85.71
93.76
103.00
112.62
121.73
129.77
136.75
143.30
150.75
157.77
166.64
177.95
191.79
206.97
220.57
228.25
225.36
208.53
176.87
132.76
80.05
23.07
-34.94
-92.44
-149.16
-205.23
-260.37
-313.74
-363.87
-409.83
-450.91
-486.50
-515.74
-537.23
-549.22
-549.96
-538.37
-514.21
-478.67
-433.88
-382.44
-327.00
-269.81
-212.58
-156.58
-102.85
-52.23
-5.73
35.81
71.70
101.68
125.89
144.83
159.20
169.72
177.01
181.46
183.35
182.92
180.43
176.24
170.76
164.38
157.46
150.24
142.86
135.40
127.90
120.40
112.97
105.67
98.57
91.74
85.20
78.97
73.07
67.49
62.26
57.38
52.86
48.71
44.93
41.50
38.41
35.68
33.29
31.24
29.51
28.12
27.04
26.27
25.79
25.61
25.71
26.08
26.70
27.55
28.59
29.76
30.97
32.10
33.03
33.58
33.61
32.95
31.48
29.12
25.88
21.81
16.99
11.62
5.91
0.15
-5.42
-10.54
-15.01
-18.66
-21.42
-23.26
-24.19
-24.32
-23.76
-22.65
-21.12
-19.30
-17.29
-15.15
-12.93
-10.64
-8.32
-5.98
-3.61
-1.21
1.23
3.72
6.28
8.94
11.72
14.59
17.51
20.48
23.51
26.60
29.79
33.10
36.59
40.35
44.28
48.34
52.50
56.78
61.18
65.73
70.46
75.45
80.80
86.34
91.96
97.62
103.30
108.98
114.69
120.45
126.32
132.36
138.28
143.85
148.83
152.99
156.01
157.47
156.79
153.15
148.07
142.06
135.44
128.40
121.12
113.71
106.29
99.02
92.03
85.53
79.37
73.49
67.85
62.44
57.25
52.27
47.52
43.04
38.95
35.08
31.36
27.76
24.25
20.83
17.44
14.14
10.97
8.04
5.29
2.73
0.37
-1.83
-3.90
-5.93
-7.95
-9.95
-11.86
-13.64
-15.22
-16.58
-17.77
-18.97
-20.38
-22.17
-24.39
-26.94
-29.63
-32.23
-34.63
-36.96
-39.50
-42.67
-46.82
-52.02
-58.10
-64.60
-71.09
-77.33
-83.47
-89.96
-97.46
-106.48
-117.20
-129.29
-142.18
-155.24
-168.04
-180.57
-193.16
-206.39
-221.02
-237.94
-257.99
-281.41
-307.25
-333.02
-354.94
-369.01
-372.42
-364.63
-347.50
-324.44
-298.98
-273.58
-249.29
-226.14
-203.99
-183.03
-163.70
-146.32
-130.67
-115.98
-101.37
-86.40
-71.24
-56.65
-43.48
-32.27
-22.96
-14.98
-7.57
-0.13
7.56
15.30
22.63
29.04
34.21
38.09
40.81
42.67
43.97
44.97
45.87
46.76
47.70
48.69
49.64
50.49
51.10
51.35
51.16
50.47
49.39
48.07
46.84
45.97
45.64
45.83
46.32
46.79
46.94
46.64
45.96
45.14
44.49
44.33
44.85
46.12
48.08
50.48
53.01
55.30
56.97
57.67
57.05
54.71
50.23
43.34
34.02
22.76
10.48
-1.60
-12.28
-20.69
-26.47
-29.80
-31.30
-31.84
-32.38
-33.67
-36.15
-39.73
-43.80
-47.36
-49.30
-48.81
-45.74
-40.73
-35.15
-30.59
-28.25
-28.38
-30.19
-32.22
-33.04
-32.00
-29.46
-26.45
-24.05
-22.65
-21.87
-20.88
-19.07
-16.38
-13.35
-10.66
-8.60
-6.91
-4.95
-2.12
1.78
6.48
11.49
16.32
20.77
24.91
28.91
32.95
37.05
41.08
44.81
47.93
50.14
51.25
51.30
50.52
49.26
47.84
46.44
44.99
43.29
41.18
38.61
35.71
32.70
29.83
27.23
24.87
22.61
20.27
17.72
14.97
12.20
9.68
7.68
6.25
5.31
4.53
3.56
2.13
0.12
-2.36
-5.07
-7.71
-9.97
-11.58
-12.34
-12.16
-11.04
-9.17
-6.77
-4.18
-1.63
0.70
2.83
4.89
7.01
9.28
11.63
13.91
15.94
17.62
18.96
19.99
20.81
21.41
21.77
21.85
21.67
21.31
20.88
20.46
20.01
19.48
18.72
17.66
16.28
14.65
12.98
11.45
10.21
9.27
8.55
7.85
7.02
5.92
4.58
3.09
1.54
0.01
-1.56
-3.26
-5.20
-7.42
-9.76
-11.94
-13.59
-14.42
-14.27
-13.23
-11.51
-9.33
-6.83
-4.04
-1.08
1.82
4.30
6.07
7.03
7.45
7.80
8.51
9.72
11.23
12.64
13.62
14.07
14.18
14.22
14.42
14.78
15.22
15.61
15.91
16.13
16.30
16.32
16.10
15.51
14.52
13.18
11.61
9.93
8.24
6.61
5.08
3.68
2.39
1.10
-0.29
-1.91
-3.79
-5.84
-7.85
-9.60
-10.98
-11.96
-12.69
-13.34
-14.02
-14.64
-14.94
-14.58
-13.28
-11.05
-8.14
-5.01
-2.07
0.45
2.59
4.53
6.43
8.26
9.84
10.97
11.54
11.66
11.61
11.64
11.92
12.37
12.82
13.08
13.06
12.81
12.47
12.16
11.94
11.77
11.50
10.96
10.07
8.88
7.57
6.36
5.47
4.93
4.69
4.63
4.61
4.61
4.64
4.71
4.76
4.69
4.34
3.68
2.75
1.72
0.75
-0.11
-0.95
-2.00
-3.52
-5.65
-8.26
-10.93
-13.06
-14.06
-13.62
-11.81
-9.08
-6.04
-3.17
-0.67
1.53
3.62
5.70
7.66
9.32
10.53
11.34
11.98
12.70
13.63
14.65
15.50
15.85
15.53
14.60
13.30
11.99
10.93
10.17
9.53
8.69
7.27
5.06
2.01
-1.72
-5.80
-9.87
-13.59
-16.72
-19.08
-20.62
-21.36
-21.48
-21.20
-20.75
-20.35
-20.11
-20.12
-20.40
-20.97
-21.74
-22.56
-23.22
-23.50
-23.31
-22.67
-21.62
-20.19
-18.32
-15.88
-12.73
-8.86
-4.37
0.43
5.22
9.68
13.58
16.87
19.61
21.97
24.08
26.11
28.10
30.05
31.88
33.53
34.95
36.12
37.10
37.90
38.58
39.18
39.76
40.39
41.05
41.68
42.12
42.16
41.56
40.17
37.97
35.07
31.71
28.12
24.50
20.90
17.33
13.71
10.02
6.27
2.50
-1.20
-4.79
-8.23
-11.50
-14.51
-17.11
-19.11
-20.32
-20.72
-20.42
-19.71
-18.91
-18.26
-17.84
-17.53
-17.15
-16.47
-15.49
-14.31
-13.17
-12.33
-11.88
-11.79
-11.83
-11.81
-11.56
-11.10
-10.63
-10.37
-10.51
-11.13
-12.06
-13.05
-13.86
-14.31
-14.44
-14.37
-14.24
-14.08
-13.82
-13.30
-12.44
-11.33
-10.18
-9.34
-9.07
-9.46
-10.44
-11.80
-13.34
-14.87
-16.21
-17.22
-17.69
-17.44
-16.35
-14.42
-11.84
-8.87
-5.78
-2.78
-0.02
2.45
4.58
6.35
7.73
8.78
9.54
10.14
10.71
11.34
12.07
12.80
13.37
13.56
13.17
12.17
10.68
8.95
7.25
5.78
4.50
3.20
1.64
-0.34
-2.73
-5.34
-7.91
-10.27
-12.33
-14.22
-16.05
-17.93
-19.83
-21.61
-23.06
-24.01
-24.37
-24.17
-23.52
-22.51
-21.31
-19.99
-18.60
-17.18
-15.75
-14.31
-12.88
-11.47
-10.10
-8.74
-7.35
-5.77
-3.88
-1.67
0.78
3.27
5.56
7.53
9.15
10.54
11.86
13.17
14.50
15.75
16.86
17.76
18.47
19.08
19.68
20.37
21.18
22.11
23.01
23.78
24.32
24.58
24.61
24.47
24.25
24.03
23.90
23.89
24.08
24.45
24.93
25.39
25.65
25.53
24.95
23.96
22.72
21.39
20.13
18.99
17.95
16.91
15.92
15.08
14.58
14.60
15.09
15.81
16.38
16.46
15.90
14.83
13.59
12.51
11.78
11.29
10.73
9.72
8.05
5.81
3.37
1.34
0.19
0.19
1.17
2.71
4.20
5.02
4.73
3.04
-0.11
-4.61
-10.11
-16.04
-21.69
-26.33
-29.43
-30.76
-30.44
-28.83
-26.39
-23.54
-20.62
-17.85
-15.35
-13.18
-11.27
-9.47
-7.57
-5.38
-2.84
-0.03
2.82
5.40
7.47
8.89
9.70
10.11
10.44
10.96
11.82
12.91
13.95
14.51
14.27
13.11
11.21
8.93
6.64
4.62
2.89
1.27
-0.50
-2.69
-5.39
-8.50
-11.79
-14.96
-17.73
-19.96
-21.60
-22.66
-23.11
-22.90
-21.98
-20.38
-18.28
-15.96
-13.72
-11.81
-10.27
-9.01
-7.86
-6.72
-5.61
-4.65
-4.01
-3.80
-3.95
-4.18
-4.19
-3.69
-2.62
-1.16
0.33
1.49
2.09
2.09
1.64
0.91
0.05
-0.89
-1.89
-2.91
-3.85
-4.55
-4.91
-4.96
-4.90
-5.07
-5.75
-7.08
-8.97
-11.16
-13.27
-14.99
-16.12
-16.61
-16.48
-15.80
-14.63
-12.96
-10.87
-8.48
-6.00
-3.62
-1.52
0.25
1.70
2.89
3.88
4.64
5.14
5.36
5.32
5.11
4.87
4.70
4.70
4.88
5.19
5.55
5.77
5.77
5.50
5.03
4.43
3.81
3.24
2.68
2.11
1.46
0.68
-0.29
-1.47
-2.87
-4.50
-6.30
-8.16
-9.93
-11.42
-12.44
-12.82
-12.46
-11.40
-9.77
-7.77
-5.67
-3.63
-1.76
-0.08
1.43
2.75
3.83
4.58
4.97
5.01
4.87
4.75
4.83
5.17
5.65
6.08
6.23
6.05
5.59
5.01
4.47
4.02
3.59
3.02
2.25
1.28
0.25
-0.71
-1.51
-2.17
-2.81
-3.56
-4.53
-5.76
-7.24
-8.87
-10.51
-12.02
-13.22
-13.99
-14.23
-13.96
-13.22
-12.05
-10.53
-8.74
-6.80
-4.84
-3.05
-1.48
-0.20
0.82
1.62
2.19
2.55
2.68
2.67
2.66
2.79
3.15
3.71
4.34
4.85
5.07
4.93
4.47
3.77
2.97
2.22
1.68
1.42
1.40
1.54
1.66
1.59
1.19
0.44
-0.58
-1.73
-2.85
-3.85
-4.71
-5.47
-6.25
-7.21
-8.50
-10.21
-12.31
-14.55
-16.55
-17.83
-18.02
-16.93
-14.65
-11.53
-7.99
-4.36
-0.86
2.48
5.65
8.63
11.35
13.68
15.57
17.01
18.08
18.86
19.43
19.81
20.02
20.08
20.08
20.08
20.09
20.05
19.86
19.39
18.53
17.24
15.50
13.38
10.99
8.50
6.12
4.01
2.24
0.73
-0.65
-2.08
-3.62
-5.28
-6.95
-8.52
-9.94
-11.22
-12.40
-13.44
-14.25
-14.59
-14.27
-13.18
-11.44
-9.36
-7.31
-5.59
-4.28
-3.25
-2.28
-1.18
0.05
1.27
2.27
2.93
3.27
3.46
3.74
4.25
5.04
5.93
6.73
7.23
7.39
7.28
7.03
6.79
6.56
6.22
5.60
4.60
3.27
1.84
0.58
-0.35
-0.95
-1.42
-2.02
-2.97
-4.33
-6.00
-7.80
-9.53
-11.06
-12.28
-13.12
-13.47
-13.25
-12.38
-10.91
-9.01
-6.91
-4.87
-3.05
-1.45
0.00
1.43
2.87
4.28
5.49
6.41
6.96
7.24
7.35
7.42
7.52
7.61
7.66
7.59
7.37
7.04
6.67
6.32
6.03
5.79
5.49
5.07
4.44
3.57
2.47
1.20
-0.17
-1.51
-2.75
-3.86
-4.87
-5.92
-7.14
-8.61
-10.20
-11.59
-12.43
-12.38
-11.41
-9.71
-7.64
-5.59
-3.71
-2.02
-0.41
1.18
2.65
3.80
4.45
4.63
4.57
4.64
5.08
5.97
7.14
8.30
9.19
9.71
9.86
9.73
9.47
9.14
8.78
8.37
7.85
7.16
6.25
5.13
3.82
2.41
1.01
-0.30
-1.45
-2.44
-3.30
-4.11
-4.97
-6.10
-7.63
-9.62
-11.93
-14.33
-16.45
-17.94
-18.58
-18.26
-17.08
-15.20
-12.85
-10.21
-7.47
-4.80
-2.35
-0.27
1.39
2.66
3.76
4.85
6.05
7.31
8.40
9.07
9.16
8.75
8.05
7.42
7.06
6.99
7.06
6.96
6.42
5.28
3.52
1.26
-1.26
-3.83
-6.24
-8.42
-10.44
-12.49
-14.79
-17.50
-20.68
-24.19
-27.84
-31.38
-34.66
-37.67
-40.56
-43.53
-46.83
-50.54
-54.59
-58.69
-62.46
-65.46
-67.41
-68.25
-68.16
-67.43
-66.26
-64.68
-62.49
-59.34
-54.81
-48.41
-39.74
-28.53
-14.91
0.41
16.17
30.70
42.47
50.54
54.85
56.10
55.35
53.53
51.28
48.84
46.33
43.96
41.96
40.55
39.72
39.29
38.91
38.29
37.36
36.26
35.25
34.56
34.25
34.28
34.48
34.67
34.70
34.37
33.43
31.51
28.18
23.13
16.27
7.96
-1.03
-9.69
-17.00
-22.27
-25.30
-26.36
-25.93
-24.55
-22.51
-19.84
-16.50
-12.49
-8.04
-3.57
0.40
3.52
5.67
7.01
7.79
8.22
8.39
8.26
7.78
7.00
6.11
5.38
5.08
5.40
6.30
7.60
9.00
10.21
11.00
11.32
11.19
10.67
9.87
8.78
7.37
5.62
3.58
1.43
-0.59
-2.28
-3.62
-4.78
-6.16
-8.08
-10.70
-13.81
-16.89
-19.27
-20.41
-20.09
-18.46
-15.91
-12.85
-9.66
-6.58
-3.69
-1.07
1.26
3.30
5.07
6.66
8.19
9.72
11.25
12.71
13.95
14.82
15.24
15.27
15.11
15.04
15.26
15.84
16.66
17.43
17.86
17.76
17.10
15.99
14.55
12.90
11.11
9.31
7.61
6.21
5.20
4.58
4.18
3.76
3.11
2.07
0.60
-1.28
-3.51
-6.05
-8.84
-11.77
-14.66
-17.25
-19.24
-20.33
-20.34
-19.21
-17.05
-14.13
-10.79
-7.33
-3.94
-0.69
2.43
5.47
8.36
11.00
13.25
15.01
16.26
17.15
17.79
18.35
18.94
19.55
20.17
20.67
20.95
20.90
20.52
19.90
19.21
18.59
18.06
17.52
16.77
15.69
14.26
12.63
10.99
9.45
8.01
6.53
4.91
3.13
1.34
-0.21
-1.29
-1.81
-1.90
-1.88
-2.20
-3.21
-4.99
-7.38
-9.89
-11.95
-13.04
-12.89
-11.55
-9.31
-6.59
-3.79
-1.18
1.15
3.19
5.04
6.80
8.51
10.17
11.74
13.15
14.35
15.30
16.00
16.48
16.80
17.04
17.25
17.46
17.66
17.78
17.81
17.76
17.68
17.63
17.59
17.49
17.13
16.36
15.02
13.14
10.84
8.39
6.12
4.24
2.90
2.01
1.37
0.68
-0.23
-1.41
-2.75
-4.05
-5.22
-6.27
-7.40
-8.76
-10.41
-12.20
-13.77
-14.72
-14.80
-13.99
-12.46
-10.55
-8.51
-6.49
-4.54
-2.59
-0.68
1.05
2.41
3.22
3.46
3.28
3.00
2.89
3.14
3.72
4.51
5.31
5.96
6.45
6.79
7.09
7.36
7.60
7.69
7.55
7.15
6.60
6.08
5.76
5.72
5.82
5.81
5.39
4.39
2.86
1.02
-0.85
-2.60
-4.19
-5.75
-7.41
-9.22
-11.12
-12.94
-14.45
-15.40
-15.66
-15.15
-13.89
-12.03
-9.78
-7.35
-4.91
-2.61
-0.50
1.33
2.83
3.92
4.60
4.91
4.95
4.85
4.73
4.66
4.63
4.60
4.51
4.33
4.09
3.84
3.66
3.56
3.45
3.24
2.81
2.14
1.34
0.56
-0.08
-0.59
-1.10
-1.84
-2.94
-4.44
-6.24
-8.22
-10.31
-12.43
-14.45
-16.14
-17.15
-17.11
-15.84
-13.45
-10.36
-7.15
-4.33
-2.13
-0.51
0.75
1.90
3.00
3.94
4.55
4.70
4.41
3.86
3.27
2.80
2.52
2.39
2.38
2.43
2.58
2.83
3.17
3.54
3.81
3.89
3.68
3.16
2.28
1.07
-0.38
-1.91
-3.34
-4.54
-5.47
-6.29
-7.25
-8.61
-10.51
-12.88
-15.48
-17.94
-19.86
-20.93
-20.95
-19.90
-17.91
-15.26
-12.29
-9.37
-6.73
-4.50
-2.66
-1.07
0.40
1.87
3.38
4.93
6.45
7.86
9.12
10.19
11.05
11.67
12.01
12.05
11.80
11.33
10.76
10.19
9.71
9.25
8.68
7.83
6.58
4.95
3.08
1.21
-0.43
-1.67
-2.48
-3.02
-3.59
-4.53
-6.15
-8.54
-11.48
-14.54
-17.10
-18.64
-18.89
-17.85
-15.82
-13.22
-10.46
-7.79
-5.36
-3.18
-1.28
0.35
1.64
2.59
3.26
3.73
4.12
4.50
4.90
5.22
5.39
5.31
5.02
4.62
4.32
4.27
4.55
5.07
5.60
5.88
5.75
5.16
4.26
3.25
2.31
1.48
0.69
-0.21
-1.29
-2.52
-3.80
-5.02
-6.25
-7.65
-9.45
-11.74
-14.30
-16.68
-18.31
-18.74
-17.85
-15.87
-13.24
-10.45
-7.77
-5.28
-2.90
-0.55
1.77
3.92
5.74
7.07
7.93
8.45
8.87
9.40
10.14
11.00
11.77
12.21
12.22
11.78
11.04
10.18
9.35
8.65
8.12
7.77
7.61
7.60
7.63
7.51
7.02
6.04
4.62
2.91
1.17
-0.48
-1.99
-3.49
-5.12
-7.03
-9.23
-11.57
-13.77
-15.46
-16.36
-16.26
-15.16
-13.22
-10.75
-8.06
-5.43
-3.01
-0.82
1.10
2.79
4.19
5.25
5.97
6.41
6.74
7.07
7.57
8.23
8.96
9.60
9.98
9.98
9.64
9.10
8.50
7.98
7.54
7.09
6.50
5.67
4.55
3.19
1.66
0.06
-1.54
-3.11
-4.64
-6.07
-7.34
-8.43
-9.40
-10.41
-11.69
-13.37
-15.39
-17.42
-18.96
-19.55
-18.93
-17.19
-14.67
-11.83
-9.01
-6.45
-4.19
-2.23
-0.57
0.75
1.72
2.36
2.73
2.94
3.13
3.49
4.11
5.01
6.00
6.86
7.28
7.14
6.55
5.78
5.10
4.68
4.38
3.89
2.92
1.34
-0.73
-2.98
-5.05
-6.74
-8.02
-8.97
-9.69
-10.20
-10.55
-10.85
-11.40
-12.53
-14.50
-17.24
-20.27
-22.85
-24.25
-24.06
-22.33
-19.54
-16.32
-13.18
-10.37
-7.84
-5.42
-2.87
-0.09
2.87
5.86
8.67
11.07
12.96
14.35
15.38
16.21
16.92
17.53
17.91
17.99
17.76
17.38
17.03
16.85
16.82
16.79
16.52
15.86
14.81
13.51
12.13
10.81
9.55
8.25
6.77
4.97
2.85
0.46
-2.09
-4.73
-7.48
-10.41
-13.61
-17.05
-20.52
-23.63
-25.91
-26.96
-26.63
-25.00
-22.36
-19.06
-15.40
-11.54
-7.56
-3.55
0.32
3.82
6.69
8.79
10.16
11.00
11.62
12.25
13.00
13.79
14.47
14.90
15.07
15.06
14.98
14.91
14.82
14.63
14.26
13.68
12.90
11.93
10.73
9.26
7.57
5.72
3.87
2.17
0.77
-0.37
-1.35
-2.45
-3.92
-5.88
-8.29
-10.85
-13.06
-14.44
-14.65
-13.62
-11.56
-8.87
-6.00
-3.27
-0.81
1.34
3.30
5.09
6.73
8.16
9.31
10.17
10.77
11.23
11.63
11.98
12.25
12.37
12.33
12.16
11.94
11.75
11.64
11.58
11.50
11.32
10.94
10.27
9.31
8.09
6.68
5.15
3.56
1.96
0.36
-1.20
-2.65
-3.90
-4.98
-6.04
-7.31
-9.03
-11.26
-13.79
-16.23
-18.05
-18.85
-18.43
-16.87
-14.46
-11.57
-8.48
-5.40
-2.42
0.41
3.00
5.27
7.13
8.56
9.57
10.30
10.92
11.63
12.53
13.53
14.43
14.94
14.93
14.45
13.78
13.29
13.28
13.84
14.79
15.82
16.57
16.80
16.47
15.64
14.58
13.50
12.59
11.92
11.37
10.75
9.84
8.55
6.96
5.26
3.69
2.39
1.38
0.54
-0.35
-1.46
-2.92
-4.81
-7.09
-9.66
-12.37
-14.93
-17.00
-18.24
-18.40
-17.41
-15.48
-12.97
-10.33
-7.95
-5.99
-4.41
-2.94
-1.31
0.60
2.77
4.93
6.78
8.07
8.74
8.93
8.87
8.80
8.84
8.99
9.14
9.19
9.09
8.86
8.50
7.99
7.27
6.28
5.06
3.77
2.67
1.89
1.52
1.37
1.19
0.77
0.04
-0.88
-1.82
-2.60
-3.21
-3.75
-4.42
-5.38
-6.73
-8.45
-10.36
-12.25
-13.81
-14.77
-14.93
-14.25
-12.82
-10.84
-8.47
-5.84
-3.07
-0.33
2.16
4.12
5.41
6.01
6.16
6.22
6.48
7.04
7.84
8.64
9.23
9.52
9.55
9.47
9.40
9.42
9.48
9.45
9.25
8.79
8.11
7.28
6.35
5.34
4.22
2.93
1.51
0.05
-1.34
-2.53
-3.50
-4.34
-5.19
-6.21
-7.49
-9.02
-10.67
-12.27
-13.58
-14.47
-14.81
-14.58
-13.80
-12.52
-10.81
-8.76
-6.50
-4.21
-2.04
-0.15
1.44
2.75
3.88
4.90
5.79
6.47
6.84
6.86
6.54
6.02
5.51
5.17
5.08
5.16
5.20
4.98
4.40
3.47
2.40
1.47
0.89
0.70
0.74
0.79
0.69
0.42
0.06
-0.21
-0.35
-0.45
-0.72
-1.38
-2.49
-3.96
-5.53
-6.98
-8.20
-9.23
-10.27
-11.45
-12.77
-13.97
-14.71
-14.62
-13.58
-11.70
-9.34
-6.90
-4.70
-2.89
-1.42
-0.20
0.88
1.88
2.81
3.64
4.37
5.01
5.57
6.06
6.44
6.67
6.73
6.61
6.31
5.87
5.38
4.95
4.66
4.55
4.60
4.72
4.76
4.64
4.29
3.71
2.96
2.08
1.15
0.18
-0.76
-1.68
-2.53
-3.35
-4.24
-5.35
-6.82
-8.76
-11.10
-13.55
-15.72
-17.16
-17.57
-16.87
-15.26
-13.07
-10.70
-8.42
-6.39
-4.60
-3.02
-1.62
-0.36
0.77
1.78
2.72
3.61
4.50
5.33
6.04
6.53
6.75
6.70
6.49
6.25
6.15
6.26
6.50
6.75
6.82
6.60
6.10
5.39
4.64
3.99
3.52
3.18
2.91
2.54
1.95
1.05
-0.14
-1.58
-3.17
-4.86
-6.61
-8.42
-10.30
-12.23
-14.14
-15.85
-17.19
-17.90
-17.79
-16.80
-15.02
-12.72
-10.20
-7.75
-5.54
-3.60
-1.89
-0.36
0.99
2.14
3.09
3.92
4.74
5.65
6.62
7.49
8.05
8.08
7.53
6.56
5.47
4.51
3.82
3.33
2.88
2.30
1.49
0.54
-0.49
-1.53
-2.58
-3.71
-4.97
-6.31
-7.62
-8.67
-9.31
-9.61
-9.79
-10.19
-11.13
-12.70
-14.66
-16.53
-17.72
-17.81
-16.68
-14.58
-11.99
-9.45
-7.40
-6.07
-5.49
-5.44
-5.60
-5.58
-5.12
-4.13
-2.83
-1.66
-1.05
-1.36
-2.56
-4.21
-5.64
-6.15
-5.38
-3.39
-0.72
1.86
3.50
3.60
1.96
-0.92
-3.79
-4.88
-2.28
5.27
17.77
33.73
50.71
66.14
78.36
87.04
92.91
96.96
99.68
100.72
99.17
94.25
85.81
74.49
61.48
48.03
35.13
23.38
13.16
4.73
-1.66
-5.88
-8.02
-8.46
-7.89
-7.08
-6.72
-7.20
-8.60
-10.73
-13.22
-15.73
-17.99
-19.89
-21.40
-22.56
-23.43
-24.09
-24.64
-25.16
-25.70
-26.27
-26.81
-27.25
-27.55
-27.76
-27.94
-28.17
-28.49
-28.91
-29.39
-29.91
-30.47
-31.12
-31.92
-32.88
-33.93
-34.87
-35.46
-35.40
-34.51
-32.83
-30.54
-27.93
-25.30
-22.82
-20.53
-18.34
-16.13
-13.84
-11.45
-9.12
-6.96
-5.16
-3.75
-2.64
-1.66
-0.60
0.69
2.13
3.54
4.64
5.26
5.39
5.20
4.94
4.80
4.84
5.00
5.14
5.13
4.88
4.36
3.53
2.42
1.04
-0.52
-2.19
-3.88
-5.58
-7.31
-9.20
-11.34
-13.84
-16.71
-19.85
-22.99
-25.75
-27.70
-28.49
-27.94
-26.11
-23.28
-19.85
-16.20
-12.62
-9.27
-6.19
-3.40
-0.85
1.49
3.68
5.81
7.93
10.00
11.90
13.46
14.52
15.02
15.00
14.61
14.05
13.52
13.21
13.27
13.68
14.28
14.75
14.80
14.25
13.11
11.63
10.09
8.70
7.53
6.54
5.65
4.84
4.07
3.32
2.46
1.36
-0.03
-1.66
-3.36
-4.92
-6.24
-7.45
-8.81
-10.58
-12.91
-15.67
-18.50
-20.94
-22.55
-23.08
-22.47
-20.85
-18.47
-15.59
-12.47
-9.35
-6.42
-3.81
-1.60
0.20
1.58
2.56
3.20
3.64
4.11
4.86
6.04
7.56
9.14
10.42
11.15
11.31
11.21
11.22
11.60
12.35
13.21
13.83
13.94
13.49
12.63
11.66
10.83
10.22
9.78
9.35
8.75
7.92
6.88
5.70
4.46
3.19
1.88
0.46
-1.14
-2.94
-4.94
-7.12
-9.38
-11.60
-13.61
-15.12
-15.84
-15.58
-14.25
-11.96
-8.96
-5.58
-2.16
1.01
3.75
5.99
7.75
9.15
10.28
11.27
12.15
12.92
13.52
13.92
14.15
14.26
14.30
14.26
14.07
13.66
13.01
12.20
11.39
10.71
10.16
9.63
8.86
7.65
5.93
3.84
1.70
-0.15
-1.50
-2.41
-3.15
-4.15
-5.73
-7.97
-10.73
-13.65
-16.33
-18.44
-19.76
-20.19
-19.65
-18.15
-15.78
-12.77
-9.49
-6.39
-3.73
-1.62
0.09
1.64
3.22
4.89
6.55
8.09
9.41
10.57
11.60
12.53
13.26
13.65
13.62
13.20
12.56
11.94
11.48
11.20
10.97
10.59
9.86
8.72
7.24
5.57
3.90
2.43
1.25
0.39
-0.21
-0.74
-1.42
-2.49
-4.09
-6.25
-8.80
-11.44
-13.83
-15.67
-16.77
-17.03
-16.46
-15.18
-13.34
-11.18
-8.90
-6.67
-4.60
-2.67
-0.87
0.82
2.37
3.75
4.94
5.89
6.64
7.18
7.53
7.73
7.84
7.99
8.29
8.81
9.45
10.04
10.32
10.10
9.31
8.04
6.52
4.99
3.59
2.33
1.11
-0.26
-1.93
-3.91
-6.09
-8.23
-10.06
-11.42
-12.30
-12.87
-13.42
-14.21
-15.44
-17.15
-19.25
-21.55
-23.75
-25.45
-26.23
-25.71
-23.67
-20.26
-15.88
-11.15
-6.61
-2.54
1.09
4.54
8.08
11.86
15.86
19.99
24.27
28.82
33.78
39.12
44.57
49.62
53.74
56.54
57.88
57.82
56.44
53.73
49.63
44.08
37.21
29.44
21.45
13.98
7.61
2.59
-1.08
-3.63
-5.30
-6.31
-6.84
-7.08
-7.27
-7.69
-8.60
-10.10
-12.13
-14.45
-16.78
-18.79
-20.31
-21.26
-21.65
-21.53
-20.92
-19.79
-18.05
-15.67
-12.65
-9.12
-5.35
-1.62
1.74
4.51
6.58
8.01
8.98
9.67
10.26
10.85
11.40
11.75
11.75
11.27
10.37
9.19
7.97
6.91
6.09
5.46
4.89
4.28
3.58
2.82
2.03
1.18
0.17
-1.14
-2.79
-4.74
-6.81
-8.79
-10.52
-11.88
-12.84
-13.35
-13.39
-12.97
-12.10
-10.84
-9.24
-7.42
-5.46
-3.50
-1.71
-0.25
0.79
1.43
1.79
2.05
2.35
2.82
3.45
4.19
4.93
5.53
5.82
5.66
4.94
3.73
2.16
0.51
-0.98
-2.17
-3.05
-3.76
-4.47
-5.31
-6.35
-7.55
-8.84
-10.16
-11.45
-12.70
-13.85
-14.91
-15.86
-16.68
-17.29
-17.62
-17.53
-16.92
-15.75
-14.09
-12.10
-9.95
-7.79
-5.73
-3.79
-2.03
-0.49
0.85
2.01
3.06
4.12
5.22
6.33
7.34
8.13
8.65
8.91
8.97
8.94
8.90
8.93
9.07
9.33
9.62
9.80
9.68
9.10
8.02
6.48
4.66
2.68
0.59
-1.62
-3.98
-6.48
-9.01
-11.43
-13.60
-15.40
-16.78
-17.67
-18.00
-17.73
-16.81
-15.24
-13.11
-10.56
-7.83
-5.16
-2.78
-0.77
0.85
2.17
3.26
4.18
4.97
5.66
6.30
6.98
7.78
8.67
9.51
10.11
10.31
10.07
9.48
8.74
8.03
7.41
6.84
6.21
5.39
4.31
2.96
1.38
-0.32
-2.03
-3.64
-5.09
-6.39
-7.64
-9.00
-10.63
-12.58
-14.73
-16.79
-18.39
-19.23
-19.18
-18.27
-16.66
-14.57
-12.17
-9.59
-6.92
-4.28
-1.77
0.49
2.44
4.07
5.46
6.72
7.89
8.96
9.87
10.52
10.82
10.77
10.44
9.96
9.43
8.96
8.50
8.01
7.41
6.67
5.72
4.56
3.18
1.58
-0.20
-2.03
-3.81
-5.39
-6.68
-7.69
-8.49
-9.24
-10.13
-11.29
-12.75
-14.41
-16.06
-17.49
-18.60
-19.38
-19.93
-20.26
-20.29
-19.85
-18.81
-17.19
-15.14
-12.93
-10.71
-8.51
-6.24
-3.85
-1.38
0.94
2.81
3.97
4.29
3.81
2.73
1.37
0.07
-0.88
-1.28
-1.20
-0.84
-0.53
-0.51
-0.88
-1.50
-2.17
-2.66
-2.88
-2.84
-2.63
-2.39
-2.19
-2.11
-2.15
-2.33
-2.67
-3.13
-3.67
-4.19
-4.58
-4.67
-4.39
-3.78
-2.99
-2.33
-2.09
-2.48
-3.46
-4.79
-6.07
-6.86
-6.89
-6.12
-4.71
-3.00
-1.37
-0.07
0.77
1.24
1.58
2.04
2.83
3.99
5.45
7.00
8.39
9.39
9.91
9.99
9.75
9.45
9.25
9.27
9.48
9.77
10.03
10.17
10.19
10.16
10.17
10.30
10.60
11.05
11.55
11.98
12.21
12.16
11.82
11.24
10.40
9.25
7.75
5.87
3.74
1.56
-0.41
-2.04
-3.30
-4.32
-5.14
-5.66
-5.64
-4.75
-2.79
0.23
3.94
7.87
11.48
14.41
16.46
17.64
18.06
17.90
17.34
16.52
15.51
14.33
12.95
11.36
9.65
7.97
6.53
5.53
5.04
4.99
5.23
5.59
5.92
6.13
6.15
5.89
5.30
4.38
3.28
2.22
1.43
1.04
0.98
0.99
0.75
-0.03
-1.45
-3.44
-5.82
-8.27
-10.51
-12.27
-13.36
-13.68
-13.25
-12.24
-10.89
-9.46
-8.14
-7.02
-6.06
-5.18
-4.33
-3.42
-2.45
-1.41
-0.42
0.38
0.85
0.84
0.39
-0.33
-1.02
-1.39
-1.28
-0.69
0.19
1.06
1.66
1.83
1.51
0.84
-0.04
-0.99
-1.92
-2.81
-3.68
-4.58
-5.48
-6.34
-7.10
-7.77
-8.40
-9.10
-9.97
-11.09
-12.38
-13.67
-14.70
-15.17
-14.85
-13.64
-11.63
-8.98
-5.95
-2.74
0.48
3.59
6.51
9.08
11.16
12.69
13.63
14.01
13.88
13.28
12.23
10.75
8.91
6.89
4.90
3.18
1.93
1.17
0.77
0.55
0.27
-0.17
-0.74
-1.29
-1.67
-1.79
-1.73
-1.65
-1.73
-2.06
-2.61
-3.26
-3.90
-4.49
-5.09
-5.79
-6.72
-7.90
-9.31
-10.85
-12.39
-13.75
-14.71
-15.06
-14.63
-13.45
-11.66
-9.53
-7.37
-5.39
-3.68
-2.24
-0.98
0.19
1.32
2.42
3.46
4.42
5.25
5.92
6.38
6.64
6.70
6.63
6.46
6.24
5.96
5.65
5.39
5.27
5.31
5.50
5.66
5.57
5.06
4.13
2.92
1.73
0.86
0.44
0.42
0.53
0.47
0.04
-0.79
-1.91
-3.09
-4.15
-5.03
-5.77
-6.56
-7.58
-8.95
-10.62
-12.33
-13.73
-14.43
-14.21
-13.09
-11.33
-9.32
-7.36
-5.58
-3.96
-2.37
-0.78
0.76
2.11
3.19
4.03
4.76
5.54
6.41
7.30
8.08
8.60
8.87
8.98
9.02
9.06
9.12
9.15
9.14
9.09
9.02
8.91
8.69
8.25
7.49
6.41
5.09
3.70
2.38
1.20
0.15
-0.84
-1.81
-2.75
-3.61
-4.34
-4.96
-5.53
-6.13
-6.79
-7.47
-8.06
-8.55
-9.01
-9.58
-10.40
-11.36
-12.14
-12.28
-11.46
-9.61
-6.98
-4.08
-1.35
0.89
2.59
3.80
4.63
5.14
5.39
5.44
5.39
5.36
5.43
5.62
5.89
6.15
6.31
6.27
5.92
5.25
4.30
3.21
2.13
1.19
0.40
-0.33
-1.12
-2.04
-3.09
-4.18
-5.19
-6.00
-6.49
-6.60
-6.33
-5.80
-5.24
-5.03
-5.44
-6.55
-8.16
-9.86
-11.14
-11.61
-11.16
-9.90
-8.14
-6.23
-4.43
-2.91
-1.71
-0.81
-0.18
0.29
0.67
1.06
1.50
1.99
2.51
2.95
3.25
3.35
3.26
3.12
3.12
3.45
4.17
5.20
6.28
7.10
7.39
7.05
6.21
5.13
4.13
3.43
3.08
2.98
3.00
2.91
2.61
2.03
1.12
-0.12
-1.66
-3.40
-5.19
-6.83
-8.21
-9.28
-10.02
-10.45
-10.48
-10.03
-9.04
-7.58
-5.82
-3.94
-2.11
-0.38
1.23
2.71
3.97
4.86
5.26
5.15
4.65
3.98
3.39
3.05
3.00
3.09
3.14
2.98
2.60
2.12
1.73
1.57
1.63
1.78
1.83
1.69
1.38
1.01
0.70
0.46
0.19
-0.27
-1.04
-2.15
-3.51
-4.95
-6.39
-7.78
-9.19
-10.66
-12.21
-13.70
-14.89
-15.46
-15.16
-13.91
-11.83
-9.25
-6.55
-4.06
-1.97
-0.29
1.06
2.20
3.23
4.16
4.95
5.57
5.99
6.28
6.49
6.70
6.92
7.09
7.15
7.06
6.85
6.56
6.32
6.24
6.34
6.53
6.65
6.54
6.08
5.29
4.29
3.25
2.26
1.36
0.48
-0.48
-1.57
-2.80
-4.13
-5.50
-6.88
-8.27
-9.71
-11.15
-12.53
-13.66
-14.25
-14.07
-13.00
-11.09
-8.60
-5.85
-3.15
-0.67
1.57
3.57
5.36
6.93
8.26
9.38
10.31
11.06
11.57
11.72
11.46
10.83
10.02
9.22
8.59
8.13
7.71
7.26
6.77
6.34
6.02
5.81
5.60
5.21
4.56
3.66
2.63
1.58
0.58
-0.44
-1.51
-2.67
-3.79
-4.73
-5.36
-5.66
-5.77
-5.79
-5.91
-6.23
-6.81
-7.68
-8.73
-9.77
-10.48
-10.53
-9.65
-7.84
-5.29
-2.43
0.29
2.56
4.20
5.29
5.97
6.40
6.70
6.91
7.09
7.32
7.72
8.43
9.51
10.93
12.49
13.91
14.94
15.45
15.43
15.04
14.46
13.82
13.23
12.69
12.18
11.69
11.23
10.80
10.36
9.81
9.00
7.80
6.19
4.23
2.10
0.06
-1.71
-3.14
-4.26
-5.17
-5.98
-6.81
-7.69
-8.66
-9.73
-10.80
-11.73
-12.24
-12.13
-11.18
-9.43
-7.07
-4.40
-1.83
0.36
1.98
3.03
3.56
3.72
3.67
3.57
3.53
3.63
3.90
4.28
4.70
5.03
5.31
5.54
5.80
6.16
6.60
7.05
7.37
7.47
7.29
6.81
6.09
5.23
4.36
3.64
3.14
2.87
2.67
2.38
1.79
0.87
-0.33
-1.65
-2.92
-4.04
-4.98
-5.72
-6.30
-6.83
-7.42
-8.25
-9.42
-10.87
-12.33
-13.31
-13.32
-12.06
-9.61
-6.37
-2.96
0.08
2.42
3.96
4.80
5.11
5.00
4.57
3.93
3.26
2.80
2.75
3.20
4.05
5.08
6.03
6.72
7.12
7.33
7.50
7.81
8.33
9.06
9.93
10.79
11.52
12.02
12.28
12.31
12.18
11.90
11.51
10.98
10.30
9.47
8.47
7.31
5.93
4.24
2.18
-0.26
-2.99
-5.81
-8.39
-10.44
-11.63
-11.80
-10.99
-9.40
-7.41
-5.45
-3.83
-2.70
-2.02
-1.58
-1.23
-0.87
-0.57
-0.39
-0.43
-0.64
-0.95
-1.21
-1.34
-1.34
-1.26
-1.14
-1.00
-0.80
-0.59
-0.38
-0.31
-0.44
-0.87
-1.58
-2.47
-3.38
-4.11
-4.47
-4.38
-3.90
-3.23
-2.68
-2.47
-2.74
-3.37
-4.22
-5.10
-5.98
-7.01
-8.34
-10.04
-11.94
-13.66
-14.73
-14.80
-13.74
-11.71
-9.12
-6.45
-4.07
-2.15
-0.65
0.60
1.72
2.68
3.37
3.67
3.58
3.26
3.00
3.05
3.52
4.31
5.18
5.87
6.24
6.32
6.24
6.20
6.37
6.77
7.28
7.72
7.84
7.50
6.74
5.77
4.87
4.27
4.01
3.95
3.95
3.96
4.05
4.33
4.87
5.49
5.88
5.75
4.93
3.50
1.75
-0.01
-1.51
-2.66
-3.48
-4.05
-4.45
-4.69
-4.75
-4.60
-4.22
-3.65
-2.98
-2.36
-1.96
-1.89
-2.18
-2.76
-3.52
-4.30
-4.98
-5.52
-5.88
-6.05
-6.05
-5.88
-5.57
-5.15
-4.68
-4.27
-3.97
-3.82
-3.85
-4.01
-4.20
-4.32
-4.31
-4.17
-4.01
-3.97
-4.21
-4.81
-5.75
-6.91
-8.17
-9.42
-10.56
-11.52
-12.20
-12.47
-12.29
-11.68
-10.74
-9.61
-8.41
-7.12
-5.72
-4.18
-2.54
-0.93
0.54
1.75
2.68
3.37
3.94
4.51
5.22
6.17
7.39
8.79
10.16
11.23
11.75
11.58
10.79
9.59
8.28
7.08
6.11
5.34
4.63
3.91
3.12
2.29
1.43
0.56
-0.42
-1.53
-2.75
-3.99
-5.12
-6.14
-7.15
-8.39
-10.02
-12.04
-14.16
-15.93
-16.85
-16.61
-15.19
-12.89
-10.13
-7.36
-4.90
-2.87
-1.30
-0.11
0.79
1.44
1.92
2.36
2.90
3.63
4.60
5.68
6.68
7.43
7.86
8.07
8.22
8.48
8.89
9.35
9.74
9.91
9.82
9.43
8.80
7.90
6.71
5.21
3.44
1.51
-0.40
-2.09
-3.41
-4.30
-4.82
-5.11
-5.39
-5.83
-6.53
-7.54
-8.79
-10.19
-11.60
-12.85
-13.68
-13.83
-13.17
-11.71
-9.67
-7.35
-5.11
-3.11
-1.37
0.22
1.79
3.36
4.79
5.90
6.49
6.54
6.19
5.72
5.48
5.68
6.39
7.44
8.58
9.51
10.04
10.10
9.78
9.27
8.77
8.47
8.40
8.51
8.63
8.61
8.39
7.97
7.40
6.73
5.94
4.99
3.92
2.79
1.76
0.99
0.48
0.14
-0.33
-1.19
-2.68
-4.86
-7.58
-10.59
-13.47
-15.87
-17.45
-18.06
-17.72
-16.63
-15.07
-13.24
-11.27
-9.11
-6.67
-3.86
-0.78
2.34
5.13
7.25
8.50
8.90
8.62
7.99
7.35
6.94
6.90
7.20
7.71
8.28
8.79
9.16
9.38
9.46
9.41
9.21
8.88
8.46
8.05
7.78
7.69
7.69
7.58
7.09
6.09
4.58
2.75
0.89
-0.74
-2.02
-2.98
-3.83
-4.82
-6.21
-8.10
-10.48
-13.16
-15.78
-17.86
-18.94
-18.75
-17.29
-14.83
-11.84
-8.79
-6.04
-3.77
-1.94
-0.42
0.91
2.10
3.10
3.81
4.12
4.05
3.75
3.43
3.30
3.46
3.88
4.46
5.14
5.92
6.85
7.97
9.12
10.06
10.47
10.17
9.18
7.77
6.32
5.15
4.43
4.01
3.62
2.95
1.82
0.27
-1.41
-2.93
-4.05
-4.70
-5.03
-5.30
-5.75
-6.55
-7.81
-9.50
-11.59
-13.92
-16.22
-18.13
-19.21
-19.12
-17.72
-15.15
-11.81
-8.18
-4.73
-1.78
0.48
2.08
3.20
4.07
4.94
6.00
7.33
8.90
10.47
11.74
12.44
12.42
11.74
10.66
9.49
8.58
8.11
8.11
8.41
8.79
8.99
8.86
8.34
7.51
6.53
5.62
4.92
4.50
4.29
4.12
3.76
3.03
1.82
0.23
-1.48
-3.00
-4.01
-4.40
-4.28
-3.98
-3.89
-4.40
-5.71
-7.78
-10.36
-13.04
-15.33
-16.80
-17.18
-16.45
-14.82
-12.62
-10.26
-8.02
-6.03
-4.28
-2.65
-1.03
0.60
2.21
3.66
4.86
5.69
6.15
6.26
6.11
5.78
5.33
4.82
4.32
3.89
3.60
3.48
3.43
3.31
2.87
1.98
0.64
-0.94
-2.43
-3.46
-3.86
-3.74
-3.44
-3.39
-3.92
-5.14
-6.90
-8.89
-10.79
-12.36
-13.56
-14.52
-15.42
-16.46
-17.69
-19.15
-20.74
-22.41
-24.00
-25.37
-26.17
-26.05
-24.62
-21.72
-17.48
-12.36
-6.98
-1.92
2.41
5.83
8.32
9.87
10.52
10.36
9.55
8.37
7.08
5.82
4.49
2.79
0.33
-3.09
-7.27
-11.52
-14.74
-15.76
-13.74
-8.39
-0.07
10.33
21.63
32.64
42.30
49.77
54.44
56.02
54.50
50.26
43.96
36.36
28.12
19.73
11.41
3.24
-4.82
-12.77
-20.63
-28.38
-36.01
-43.42
-50.40
-56.60
-61.48
-64.48
-65.21
-63.61
-60.06
-55.18
-49.76
-44.34
-39.25
-34.43
-29.72
-24.97
-20.14
-15.35
-10.77
-6.53
-2.70
0.69
3.69
6.28
8.48
10.32
11.84
13.11
14.19
15.12
15.89
16.48
16.88
17.12
17.34
17.68
18.29
19.22
20.48
21.90
23.26
24.24
24.51
23.68
21.42
17.56
12.19
5.74
-1.18
-7.96
-14.22
-19.95
-25.37
-30.80
-36.40
-42.17
-47.81
-52.86
-56.56
-57.90
-55.89
-49.84
-39.97
-27.48
-14.40
-2.86
5.75
11.26
14.72
17.74
21.84
27.87
35.87
45.32
55.58
66.02
76.16
85.40
93.06
98.52
101.33
101.53
99.63
96.39
92.44
87.90
82.41
75.39
66.46
55.92
44.80
34.34
25.60
18.93
13.97
9.97
6.20
2.21
-2.05
-6.38
-10.56
-14.39
-17.75
-20.59
-22.90
-24.77
-26.40
-28.07
-30.07
-32.55
-35.48
-38.63
-41.67
-44.23
-46.09
-47.19
-47.62
-47.60
-47.32
-46.88
-46.30
-45.54
-44.56
-43.27
-41.62
-39.51
-36.96
-34.05
-31.00
-28.15
-25.83
-24.22
-23.34
-23.01
-22.97
-22.98
-22.96
-23.05
-23.59
-24.95
-27.38
-30.79
-34.74
-38.33
-40.48
-40.14
-36.65
-30.04
-21.00
-10.86
-1.08
7.01
12.60
15.42
15.62
13.55
9.64
4.34
-1.91
-8.61
-15.40
-22.07
-28.54
-34.69
-40.10
-43.96
-45.27
-43.26
-37.78
-29.51
-19.72
-9.80
-0.85
6.60
12.43
16.78
19.76
21.42
21.78
20.99
19.29
16.94
14.07
10.60
6.34
1.11
-4.94
-11.28
-17.01
-21.10
-22.78
-21.72
-18.15
-12.76
-6.34
0.42
7.10
13.49
19.47
24.94
29.72
33.62
36.49
38.33
39.26
39.58
39.58
39.51
39.46
39.39
39.20
38.77
38.11
37.25
36.23
34.94
33.15
30.59
27.16
22.99
18.46
14.06
10.08
6.57
3.32
-0.04
-3.85
-8.33
-13.45
-19.11
-24.99
-30.71
-35.70
-39.30
-40.92
-40.14
-37.01
-31.96
-25.85
-19.48
-13.48
-8.03
-2.99
1.91
6.89
11.87
16.69
20.99
24.55
27.23
29.00
29.88
29.98
29.53
28.74
27.86
27.06
26.37
25.76
25.17
24.52
23.71
22.62
21.10
19.07
16.55
13.70
10.73
7.77
4.75
1.41
-2.58
-7.43
-13.07
-19.05
-24.66
-29.05
-31.55
-31.73
-29.56
-25.45
-20.02
-14.04
-8.10
-2.60
2.38
6.90
11.07
14.94
18.45
21.52
24.08
26.16
27.82
29.13
30.07
30.64
30.78
30.56
30.11
29.56
29.04
28.50
27.75
26.57
24.74
22.20
19.10
15.73
12.41
9.36
6.63
4.02
1.23
-2.12
-6.29
-11.37
-17.10
-22.96
-28.16
-31.87
-33.45
-32.56
-29.33
-24.25
-18.07
-11.48
-5.08
0.89
6.39
11.51
16.35
20.83
24.76
27.85
29.87
30.83
30.95
30.62
30.23
30.00
29.92
29.81
29.45
28.74
27.77
26.72
25.82
25.14
24.59
23.91
22.85
21.21
18.98
16.33
13.52
10.76
8.12
5.55
2.82
-0.26
-3.81
-7.85
-12.29
-16.99
-21.76
-26.27
-30.02
-32.42
-32.85
-30.94
-26.75
-20.80
-13.92
-6.99
-0.70
4.65
9.07
12.74
15.86
18.51
20.68
22.27
23.30
23.88
24.25
24.66
25.24
26.00
26.77
27.33
27.56
27.49
27.25
26.96
26.68
26.29
25.63
24.57
23.12
21.37
19.50
17.58
15.59
13.42
10.95
8.15
5.12
2.03
-0.88
-3.47
-5.76
-7.88
-10.08
-12.62
-15.68
-19.17
-22.79
-25.98
-28.16
-28.83
-27.77
-25.01
-20.88
-15.82
-10.32
-4.79
0.44
5.13
9.09
12.21
14.46
15.88
16.63
16.88
16.83
16.63
16.39
16.18
16.01
15.89
15.84
15.88
16.02
16.22
16.42
16.47
16.24
15.56
14.39
12.77
10.82
8.80
6.87
5.19
3.74
2.37
0.93
-0.67
-2.36
-3.92
-5.09
-5.67
-5.69
-5.40
-5.17
-5.32
-6.03
-7.25
-8.76
-10.18
-11.11
-11.15
-9.95
-7.36
-3.47
1.38
6.57
11.48
15.57
18.57
20.44
21.28
21.29
20.71
19.84
19.10
18.94
19.71
21.51
24.18
27.36
30.61
33.61
36.14
38.14
39.51
40.22
40.23
39.50
38.07
35.95
33.21
29.95
26.37
22.73
19.33
16.44
14.17
12.55
11.46
10.69
9.99
9.06
7.65
5.56
2.79
-0.50
-3.96
-7.17
-9.71
-11.31
-11.85
-11.39
-10.19
-8.52
-6.67
-4.79
-2.92
-1.08
0.71
2.35
3.68
4.60
5.06
5.12
4.87
4.38
3.71
2.89
1.97
1.03
0.18
-0.51
-1.02
-1.37
-1.54
-1.47
-1.09
-0.44
0.34
1.03
1.39
1.32
0.84
0.13
-0.62
-1.22
-1.59
-1.68
-1.46
-0.98
-0.39
-0.06
-0.41
-1.88
-4.64
-8.46
-12.71
-16.49
-19.03
-19.87
-19.09
-17.20
-14.96
-13.00
-11.76
-11.37
-11.79
-12.97
-14.86
-17.43
-20.60
-24.10
-27.45
-30.03
-31.22
-30.58
-28.04
-23.91
-18.79
-13.36
-8.18
-3.48
0.67
4.24
7.02
8.52
8.15
5.37
-0.03
-7.86
-17.60
-28.48
-39.64
-50.21
-59.41
-66.61
-71.41
-73.67
-73.57
-71.56
-68.24
-64.27
-60.05
-55.70
-51.02
-45.60
-39.14
-31.67
-23.61
-15.64
-8.44
-2.35
2.67
6.94
10.84
14.55
18.05
21.15
23.64
25.39
26.38
26.68
26.46
25.86
25.05
24.15
23.26
22.44
21.72
21.21
20.94
20.88
20.84
20.48
19.52
17.83
15.60
13.25
11.25
9.87
9.12
8.71
8.26
7.47
6.28
4.78
3.15
1.54
-0.07
-1.79
-3.78
-6.13
-8.75
-11.38
-13.55
-14.82
-14.85
-13.58
-11.22
-8.23
-5.05
-2.03
0.72
3.16
5.30
7.04
8.21
8.64
8.37
7.63
6.76
6.08
5.78
5.80
5.92
5.91
5.59
4.95
4.09
3.17
2.29
1.52
0.85
0.26
-0.26
-0.73
-1.19
-1.68
-2.31
-3.17
-4.30
-5.70
-7.23
-8.70
-9.90
-10.65
-10.97
-11.06
-11.26
-11.91
-13.21
-15.11
-17.29
-19.28
-20.66
-21.14
-20.65
-19.26
-17.14
-14.48
-11.48
-8.37
-5.41
-2.83
-0.75
0.83
2.07
3.16
4.22
5.26
6.16
6.75
6.94
6.72
6.24
5.69
5.29
5.17
5.34
5.66
5.93
5.94
5.56
4.84
3.90
2.97
2.18
1.56
1.01
0.40
-0.35
-1.31
-2.40
-3.61
-4.91
-6.29
-7.73
-9.19
-10.58
-11.83
-12.93
-13.82
-14.47
-14.76
-14.57
-13.78
-12.39
-10.49
-8.25
-5.85
-3.43
-1.13
0.93
2.60
3.70
4.15
3.98
3.41
2.78
2.45
2.59
3.22
4.14
5.09
5.89
6.45
6.79
6.93
6.86
6.47
5.70
4.54
3.13
1.68
0.39
-0.65
-1.54
-2.44
-3.48
-4.69
-5.94
-7.08
-7.96
-8.59
-9.13
-9.77
-10.66
-11.71
-12.65
-13.13
-12.84
-11.68
-9.79
-7.45
-4.94
-2.49
-0.24
1.78
3.49
4.83
5.69
6.04
5.97
5.68
5.43
5.45
5.80
6.43
7.12
7.66
7.89
7.79
7.50
7.21
7.04
7.01
7.00
6.86
6.44
5.69
4.63
3.28
1.67
-0.17
-2.20
-4.32
-6.36
-8.17
-9.70
-11.01
-12.31
-13.80
-15.58
-17.52
-19.30
-20.47
-20.71
-19.89
-18.10
-15.69
-13.01
-10.43
-8.21
-6.45
-5.11
-4.08
-3.18
-2.26
-1.25
-0.12
1.11
2.39
3.69
4.94
6.03
6.80
7.12
6.92
6.32
5.56
4.86
4.42
4.23
4.18
4.08
3.76
3.12
2.19
1.07
-0.07
-1.08
-1.86
-2.46
-2.94
-3.42
-4.03
-4.86
-6.01
-7.55
-9.53
-11.90
-14.44
-16.78
-18.44
-19.03
-18.32
-16.44
-13.79
-10.94
-8.37
-6.32
-4.73
-3.28
-1.64
0.35
2.62
4.86
6.72
7.91
8.39
8.28
7.85
7.34
6.93
6.70
6.62
6.62
6.66
6.62
6.45
6.07
5.42
4.48
3.27
1.89
0.49
-0.84
-2.00
-3.02
-3.99
-5.07
-6.35
-7.92
-9.68
-11.48
-13.15
-14.53
-15.64
-16.66
-17.89
-19.55
-21.65
-23.91
-25.84
-26.84
-26.53
-24.79
-21.89
-18.36
-14.73
-11.43
-8.61
-6.26
-4.22
-2.32
-0.45
1.40
3.25
5.07
6.79
8.33
9.58
10.43
10.80
10.66
10.03
8.97
7.56
5.91
4.16
2.46
0.95
-0.34
-1.42
-2.39
-3.34
-4.28
-5.15
-5.81
-6.15
-6.14
-5.84
-5.41
-5.03
-4.89
-5.09
-5.70
-6.75
-8.20
-9.96
-11.82
-13.47
-14.54
-14.71
-13.83
-11.99
-9.55
-6.92
-4.48
-2.42
-0.70
0.82
2.33
3.87
5.40
6.76
7.80
8.51
8.92
9.15
9.32
9.49
9.69
9.96
10.36
10.93
11.64
12.33
12.76
12.66
11.92
10.69
9.32
8.22
7.60
7.37
7.16
6.55
5.29
3.46
1.36
-0.65
-2.34
-3.78
-5.21
-6.93
-9.10
-11.64
-14.28
-16.62
-18.31
-19.08
-18.86
-17.71
-15.76
-13.17
-10.08
-6.63
-2.97
0.71
4.22
7.40
10.11
12.35
14.15
15.57
16.68
17.53
18.19
18.66
18.96
19.07
18.94
18.56
17.94
17.15
16.23
15.21
14.05
12.70
11.18
9.60
8.11
6.87
5.87
4.98
4.02
2.87
1.58
0.33
-0.69
-1.45
-2.06
-2.83
-4.02
-5.79
-8.11
-10.77
-13.53
-16.09
-18.19
-19.57
-20.06
-19.53
-18.02
-15.74
-12.99
-10.23
-7.79
-5.85
-4.37
-3.09
-1.69
0.12
2.38
4.87
7.26
9.19
10.49
11.20
11.57
11.89
12.39
13.05
13.71
14.17
14.29
14.12
13.77
13.37
12.95
12.48
11.84
10.98
9.96
8.93
8.04
7.30
6.63
5.77
4.54
2.83
0.79
-1.29
-3.07
-4.30
-4.98
-5.36
-5.91
-7.06
-9.06
-11.81
-14.93
-17.85
-20.01
-21.09
-21.00
-19.90
-18.04
-15.74
-13.30
-10.89
-8.67
-6.69
-4.95
-3.38
-1.86
-0.31
1.30
2.90
4.36
5.48
6.14
6.31
6.20
6.05
6.22
6.90
8.08
9.56
11.00
12.14
12.87
13.30
13.59
13.86
14.15
14.30
14.20
13.75
13.00
12.03
10.95
9.81
8.57
7.21
5.69
4.03
2.30
0.62
-0.96
-2.42
-3.79
-5.18
-6.68
-8.37
-10.22
-12.14
-13.97
-15.50
-16.56
-17.04
-16.97
-16.36
-15.29
-13.79
-11.90
-9.70
-7.25
-4.78
-2.45
-0.47
0.98
1.76
1.80
1.11
-0.14
-1.58
-2.74
-3.18
-2.70
-1.38
0.45
2.33
3.88
4.91
5.42
5.56
5.49
5.32
5.09
4.78
4.37
3.90
3.37
2.79
2.18
1.53
0.81
0.02
-0.83
-1.77
-2.81
-4.00
-5.38
-6.98
-8.76
-10.62
-12.51
-14.33
-16.17
-18.13
-20.33
-22.80
-25.36
-27.66
-29.24
-29.79
-29.21
-27.74
-25.73
-23.44
-20.81
-17.50
-13.10
-7.40
-0.61
6.73
13.94
20.48
26.05
30.55
33.99
36.36
37.75
38.43
38.84
39.46
40.59
42.12
43.46
43.87
42.65
39.62
35.15
30.10
25.43
21.94
19.88
19.03
18.88
18.93
18.94
18.90
18.88
18.75
18.05
16.15
12.46
6.82
-0.46
-8.61
-16.68
-23.89
-29.77
-34.15
-37.21
-39.19
-40.23
-40.26
-38.95
-35.77
-30.17
-21.83
-10.87
2.05
15.88
29.45
41.72
52.05
60.19
66.22
70.34
72.79
73.67
73.05
71.07
68.02
64.38
60.70
57.41
54.59
51.96
48.97
45.07
39.96
33.70
26.63
19.12
11.39
3.46
-4.70
-12.93
-20.77
-27.48
-32.34
-34.88
-35.08
-33.38
-30.47
-27.02
-23.62
-20.66
-18.45
-17.28
-17.36
-18.81
-21.43
-24.79
-28.25
-31.20
-33.25
-34.33
-34.58
-34.27
-33.55
-32.55
-31.29
-29.80
-28.20
-26.60
-25.12
-23.75
-22.41
-20.99
-19.42
-17.72
-15.94
-14.16
-12.37
-10.57
-8.79
-7.01
-5.32
-3.76
-2.42
-1.31
-0.47
0.10
0.41
0.52
0.50
0.49
0.58
0.84
1.20
1.55
1.73
1.63
1.15
0.31
-0.89
-2.46
-4.39
-6.58
-8.82
-10.74
-11.92
-12.06
-11.10
-9.30
-7.14
-5.13
-3.73
-3.16
-3.41
-4.37
-5.86
-7.69
-9.73
-11.81
-13.75
-15.36
-16.50
-17.13
-17.35
-17.36
-17.41
-17.70
-18.37
-19.38
-20.61
-21.87
-22.98
-23.87
-24.58
-25.23
-25.99
-26.96
-28.09
-29.23
-30.23
-31.04
-31.75
-32.58
-33.67
-34.92
-35.92
-36.11
-34.93
-32.13
-27.97
-23.05
-18.15
-13.85
-10.32
-7.38
-4.64
-1.87
0.91
3.44
5.50
6.97
8.04
9.05
10.26
11.73
13.27
14.61
15.50
15.89
15.93
15.85
15.83
15.91
15.99
15.90
15.48
14.65
13.45
12.00
10.47
9.00
7.60
6.24
4.80
3.04
0.81
-2.03
-5.43
-9.22
-13.01
-16.34
-18.70
-19.82
-19.65
-18.41
-16.50
-14.29
-12.11
-10.07
-8.21
-6.47
-4.77
-3.00
-1.02
1.23
3.71
6.25
8.61
10.58
12.08
13.15
13.84
14.20
14.16
13.65
12.67
11.35
9.95
8.67
7.57
6.57
5.50
4.22
2.78
1.37
0.22
-0.52
-0.93
-1.31
-2.08
-3.57
-5.94
-9.05
-12.51
-15.83
-18.58
-20.45
-21.32
-21.20
-20.17
-18.36
-15.89
-12.89
-9.53
-6.02
-2.55
0.68
3.58
6.12
8.34
10.29
12.00
13.46
14.65
15.58
16.29
16.87
17.42
17.97
18.50
18.94
19.19
19.17
18.85
18.25
17.46
16.57
15.66
14.75
13.73
12.43
10.67
8.39
5.71
2.92
0.35
-1.73
-3.31
-4.52
-5.65
-6.96
-8.65
-10.81
-13.44
-16.45
-19.64
-22.60
-24.83
-25.85
-25.33
-23.26
-19.94
-15.91
-11.71
-7.74
-4.14
-0.79
2.58
6.15
9.92
13.66
17.00
19.58
21.17
21.83
21.79
21.42
21.05
20.91
21.02
21.29
21.57
21.71
21.58
21.11
20.27
19.04
17.43
15.54
13.54
11.64
10.07
8.96
8.25
7.75
7.11
6.00
4.26
1.90
-0.82
-3.53
-5.83
-7.54
-8.78
-9.89
-11.31
-13.35
-16.10
-19.38
-22.87
-26.21
-29.12
-31.34
-32.61
-32.71
-31.52
-29.14
-25.85
-22.10
-18.28
-14.61
-11.05
-7.44
-3.68
0.13
3.72
6.75
9.06
10.69
11.95
13.14
14.48
15.96
17.37
18.48
19.08
19.14
18.75
18.06
17.19
16.27
15.34
14.42
13.48
12.46
11.24
9.68
7.73
5.43
2.93
0.40
-2.01
-4.27
-6.42
-8.54
-10.64
-12.67
-14.58
-16.37
-18.21
-20.34
-23.04
-26.44
-30.49
-34.98
-39.65
-44.26
-48.67
-52.77
-56.45
-59.55
-61.86
-63.21
-63.46
-62.54
-60.47
-57.34
-53.36
-48.84
-44.22
-39.92
-36.15
-32.75
-28.98
-23.64
-15.40
-3.31
12.72
31.60
51.18
68.71
81.56
87.90
87.18
80.17
68.79
55.51
42.77
32.42
25.40
21.72
20.74
21.57
23.44
25.82
28.34
30.62
32.13
32.32
30.81
27.60
23.20
18.34
13.77
9.81
6.38
3.13
-0.33
-4.06
-7.76
-10.83
-12.64
-12.67
-10.71
-6.81
-1.23
5.65
13.51
22.08
31.17
40.50
49.65
57.98
64.76
69.36
71.43
71.13
68.97
65.79
62.40
59.45
57.27
55.86
54.99
54.23
53.21
51.59
49.24
46.18
42.44
38.04
32.94
27.14
20.72
13.93
7.07
0.32
-6.34
-13.09
-20.07
-27.21
-34.09
-40.03
-44.36
-46.65
-46.95
-45.67
-43.38
-40.60
-37.65
-34.65
-31.67
-28.76
-25.98
-23.32
-20.62
-17.66
-14.27
-10.54
-6.81
-3.57
-1.21
0.13
0.71
1.01
1.55
2.60
4.15
5.91
7.53
8.69
9.25
9.24
8.80
8.10
7.30
6.47
5.68
4.89
4.12
3.40
2.70
1.98
1.13
-0.01
-1.51
-3.35
-5.36
-7.30
-8.95
-10.28
-11.43
-12.68
-14.29
-16.29
-18.57
-20.90
-23.10
-25.10
-27.00
-28.88
-30.78
-32.61
-34.14
-35.09
-35.24
-34.44
-32.68
-30.08
-26.81
-23.12
-19.24
-15.38
-11.65
-8.13
-4.88
-1.97
0.51
2.55
4.13
5.37
6.44
7.50
8.65
9.88
11.06
12.01
12.52
12.48
11.83
10.67
9.13
7.44
5.79
4.26
2.85
1.45
-0.11
-1.88
-3.79
-5.67
-7.26
-8.46
-9.34
-10.13
-11.22
-12.92
-15.40
-18.58
-22.11
-25.47
-28.11
-29.56
-29.51
-27.90
-24.88
-20.81
-16.11
-11.22
-6.51
-2.22
1.55
4.81
7.62
10.01
12.02
13.67
14.99
16.01
16.76
17.23
17.36
17.18
16.75
16.20
15.74
15.52
15.62
15.97
16.39
16.63
16.54
16.02
15.16
14.11
13.04
11.99
10.95
9.82
8.53
7.11
5.65
4.24
2.83
1.25
-0.70
-3.07
-5.66
-7.99
-9.47
-9.68
-8.50
-6.15
-3.11
0.17
3.38
6.42
9.30
12.05
14.56
16.64
18.02
18.55
18.32
17.61
16.84
16.41
16.61
17.45
18.79
20.44
22.15
23.77
25.16
26.17
26.66
26.58
25.99
25.10
24.24
23.71
23.63
23.93
24.35
24.60
24.47
23.98
23.23
22.49
21.91
21.52
21.24
20.90
20.38
19.61
18.59
17.39
16.06
14.67
13.30
12.10
11.24
10.87
11.05
11.67
12.50
13.22
13.59
13.44
12.78
11.72
10.34
8.69
6.81
4.77
2.72
0.88
-0.52
-1.41
-1.88
-2.16
-2.56
-3.29
-4.42
-5.90
-7.57
-9.30
-10.97
-12.55
-14.00
-15.32
-16.45
-17.33
-17.88
-18.10
-18.07
-17.96
-17.96
-18.28
-19.00
-20.08
-21.35
-22.57
-23.51
-24.03
-24.14
-23.99
-23.72
-23.42
-23.02
-22.38
-21.37
-19.93
-18.16
-16.31
-14.59
-13.19
-12.18
-11.57
-11.26
-11.15
-11.14
-11.20
-11.31
-11.49
-11.76
-12.03
-12.22
-12.14
-11.71
-10.96
-10.03
-9.08
-8.22
-7.51
-6.94
-6.52
-6.22
-6.10
-6.07
-6.04
-5.84
-5.41
-4.84
-4.37
-4.26
-4.65
-5.47
-6.45
-7.24
-7.59
-7.38
-6.66
-5.63
-4.50
-3.45
-2.60
-2.02
-1.70
-1.53
-1.38
-1.14
-0.74
-0.20
0.43
1.02
1.42
1.52
1.25
0.69
-0.00
-0.59
-0.88
-0.78
-0.38
0.17
0.62
0.82
0.73
0.39
-0.08
-0.56
-1.00
-1.38
-1.70
-1.98
-2.21
-2.41
-2.61
-2.85
-3.23
-3.80
-4.55
-5.36
-6.03
-6.34
-6.17
-5.57
-4.69
-3.75
-2.89
-2.18
-1.57
-0.99
-0.39
0.19
0.73
1.19
1.57
1.89
2.14
2.25
2.20
2.00
1.71
1.42
1.19
0.98
0.70
0.22
-0.56
-1.67
-3.03
-4.48
-5.87
-7.11
-8.18
-9.15
-10.12
-11.16
-12.35
-13.73
-15.30
-17.02
-18.70
-20.13
-21.03
-21.28
-21.00
-20.55
-20.35
-20.65
-21.39
-22.28
-22.94
-23.19
-23.19
-23.23
-23.61
-24.46
-25.69
-27.11
-28.51
-29.81
-30.99
-32.09
-33.17
-34.30
-35.66
-37.46
-39.95
-43.28
-47.46
-52.35
-57.65
-62.98
-67.80
-71.50
-73.37
-72.79
-69.33
-62.76
-53.20
-41.07
-27.05
-12.06
2.86
16.77
28.94
39.01
47.14
53.79
59.58
65.02
70.30
75.30
79.56
82.55
83.80
83.08
80.53
76.64
72.05
67.43
63.31
59.90
57.09
54.30
50.56
44.62
35.41
22.39
5.95
-12.62
-31.44
-48.64
-62.82
-73.27
-79.90
-82.92
-82.61
-79.27
-73.25
-65.18
-55.91
-46.48
-37.80
-30.52
-24.84
-20.50
-16.90
-13.34
-9.21
-4.15
1.85
8.57
15.64
22.73
29.55
35.88
41.59
46.56
50.76
54.20
56.96
59.09
60.63
61.60
62.01
61.90
61.27
60.07
58.19
55.46
51.83
47.37
42.37
37.23
32.31
27.74
23.34
18.68
13.34
7.15
0.33
-6.52
-12.67
-17.53
-20.88
-22.91
-24.13
-25.16
-26.46
-28.23
-30.44
-32.81
-34.94
-36.49
-37.22
-37.06
-36.08
-34.44
-32.28
-29.74
-26.91
-23.89
-20.80
-17.81
-15.05
-12.60
-10.43
-8.50
-6.73
-5.12
-3.69
-2.45
-1.39
-0.44
0.44
1.29
2.14
3.04
4.01
5.04
6.12
7.12
7.90
8.26
8.10
7.40
6.29
4.98
3.75
2.82
2.18
1.71
1.07
-0.08
-2.05
-4.90
-8.49
-12.42
-16.09
-18.85
-20.09
-19.55
-17.30
-13.83
-9.83
-5.97
-2.58
0.30
2.88
5.43
8.05
10.67
13.04
14.94
16.23
16.87
16.93
16.53
15.82
14.99
14.21
13.63
13.33
13.36
13.67
14.20
14.82
15.38
15.69
15.57
14.92
13.77
12.33
10.80
9.41
8.20
7.07
5.83
4.33
2.56
0.58
-1.47
-3.53
-5.68
-8.05
-10.76
-13.81
-17.08
-20.28
-23.11
-25.25
-26.45
-26.52
-25.34
-22.94
-19.46
-15.28
-10.82
-6.54
-2.75
0.46
3.19
5.60
7.83
9.95
11.87
13.50
14.75
15.66
16.31
16.80
17.21
17.59
17.93
18.29
18.68
19.17
19.71
20.25
20.62
20.68
20.29
19.40
18.01
16.24
14.31
12.46
10.90
9.72
8.89
8.22
7.48
6.45
5.07
3.37
1.50
-0.35
-1.98
-3.26
-4.24
-5.07
-5.98
-7.20
-8.77
-10.52
-12.06
-13.02
-13.08
-12.14
-10.29
-7.75
-4.72
-1.43
1.91
5.09
7.85
10.02
11.50
12.41
12.96
13.41
13.90
14.49
15.09
15.62
16.00
16.18
16.14
15.85
15.25
14.43
13.50
12.72
12.37
12.57
13.24
14.07
14.66
14.67
13.98
12.73
11.25
9.93
9.01
8.53
8.29
8.01
7.44
6.49
5.26
4.02
3.03
2.42
2.17
2.07
1.89
1.44
0.66
-0.47
-1.89
-3.49
-5.08
-6.34
-6.89
-6.41
-4.82
-2.33
0.62
3.53
6.02
7.90
9.17
9.86
9.98
9.59
8.74
7.66
6.65
6.04
6.01
6.55
7.40
8.18
8.60
8.54
8.13
7.61
7.25
7.15
7.23
7.29
7.15
6.69
5.95
5.05
4.13
3.30
2.69
2.33
2.21
2.23
2.22
1.99
1.43
0.56
-0.48
-1.46
-2.27
-2.88
-3.38
-3.94
-4.67
-5.62
-6.78
-8.10
-9.55
-11.03
-12.38
-13.39
-13.81
-13.47
-12.37
-10.72
-8.78
-6.87
-5.13
-3.65
-2.44
-1.52
-0.83
-0.38
-0.07
0.20
0.53
0.95
1.43
1.93
2.39
2.76
2.97
2.98
2.75
2.28
1.66
1.01
0.48
0.13
-0.01
-0.02
-0.01
-0.12
-0.46
-1.03
-1.74
-2.36
-2.67
-2.50
-1.90
-1.09
-0.42
-0.19
-0.56
-1.51
-2.88
-4.46
-6.06
-7.54
-8.78
-9.63
-9.94
-9.66
-8.85
-7.67
-6.38
-5.16
-4.09
-3.15
-2.21
-1.23
-0.20
0.76
1.46
1.73
1.54
0.92
0.06
-0.84
-1.64
-2.29
-2.91
-3.62
-4.56
-5.83
-7.43
-9.27
-11.23
-13.17
-14.94
-16.46
-17.71
-18.73
-19.54
-20.19
-20.65
-20.89
-20.94
-20.83
-20.70
-20.68
-20.90
-21.36
-22.06
-22.90
-23.74
-24.39
-24.57
-23.97
-22.32
-19.40
-15.21
-9.96
-4.13
1.56
6.33
9.51
10.83
10.46
9.07
7.53
6.66
6.94
8.53
11.27
14.88
18.96
23.03
26.62
29.27
30.68
30.73
29.50
27.14
23.81
19.74
15.19
10.63
6.56
3.47
1.62
1.00
1.41
2.52
4.04
5.79
7.64
9.42
10.98
12.13
12.62
12.16
10.43
7.20
2.45
-3.58
-10.36
-17.23
-23.63
-29.12
-33.52
-36.82
-38.99
-40.09
-40.16
-39.37
-37.94
-36.15
-34.23
-32.26
-30.18
-27.86
-25.23
-22.39
-19.58
-17.17
-15.52
-14.86
-15.21
-16.46
-18.35
-20.68
-23.39
-26.50
-30.13
-34.28
-38.68
-42.75
-45.76
-47.05
-46.33
-43.78
-39.91
-35.43
-30.89
-26.57
-22.50
-18.63
-14.97
-11.62
-8.78
-6.66
-5.38
-4.96
-5.38
-6.65
-8.72
-11.55
-14.93
-18.50
-21.85
-24.49
-26.06
-26.32
-25.17
-22.62
-18.72
-13.57
-7.24
0.24
8.88
18.70
29.64
41.50
53.90
66.15
77.51
87.22
94.76
99.96
102.85
103.58
102.10
98.16
91.29
81.15
67.93
52.57
36.73
22.42
11.37
4.58
1.94
2.47
4.69
7.13
8.70
8.88
7.56
4.89
1.18
-3.24
-7.84
-11.96
-14.94
-16.23
-15.63
-13.35
-9.87
-5.71
-1.30
3.16
7.63
12.15
16.73
21.40
26.16
31.01
35.87
40.46
44.35
47.05
48.21
47.82
46.16
43.71
40.86
37.87
34.75
31.44
27.93
24.37
20.93
17.83
15.15
12.86
10.87
9.05
7.32
5.59
3.77
1.71
-0.75
-3.67
-6.99
-10.45
-13.71
-16.45
-18.48
-19.88
-20.91
-21.87
-23.08
-24.59
-26.30
-27.93
-29.18
-29.75
-29.49
-28.33
-26.32
-23.59
-20.33
-16.73
-13.06
-9.57
-6.47
-3.92
-1.92
-0.40
0.82
1.97
3.25
4.79
6.58
8.50
10.30
11.75
12.66
13.01
12.91
12.56
12.08
11.51
10.71
9.53
7.93
6.01
4.00
2.08
0.27
-1.62
-3.94
-6.91
-10.59
-14.75
-19.06
-23.18
-26.88
-30.08
-32.68
-34.56
-35.58
-35.51
-34.26
-31.82
-28.39
-24.23
-19.70
-15.14
-10.84
-6.99
-3.73
-1.15
0.72
1.89
2.49
2.68
2.76
3.01
3.60
4.58
5.83
7.15
8.40
9.45
10.29
10.88
11.27
11.55
11.87
12.35
13.04
13.74
14.14
13.88
12.78
10.96
8.75
6.56
4.61
2.92
1.28
-0.52
-2.58
-4.92
-7.52
-10.39
-13.53
-16.88
-20.12
-22.76
-24.27
-24.30
-22.87
-20.35
-17.35
-14.38
-11.71
-9.28
-6.90
-4.42
-1.85
0.54
2.41
3.53
3.86
3.60
3.11
2.65
2.37
2.28
2.30
2.33
2.29
2.12
1.67
0.73
-0.91
-3.35
-6.46
-9.97
-13.47
-16.72
-19.69
-22.63
-25.92
-29.87
-34.62
-40.02
-45.73
-51.29
-56.28
-60.51
-63.96
-66.85
-69.54
-72.45
-75.82
-79.65
-83.61
-87.25
-90.17
-92.29
-93.81
-94.99
-95.93
-96.21
-95.04
-91.46
-84.84
-75.23
-63.35
-50.45
-37.85
-26.62
-17.37
-10.26
-5.08
-1.33
1.80
5.20
9.58
15.14
21.21
26.39
29.02
27.95
23.14
15.82
8.05
1.82
-1.77
-2.85
-2.55
-2.22
-2.65
-3.75
-4.75
-4.79
-3.57
-1.68
-0.31
-0.88
-4.39
-11.21
-21.02
-33.05
-46.30
-59.63
-71.68
-80.94
-85.88
-85.39
-79.28
-68.54
-55.22
-42.01
-31.38
-24.94
-23.02
-24.65
-27.96
-30.71
-30.77
-26.66
-17.87
-5.04
10.19
25.67
39.37
49.93
56.99
61.06
63.19
64.59
66.24
68.68
71.96
75.60
78.76
80.53
80.33
78.18
74.67
70.70
67.11
64.48
63.13
63.27
65.06
68.54
73.62
79.97
87.12
94.40
100.95
105.66
107.26
104.70
97.53
86.25
72.21
57.18
42.77
30.12
19.86
12.42
8.22
7.56
10.46
16.48
24.79
34.53
45.03
55.99
67.30
79.10
91.61
105.27
120.51
137.37
155.04
171.80
185.55
194.57
198.17
196.60
190.39
179.61
163.74
142.27
115.51
85.07
53.31
22.36
-6.77
-34.31
-60.94
-86.83
-111.09
-132.17
-148.55
-159.55
-165.47
-167.19
-165.74
-162.01
-156.83
-151.06
-145.75
-141.93
-140.40
-141.48
-144.86
-149.44
-153.40
-154.59
-151.19
-142.64
-129.90
-114.97
-99.72
-84.66
-68.76
-50.38
-28.95
-6.00
15.05
30.50
38.35
39.29
36.17
32.32
29.63
27.86
25.33
20.40
12.91
4.39
-2.46
-4.77
-0.56
10.75
28.19
49.39
71.06
89.75
102.59
107.92
105.81
98.08
88.17
80.22
77.96
83.50
96.50
114.28
132.60
147.06
154.09
151.58
138.86
116.41
85.71
49.31
10.74
-25.95
-57.19
-80.86
-96.81
-106.69
-113.10
-118.37
-123.76
-128.89
-131.97
-130.35
-121.70
-105.13
-81.96
-55.64
-30.73
-11.25
0.69
5.40
4.89
1.67
-2.52
-7.14
-12.49
-18.98
-26.46
-34.05
-40.47
-44.42
-44.79
-40.66
-31.15
-15.70
5.44
30.61
56.66
79.57
95.78
103.61
103.96
100.00
95.76
94.48
97.29
102.85
108.05
109.47
104.73
93.41
77.27
59.77
45.19
37.62
39.86
52.44
72.91
95.78
113.61
119.18
108.11
80.80
42.53
1.53
-34.14
-59.23
-72.19
-74.10
-66.61
-50.48
-25.73
6.94
44.69
82.40
114.02
134.74
142.71
139.33
128.37
114.36
101.16
90.86
83.49
77.26
69.47
57.90
41.93
23.08
4.31
-11.47
-22.89
-30.71
-37.09
-44.07
-52.26
-60.63
-67.44
-71.43
-72.58
-72.02
-71.26
-71.46
-73.11
-76.12
-80.14
-84.60
-88.66
-91.21
-91.09
-87.50
-80.36
-70.23
-57.98
-44.43
-30.23
-16.00
-2.67
8.59
16.68
21.32
23.27
24.23
26.04
29.80
35.38
41.53
46.45
48.56
46.87
41.19
31.93
19.91
6.20
-7.99
-21.42
-32.93
-41.69
-47.31
-49.95
-50.31
-49.41
-48.30
-47.75
-47.99
-48.64
-48.98
-48.32
-46.44
-43.72
-40.94
-38.85
-37.63
-36.85
-35.61
-33.01
-28.67
-22.82
-16.16
-9.39
-2.92
3.18
9.02
14.59
19.71
24.01
27.21
29.19
30.05
30.01
29.35
28.34
27.19
26.06
25.00
23.94
22.72
21.18
19.33
17.32
15.41
13.82
12.64
11.74
10.90
9.97
8.88
7.66
6.33
4.83
2.99
0.63
-2.40
-6.23
-11.01
-17.00
-24.38
-33.19
-43.08
-53.24
-62.57
-70.06
-75.14
-77.87
-78.87
-78.99
-78.93
-78.87
-78.59
-77.53
-75.20
-71.37
-66.22
-60.26
-54.18
-48.63
-44.03
-40.62
-38.37
-37.13
-36.62
-36.42
-36.01
-34.88
-32.81
-29.96
-26.83
-23.85
-20.99
-17.57
-12.57
-5.18
4.65
16.02
27.50
37.79
46.17
52.56
57.14
59.92
60.59
58.79
54.43
47.91
39.96
31.26
22.25
13.06
3.77
-5.48
-14.44
-22.87
-30.65
-37.74
-44.09
-49.44
-53.38
-55.42
-55.28
-53.01
-48.93
-43.49
-37.15
-30.30
-23.32
-16.61
-10.62
-5.64
-1.71
1.43
4.30
7.33
10.59
13.72
16.06
17.06
16.57
15.03
13.28
12.09
11.77
11.92
11.42
8.84
2.84
-7.21
-20.84
-36.31
-50.96
-61.93
-67.03
-65.34
-57.45
-45.01
-30.08
-14.38
1.13
16.29
31.33
46.46
61.40
75.37
87.25
96.04
101.16
102.65
101.04
97.16
91.77
85.33
77.98
69.73
60.83
51.83
43.57
36.85
32.10
29.26
27.83
27.14
26.73
26.39
26.14
25.95
25.56
24.56
22.70
20.17
17.51
15.27
13.61
12.12
10.15
7.29
3.69
0.06
-2.84
-4.61
-5.54
-6.37
-7.87
-10.38
-13.66
-17.07
-20.00
-22.09
-23.33
-23.93
-24.10
-23.87
-23.15
-21.70
-19.34
-16.04
-12.04
-7.74
-3.59
0.03
2.92
4.99
6.24
6.68
6.43
5.75
5.01
4.59
4.70
5.34
6.22
6.92
7.14
6.86
6.27
5.66
5.24
5.02
4.81
4.48
3.97
3.36
2.74
2.15
1.45
0.50
-0.81
-2.31
-3.68
-4.51
-4.55
-3.83
-2.68
-1.61
-1.09
-1.48
-2.92
-5.32
-8.32
-11.31
-13.53
-14.25
-13.05
-9.84
-4.90
1.51
9.30
18.52
29.08
40.29
50.71
58.29
60.98
57.25
46.46
28.98
6.08
-20.10
-46.76
-70.78
-89.28
-100.31
-103.54
-100.26
-92.90
-83.96
-75.19
-67.14
-59.30
-50.70
-40.43
-27.82
-12.45
5.74
26.19
47.51
67.47
83.53
93.64
97.03
94.52
88.22
80.68
74.09
69.73
67.91
68.19
69.66
71.23
71.73
70.19
66.07
59.66
52.14
45.30
40.90
39.88
42.00
45.89
49.68
51.89
51.91
50.05
47.02
43.27
38.67
32.58
24.46
14.29
2.85
-8.59
-18.72
-26.68
-32.33
-36.36
-40.16
-45.53
-54.21
-67.19
-84.14
-103.09
-120.94
-134.52
-141.68
-141.86
-135.89
-125.25
-111.35
-95.42
-78.63
-62.39
-48.10
-36.59
-27.51
-19.35
-10.13
1.38
14.95
28.83
40.59
48.30
51.21
49.85
45.47
39.48
33.07
27.08
22.00
17.99
14.85
12.13
9.33
6.14
2.62
-0.77
-3.41
-4.70
-4.32
-2.31
0.96
4.93
8.86
12.10
14.35
15.87
17.52
20.47
25.70
33.44
43.12
53.42
62.83
70.20
75.14
78.08
80.07
82.22
85.04
88.01
89.49
87.57
81.06
70.51
58.27
47.51
40.64
38.02
37.75
36.80
32.81
25.20
15.11
4.28
-6.33
-16.98
-28.60
-41.65
-55.49
-68.71
-80.15
-89.80
-98.79
-108.53
-119.58
-131.05
-140.90
-146.88
-147.53
-142.43
-132.05
-117.11
-98.32
-76.47
-52.84
-29.45
-8.99
5.98
14.00
15.46
12.70
9.11
7.69
9.78
14.61
19.79
22.72
21.89
17.46
10.97
4.32
-1.20
-5.20
-8.01
-9.96
-11.01
-10.78
-8.91
-5.42
-0.89
3.70
7.44
9.70
10.48
10.34
10.13
10.62
12.11
14.15
15.77
15.84
13.67
9.40
4.13
-0.44
-2.68
-1.56
3.01
10.21
18.74
27.27
34.82
40.93
45.57
49.03
51.70
54.00
56.39
59.29
63.08
67.90
73.48
79.13
83.94
87.12
88.45
88.46
88.28
89.22
92.09
96.83
102.41
107.19
109.62
108.77
104.53
97.49
88.46
78.15
67.12
55.83
44.91
35.18
27.44
22.01
18.43
15.58
12.02
6.75
-0.39
-8.80
-17.48
-25.68
-33.32
-40.85
-48.84
-57.42
-65.94
-73.19
-77.93
-79.56
-78.41
-75.65
-72.72
-70.73
-70.04
-70.34
-70.86
-70.85
-69.78
-67.51
-64.16
-60.08
-55.75
-51.77
-48.65
-46.73
-45.94
-45.85
-45.78
-45.05
-43.16
-39.96
-35.62
-30.54
-25.23
-20.28
-16.13
-13.07
-11.06
-9.82
-8.95
-8.10
-7.13
-6.04
-4.91
-3.71
-2.27
-0.42
1.98
4.80
7.65
9.93
11.04
10.55
8.47
5.20
1.45
-2.01
-4.71
-6.52
-7.67
-8.41
-8.91
-9.15
-9.04
-8.65
-8.24
-8.21
-8.84
-10.09
-11.58
-12.82
-13.41
-13.26
-12.57
-11.72
-11.13
-11.03
-11.49
-12.40
-13.56
-14.73
-15.74
-16.48
-16.91
-17.10
-17.15
-17.17
-17.19
-17.25
-17.33
-17.47
-17.70
-18.07
-18.56
-19.11
-19.67
-20.21
-20.79
-21.56
-22.68
-24.20
-25.99
-27.66
-28.65
-28.38
-26.47
-22.95
-18.26
-13.13
-8.31
-4.34
-1.36
0.77
2.36
3.68
4.88
5.98
7.00
8.00
9.01
10.13
11.34
12.65
14.03
15.49
17.09
18.87
20.84
22.95
25.10
27.16
29.01
30.60
31.94
33.05
33.93
34.44
34.35
33.44
31.46
28.32
24.04
18.80
13.00
7.11
1.68
-2.84
-6.22
-8.50
-9.99
-11.00
-11.72
-12.13
-12.07
-11.42
-10.20
-8.62
-6.97
-5.46
-4.12
-2.88
-1.64
-0.43
0.66
1.53
2.11
2.46
2.66
2.81
2.88
2.84
2.67
2.43
2.24
2.23
2.45
2.78
3.00
2.79
1.89
0.18
-2.29
-5.29
-8.45
-11.39
-13.92
-16.05
-18.07
-20.38
-23.35
-27.06
-31.30
-35.58
-39.27
-41.86
-43.16
-43.30
-42.70
-41.80
-40.94
-40.27
-39.77
-39.39
-39.11
-38.92
-38.77
-38.54
-38.10
-37.35
-36.31
-35.19
-34.23
-33.62
-33.28
-32.90
-31.95
-29.88
-26.38
-21.54
-15.77
-9.78
-4.24
0.41
3.99
6.60
8.44
9.66
10.32
10.44
10.05
9.24
8.18
7.02
5.83
4.60
3.24
1.64
-0.25
-2.35
-4.51
-6.45
-7.87
-8.52
-8.30
-7.29
-5.66
-3.63
-1.36
1.02
3.40
5.71
7.85
9.78
11.51
13.07
14.46
15.69
16.71
17.45
17.95
18.28
18.57
18.93
19.38
19.87
20.30
20.59
20.70
20.62
20.34
19.84
19.09
18.08
16.86
15.48
14.02
12.53
11.00
9.46
7.90
6.36
4.88
3.46
2.12
0.85
-0.35
-1.47
-2.52
-3.56
-4.70
-6.10
-7.87
-9.97
-12.18
-14.11
-15.31
-15.44
-14.31
-12.02
-8.89
-5.35
-1.87
1.22
3.80
5.88
7.57
8.97
10.08
10.80
11.07
10.90
10.43
9.84
9.35
9.02
8.84
8.75
8.71
8.81
9.12
9.71
10.50
11.31
11.92
12.12
11.86
11.18
10.21
9.07
7.82
6.48
5.08
3.60
2.06
0.49
-1.05
-2.49
-3.72
-4.67
-5.37
-5.98
-6.79
-8.07
-9.88
-12.06
-14.17
-15.73
-16.32
-15.80
-14.23
-11.83
-8.88
-5.61
-2.23
1.10
4.21
6.95
9.24
11.03
12.39
13.44
14.33
15.19
16.07
17.00
17.95
18.94
19.98
21.13
22.41
23.74
25.00
26.01
26.59
26.68
26.32
25.66
24.91
24.25
23.82
23.63
23.58
23.52
23.24
22.63
21.69
20.53
19.23
17.86
16.45
15.05
13.66
12.32
10.98
9.57
7.96
6.16
4.26
2.50
1.14
0.34
0.10
0.26
0.63
1.04
1.40
1.69
1.88
1.89
1.62
1.03
0.23
-0.57
-1.15
-1.32
-1.14
-0.84
-0.79
-1.29
-2.45
-4.21
-6.30
-8.45
-10.44
-12.15
-13.60
-14.91
-16.21
-17.63
-19.25
-21.04
-22.88
-24.59
-26.05
-27.27
-28.46
-29.92
-31.96
-34.70
-37.97
-41.34
-44.26
-46.22
-46.93
-46.32
-44.54
-41.84
-38.50
-34.81
-30.96
-27.07
-23.21
-19.37
-15.56
-11.82
-8.25
-4.95
-2.02
0.52
2.66
4.43
5.84
6.85
7.50
7.89
8.21
8.66
9.33
10.20
11.09
11.84
12.33
12.57
12.59
12.43
12.15
11.74
11.28
10.86
10.56
10.41
10.34
10.21
9.91
9.42
8.88
8.49
8.46
8.91
9.76
10.85
12.01
13.17
14.35
15.70
17.34
19.31
21.50
23.67
25.50
26.76
27.35
27.34
26.97
26.52
26.21
26.09
26.00
25.62
24.55
22.54
19.47
15.50
10.94
6.23
1.78
-2.11
-5.33
-7.95
-10.26
-12.56
-15.15
-18.10
-21.29
-24.35
-26.88
-28.48
-28.93
-28.24
-26.64
-24.54
-22.46
-20.88
-20.19
-20.47
-21.51
-22.82
-23.80
-23.94
-23.05
-21.31
-19.23
-17.41
-16.27
-15.93
-16.14
-16.45
-16.41
-15.76
-14.49
-12.80
-11.02
-9.35
-7.93
-6.68
-5.50
-4.23
-2.83
-1.24
0.55
2.58
4.86
7.29
9.69
11.79
13.33
14.17
14.33
13.92
13.08
11.96
10.64
9.17
7.64
6.08
4.44
2.55
0.27
-2.47
-5.58
-8.84
-11.99
-14.83
-17.24
-19.16
-20.53
-21.20
-21.13
-20.35
-19.07
-17.64
-16.41
-15.61
-15.31
-15.43
-15.85
-16.51
-17.34
-18.27
-19.07
-19.42
-18.99
-17.62
-15.41
-12.72
-9.99
-7.50
-5.23
-2.91
-0.21
3.04
6.66
10.22
13.19
15.20
16.17
16.31
15.99
15.58
15.32
15.34
15.63
16.10
16.66
17.23
17.72
18.06
18.17
17.94
17.30
16.27
14.96
13.61
12.43
11.59
11.07
10.69
10.17
9.28
7.90
6.09
4.06
2.04
0.23
-1.36
-2.75
-4.06
-5.43
-6.98
-8.78
-10.84
-13.08
-15.29
-17.15
-18.26
-18.28
-17.09
-14.78
-11.70
-8.31
-5.05
-2.23
0.02
1.72
2.97
3.89
4.56
5.04
5.30
5.34
5.12
4.63
3.92
3.11
2.29
1.56
0.93
0.33
-0.38
-1.38
-2.81
-4.75
-7.19
-9.98
-12.97
-15.99
-18.91
-21.69
-24.35
-26.98
-29.68
-32.52
-35.49
-38.53
-41.47
-44.21
-46.66
-48.82
-50.71
-52.30
-53.51
-54.15
-54.02
-52.98
-50.98
-48.00
-44.04
-39.05
-32.96
-25.81
-17.77
-9.24
-0.64
7.63
15.35
22.59
29.58
36.61
43.88
51.51
59.45
67.65
75.96
84.03
91.26
96.81
99.95
100.40
98.57
95.47
92.24
89.71
88.00
86.73
85.39
83.76
81.98
80.40
79.19
78.12
76.71
74.55
71.60
68.12
64.41
60.43
55.77
49.80
42.09
32.66
22.04
11.00
0.21
-9.86
-19.02
-27.19
-34.26
-40.16
-44.81
-48.26
-50.61
-52.03
-52.61
-52.40
-51.35
-49.41
-46.57
-42.94
-38.84
-34.77
-31.28
-28.80
-27.43
-26.88
-26.55
-25.94
-24.82
-23.46
-22.41
-22.16
-22.88
-24.32
-25.97
-27.39
-28.47
-29.41
-30.47
-31.78
-33.13
-34.12
-34.38
-33.86
-32.80
-31.68
-30.86
-30.43
-30.25
-30.03
-29.64
-29.19
-28.96
-29.22
-30.08
-31.44
-33.01
-34.40
-35.21
-35.07
-33.63
-30.60
-25.91
-19.83
-12.98
-6.23
-0.54
3.23
4.52
3.14
-0.74
-6.60
-13.51
-20.32
-25.76
-28.72
-28.60
-25.53
-20.30
-14.17
-8.47
-4.12
-1.48
-0.33
-0.07
0.07
0.74
2.39
5.26
9.31
14.19
19.21
23.49
26.22
26.97
25.88
23.57
20.82
18.19
15.78
13.21
9.97
5.68
0.43
-5.31
-10.87
-15.64
-19.24
-21.57
-22.73
-22.86
-22.12
-20.60
-18.40
-15.69
-12.73
-9.88
-7.56
-6.04
-5.39
-5.39
-5.64
-5.70
-5.29
-4.30
-2.84
-1.07
0.83
2.75
4.60
6.28
7.64
8.53
8.85
8.59
7.82
6.70
5.44
4.27
3.35
2.76
2.42
2.07
1.38
0.02
-2.16
-5.06
-8.33
-11.47
-13.94
-15.38
-15.66
-14.97
-13.72
-12.39
-11.38
-10.84
-10.62
-10.32
-9.48
-7.76
-5.08
-1.63
2.23
6.13
9.84
13.29
16.49
19.49
22.23
24.65
26.65
28.22
29.42
30.34
31.10
31.79
32.43
32.95
33.28
33.28
32.90
32.13
31.06
29.86
28.66
27.53
26.45
25.30
23.85
21.79
18.77
14.51
8.98
2.56
-4.02
-9.87
-14.25
-16.83
-17.73
-17.35
-16.09
-14.25
-11.96
-9.35
-6.58
-3.86
-1.33
1.00
3.21
5.30
6.98
7.67
6.65
3.41
-1.96
-8.68
-15.48
-20.96
-24.18
-24.87
-23.34
-20.28
-16.33
-11.92
-7.27
-2.62
1.69
5.22
7.59
8.67
8.63
7.87
6.75
5.44
3.97
2.34
0.69
-0.57
-0.79
0.59
3.96
9.21
15.82
23.01
30.03
36.31
41.60
45.83
49.02
51.22
52.42
52.71
52.22
51.13
49.58
47.60
45.17
42.27
39.03
35.70
32.61
30.02
28.02
26.49
25.14
23.60
21.50
18.59
14.82
10.34
5.53
0.83
-3.32
-6.59
-8.82
-10.08
-10.67
-11.01
-11.64
-12.93
-15.04
-17.74
-20.51
-22.66
-23.69
-23.38
-21.95
-19.85
-17.55
-15.33
-13.21
-11.03
-8.66
-6.10
-3.55
-1.40
-0.01
0.36
-0.33
-1.91
-4.01
-6.19
-7.96
-9.00
-9.12
-8.36
-6.91
-5.02
-2.89
-0.63
1.70
4.04
6.27
8.28
10.03
11.61
13.21
14.98
16.89
18.69
19.93
20.20
19.24
17.00
13.59
9.19
4.05
-1.53
-7.11
-12.11
-15.93
-18.06
-18.30
-16.74
-13.79
-10.12
-6.46
-3.48
-1.62
-0.96
-1.20
-1.80
-2.29
-2.40
-2.25
-2.14
-2.45
-3.32
-4.65
-6.18
-7.64
-8.92
-10.06
-11.16
-12.23
-13.15
-13.67
-13.66
-13.14
-12.37
-11.72
-11.53
-11.96
-12.91
-14.09
-15.19
-16.00
-16.52
-16.88
-17.21
-17.57
-17.87
-17.92
-17.54
-16.67
-15.42
-14.06
-12.86
-12.04
-11.69
-11.82
-12.36
-13.28
-14.50
-15.87
-17.07
-17.70
-17.33
-15.67
-12.71
-8.78
-4.39
-0.16
3.48
6.33
8.44
9.99
11.18
12.09
12.75
13.19
13.50
13.87
14.47
15.38
16.50
17.53
18.13
18.08
17.30
15.98
14.36
12.72
11.25
10.02
8.97
8.01
7.03
5.90
4.58
3.04
1.28
-0.59
-2.46
-4.23
-5.84
-7.31
-8.79
-10.47
-12.59
-15.32
-18.71
-22.64
-26.88
-31.14
-35.17
-38.94
-42.53
-46.14
-49.91
-53.82
-57.66
-61.08
-63.71
-65.22
-65.39
-64.06
-61.08
-56.35
-49.97
-42.26
-33.76
-25.07
-16.64
-8.60
-0.77
7.10
15.19
23.41
31.46
38.95
45.50
50.88
54.92
57.48
58.40
57.55
54.90
50.55
44.79
38.10
31.07
24.36
18.56
14.09
11.09
9.50
9.11
9.75
11.36
13.97
17.55
21.87
26.40
30.45
33.46
35.31
36.43
37.76
40.27
44.51
50.36
56.97
63.19
67.98
70.78
71.54
70.48
67.84
63.66
57.84
50.43
41.75
32.46
23.38
15.15
8.08
2.09
-3.12
-7.86
-12.27
-16.22
-19.51
-21.89
-23.33
-23.98
-24.17
-24.23
-24.40
-24.74
-25.12
-25.36
-25.32
-25.00
-24.50
-23.96
-23.51
-23.20
-23.01
-22.94
-22.95
-23.04
-23.19
-23.36
-23.55
-23.76
-24.05
-24.42
-24.84
-25.17
-25.17
-24.61
-23.30
-21.20
-18.48
-15.41
-12.25
-9.22
-6.34
-3.55
-0.79
1.92
4.50
6.79
8.73
10.39
11.89
13.41
14.99
16.53
17.82
18.60
18.70
18.09
16.85
15.18
13.32
11.46
9.68
7.95
6.16
4.19
2.01
-0.30
-2.52
-4.40
-5.78
-6.63
-7.10
-7.44
-7.97
-8.90
-10.36
-12.26
-14.39
-16.46
-18.16
-19.21
-19.42
-18.72
-17.15
-14.92
-12.31
-9.62
-7.08
-4.86
-3.01
-1.53
-0.34
0.63
1.47
2.28
3.10
3.94
4.70
5.27
5.62
5.73
5.63
5.36
4.90
4.23
3.34
2.31
1.23
0.21
-0.74
-1.67
-2.64
-3.69
-4.72
-5.57
-6.12
-6.34
-6.32
-6.31
-6.59
-7.44
-8.95
-11.04
-13.42
-15.63
-17.25
-17.93
-17.59
-16.31
-14.32
-11.91
-9.31
-6.63
-3.94
-1.26
1.41
3.98
6.35
8.38
9.99
11.17
11.97
12.50
12.81
12.93
12.87
12.66
12.42
12.27
12.36
12.68
13.16
13.59
13.80
13.67
13.15
12.22
10.93
9.36
7.58
5.69
3.78
1.93
0.14
-1.64
-3.49
-5.54
-7.86
-10.46
-13.21
-15.89
-18.19
-19.75
-20.29
-19.68
-18.00
-15.54
-12.72
-9.96
-7.53
-5.52
-3.81
-2.24
-0.69
0.85
2.29
3.56
4.62
5.52
6.27
6.90
7.37
7.63
7.72
7.74
7.82
8.09
8.56
9.17
9.85
10.47
10.97
11.29
11.34
11.06
10.40
9.40
8.14
6.77
5.39
4.07
2.77
1.39
-0.18
-2.08
-4.39
-7.11
-10.09
-13.05
-15.61
-17.36
-18.04
-17.63
-16.36
-14.63
-12.81
-11.10
-9.52
-7.96
-6.29
-4.56
-2.90
-1.54
-0.62
-0.15
0.04
0.14
0.32
0.56
0.76
0.77
0.53
0.08
-0.48
-1.02
-1.48
-1.91
-2.33
-2.81
-3.34
-3.90
-4.41
-4.86
-5.26
-5.65
-6.07
-6.58
-7.20
-7.95
-8.87
-9.97
-11.31
-12.87
-14.66
-16.63
-18.69
-20.69
-22.44
-23.67
-24.08
-23.45
-21.72
-19.03
-15.78
-12.42
-9.38
-6.84
-4.76
-2.91
-1.01
1.13
3.50
5.89
8.08
9.88
11.24
12.25
13.09
13.92
14.85
15.88
16.93
17.88
18.58
18.98
18.98
18.56
17.70
16.40
14.72
12.72
10.47
8.08
5.65
3.29
1.10
-0.86
-2.63
-4.25
-5.80
-7.32
-8.80
-10.22
-11.56
-12.91
-14.39
-16.11
-17.99
-19.79
-21.11
-21.58
-20.99
-19.38
-17.01
-14.19
-11.24
-8.28
-5.31
-2.29
0.82
3.92
6.89
9.51
11.64
13.22
14.30
14.98
15.43
15.75
15.99
16.13
16.16
16.13
16.09
16.15
16.36
16.63
16.80
16.66
16.02
14.86
13.26
11.46
9.71
8.17
6.88
5.75
4.62
3.30
1.69
-0.22
-2.28
-4.30
-6.09
-7.57
-8.82
-10.01
-11.35
-12.94
-14.82
-16.88
-18.92
-20.64
-21.75
-21.96
-21.13
-19.27
-16.59
-13.45
-10.20
-7.09
-4.20
-1.46
1.21
3.86
6.44
8.80
10.82
12.42
13.61
14.50
15.22
15.84
16.38
16.79
17.00
17.00
16.82
16.58
16.38
16.32
16.38
16.43
16.33
15.93
15.20
14.21
13.09
11.98
10.96
9.99
8.95
7.70
6.17
4.36
2.39
0.40
-1.52
-3.32
-5.04
-6.71
-8.33
-9.91
-11.43
-12.93
-14.45
-16.00
-17.40
-18.37
-18.58
-17.76
-15.93
-13.33
-10.39
-7.51
-4.95
-2.76
-0.83
0.94
2.61
4.08
5.22
5.88
5.99
5.57
4.73
3.66
2.63
1.91
1.61
1.67
1.79
1.52
0.49
-1.38
-3.81
-6.22
-8.02
-8.89
-8.99
-8.88
-9.36
-11.02
-13.99
-17.79
-21.48
-23.96
-24.50
-23.12
-20.58
-18.14
-16.95
-17.46
-19.00
-19.95
-18.23
-12.06
-0.56
15.88
35.56
55.59
72.13
81.05
79.28
66.12
44.23
19.28
-1.83
-13.52
-13.68
-4.24
10.06
23.99
33.94
38.82
39.56
37.82
34.82
31.02
26.55
21.73
17.33
14.30
13.28
14.12
15.85
17.04
16.47
13.69
9.24
4.45
0.84
-0.56
0.37
2.79
5.29
6.52
5.68
2.79
-1.36
-5.59
-8.74
-10.12
-9.68
-7.93
-5.73
-3.88
-2.88
-2.79
-3.24
-3.74
-3.83
-3.20
-1.82
0.20
2.63
5.19
7.68
10.00
12.11
14.05
15.71
16.83
17.10
16.32
14.56
12.22
9.77
7.59
5.73
3.95
1.93
-0.44
-2.98
-5.25
-6.88
-7.78
-8.16
-8.46
-9.11
-10.33
-12.18
-14.57
-17.35
-20.28
-23.03
-25.17
-26.33
-26.24
-24.89
-22.49
-19.44
-16.13
-12.88
-9.82
-6.97
-4.21
-1.44
1.45
4.46
7.50
10.36
12.79
14.60
15.73
16.24
16.27
15.95
15.35
14.38
12.98
11.05
8.55
5.53
2.17
-1.28
-4.45
-7.01
-8.72
-9.57
-9.80
-9.87
-10.24
-11.21
-12.84
-14.99
-17.42
-20.08
-22.96
-26.09
-29.30
-32.12
-33.91
-34.08
-32.42
-29.18
-25.01
-20.74
-17.00
-14.08
-11.86
-10.00
-8.14
-6.06
-3.73
-1.31
1.00
3.01
4.64
5.89
6.82
7.57
8.27
9.00
9.76
10.48
10.99
11.12
10.80
10.08
9.15
8.16
7.22
6.34
5.41
4.36
3.15
1.84
0.50
-0.82
-2.14
-3.54
-5.12
-6.93
-8.96
-11.16
-13.47
-15.78
-17.97
-19.88
-21.33
-22.17
-22.35
-21.92
-20.97
-19.59
-17.83
-15.64
-13.04
-10.10
-7.05
-4.20
-1.82
-0.08
1.06
1.80
2.36
2.88
3.37
3.79
4.12
4.41
4.74
5.15
5.55
5.69
5.35
4.43
3.05
1.50
0.06
-1.14
-2.23
-3.47
-5.07
-7.00
-9.01
-10.75
-12.02
-12.88
-13.62
-14.56
-15.81
-17.22
-18.48
-19.41
-20.09
-20.78
-21.70
-22.75
-23.59
-23.91
-23.74
-23.53
-23.97
-25.48
-27.90
-30.50
-32.33
-32.82
-31.96
-30.15
-27.79
-24.86
-20.90
-15.19
-7.25
2.93
14.94
28.12
41.81
55.37
68.13
79.35
88.16
93.76
95.62
93.65
88.24
80.18
70.52
60.38
50.81
42.55
35.95
30.92
27.03
23.69
20.36
16.68
12.59
8.22
3.81
-0.32
-3.93
-6.87
-9.21
-11.18
-13.08
-15.11
-17.19
-19.02
-20.12
-20.12
-18.94
-16.77
-14.05
-11.20
-8.51
-6.08
-3.93
-2.05
-0.45
0.83
1.79
2.48
3.01
3.47
3.94
4.45
5.03
5.67
6.38
7.14
7.90
8.58
9.09
9.33
9.30
8.99
8.51
7.95
7.36
6.74
6.08
5.29
4.35
3.22
1.96
0.62
-0.78
-2.25
-3.90
-5.84
-8.15
-10.82
-13.71
-16.50
-18.79
-20.18
-20.40
-19.38
-17.22
-14.18
-10.65
-7.01
-3.55
-0.50
2.09
4.28
6.20
7.99
9.69
11.29
12.69
13.73
14.32
14.38
13.88
12.83
11.38
9.68
8.00
6.60
5.66
5.18
5.02
4.89
4.47
3.55
2.09
0.19
-1.87
-3.81
-5.42
-6.59
-7.38
-7.99
-8.67
-9.64
-11.08
-12.97
-15.18
-17.45
-19.50
-21.06
-21.98
-22.18
-21.66
-20.52
-18.91
-16.99
-14.93
-12.86
-10.85
-8.92
-7.07
-5.26
-3.49
-1.75
-0.02
1.74
3.56
5.40
7.17
8.65
9.68
10.12
9.96
9.28
8.21
6.93
5.62
4.47
3.66
3.29
3.38
3.77
4.15
4.19
3.61
2.33
0.46
-1.78
-4.08
-6.22
-8.03
-9.47
-10.60
-11.60
-12.67
-13.99
-15.57
-17.17
-18.39
-18.80
-18.12
-16.36
-13.87
-11.10
-8.46
-6.21
-4.32
-2.66
-1.08
0.48
2.03
3.48
4.79
5.89
6.74
7.29
7.51
7.36
6.83
5.97
4.91
3.86
3.08
2.79
3.08
3.91
5.05
6.24
7.19
7.71
7.69
7.10
5.94
4.30
2.30
0.15
-1.92
-3.71
-5.16
-6.38
-7.58
-8.99
-10.68
-12.59
-14.44
-15.91
-16.70
-16.65
-15.77
-14.23
-12.26
-10.07
-7.81
-5.50
-3.13
-0.73
1.64
3.79
5.51
6.61
7.01
6.71
5.91
4.83
3.71
2.80
2.27
2.22
2.71
3.72
5.10
6.56
7.73
8.22
7.80
6.50
4.59
2.53
0.73
-0.58
-1.40
-1.90
-2.38
-3.09
-4.32
-6.31
-9.14
-12.70
-16.52
-19.85
-21.84
-21.88
-19.75
-15.80
-10.74
-5.44
-0.66
3.10
5.66
7.10
7.67
7.70
7.59
7.66
8.21
9.44
11.36
13.82
16.44
18.70
20.07
20.20
19.00
16.72
13.79
10.67
7.73
5.12
2.86
0.87
-0.89
-2.40
-3.60
-4.42
-4.77
-4.65
-4.15
-3.52
-3.20
-3.68
-5.39
-8.45
-12.59
-17.16
-21.27
-24.10
-25.14
-24.27
-21.77
-18.16
-14.09
-10.10
-6.64
-3.91
-1.88
-0.31
1.13
2.80
4.86
7.22
9.65
11.82
13.47
14.50
14.87
14.58
13.67
12.19
10.30
8.29
6.54
5.43
5.16
5.69
6.78
7.98
8.88
9.10
8.41
6.72
4.17
1.06
-2.15
-4.92
-6.80
-7.54
-7.28
-6.47
-5.87
-6.21
-7.97
-11.15
-15.24
-19.39
-22.61
-24.10
-23.43
-20.64
-16.20
-10.84
-5.40
-0.61
3.04
5.40
6.69
7.40
8.12
9.34
11.28
13.76
16.28
18.18
18.89
18.20
16.35
13.97
11.85
10.61
10.54
11.50
13.06
14.63
15.61
15.60
14.41
12.09
9.02
5.74
2.85
0.78
-0.36
-0.81
-1.07
-1.61
-2.68
-4.16
-5.70
-6.89
-7.61
-8.00
-8.39
-8.97
-9.54
-9.44
-7.77
-3.83
2.55
10.89
20.20
29.44
37.87
45.27
51.89
58.16
64.38
70.59
76.57
81.99
86.52
89.68
90.73
88.77
83.18
74.11
62.93
51.88
43.14
37.75
34.97
32.66
28.61
21.78
13.02
4.50
-1.60
-4.31
-4.31
-3.32
-3.01
-4.09
-6.16
-8.28
-9.63
-9.96
-9.48
-8.43
-6.84
-4.57
-1.58
1.72
4.53
6.00
5.69
4.00
2.06
1.32
2.81
6.65
11.81
16.46
18.56
16.48
9.44
-2.43
-18.25
-36.74
-56.44
-75.94
-93.96
-109.31
-120.94
-127.94
-129.61
-125.64
-116.31
-102.54
-85.78
-67.74
-49.92
-33.36
-18.61
-6.00
4.09
11.15
14.77
14.91
12.14
7.39
1.61
-4.66
-11.23
-17.99
-24.50
-29.91
-33.30
-34.28
-33.49
-32.58
-33.69
-38.57
-47.90
-60.94
-75.84
-90.39
-102.81
-112.41
-119.43
-124.47
-127.71
-128.45
-125.39
-117.49
-104.75
-88.40
-70.17
-51.25
-31.87
-11.79
8.48
26.83
39.87
44.50
39.74
27.64
12.66
-0.20
-7.40
-7.88
-2.72
6.05
16.65
28.23
40.70
54.20
68.42
82.46
94.94
104.52
110.44
112.84
112.53
110.45
107.12
102.24
95.11
85.31
73.23
60.04
47.02
34.75
22.82
10.18
-3.97
-19.58
-35.74
-51.20
-65.05
-77.00
-87.28
-96.15
-103.66
-109.55
-113.51
-115.42
-115.40
-113.64
-110.24
-105.23
-98.76
-91.17
-82.80
-73.58
-62.62
-48.27
-28.55
-2.14
30.90
68.78
108.25
145.55
177.15
200.40
213.66
216.29
208.90
193.70
174.61
156.59
144.34
140.67
145.49
155.87
167.24
175.10
176.29
169.70
155.84
136.35
113.29
88.84
65.00
43.37
24.89
9.77
-2.29
-11.69
-18.57
-22.91
-24.74
-24.50
-23.08
-21.51
-20.59
-20.56
-21.15
-21.84
-22.17
-21.96
-21.24
-20.19
-18.98
-17.80
-16.79
-16.19
-16.09
-16.48
-17.15
-17.72
-17.82
-17.16
-15.65
-13.33
-10.43
-7.27
-4.25
-1.72
0.16
1.48
2.58
3.83
5.38
7.05
8.29
8.45
7.09
4.19
0.12
-4.42
-8.73
-12.21
-14.54
-15.63
-15.66
-15.06
-14.34
-14.13
-14.83
-16.60
-19.32
-22.55
-25.87
-28.97
-31.75
-34.24
-36.57
-38.79
-40.90
-42.85
-44.58
-46.10
-47.38
-48.34
-48.85
-48.76
-47.97
-46.55
-44.62
-42.34
-39.76
-36.79
-33.34
-29.42
-25.22
-21.04
-17.24
-13.99
-11.27
-8.96
-6.93
-5.15
-3.79
-3.06
-3.13
-4.03
-5.55
-7.37
-9.08
-10.35
-10.99
-11.03
-10.69
-10.35
-10.44
-11.33
-13.22
-16.09
-19.74
-23.71
-27.46
-30.38
-31.99
-32.17
-31.19
-29.68
-28.40
-27.85
-28.09
-28.75
-29.25
-29.19
-28.59
-27.87
-27.56
-27.99
-29.08
-30.35
-31.18
-31.09
-29.87
-27.55
-24.37
-20.56
-16.37
-12.03
-7.87
-4.22
-1.39
0.43
1.23
1.14
0.33
-1.09
-3.09
-5.69
-8.86
-12.45
-16.25
-19.95
-23.33
-26.21
-28.50
-30.14
-31.05
-31.25
-30.89
-30.38
-30.31
-31.24
-33.46
-36.66
-39.89
-41.75
-40.75
-35.91
-26.98
-14.57
0.19
15.99
31.64
46.21
58.93
69.10
76.08
79.43
79.15
75.78
70.39
64.17
58.15
52.79
48.00
43.21
37.85
31.61
24.76
18.10
12.66
9.30
8.32
9.36
11.53
13.82
15.51
16.41
16.84
17.33
18.38
20.15
22.50
24.97
26.92
27.67
26.58
23.30
17.87
10.88
3.23
-4.11
-10.48
-15.71
-20.00
-23.69
-26.84
-29.28
-30.57
-30.42
-28.81
-26.05
-22.57
-18.74
-14.76
-10.70
-6.66
-2.82
0.40
2.60
3.42
2.69
0.54
-2.73
-6.63
-10.65
-14.31
-17.34
-19.60
-21.15
-22.14
-22.83
-23.46
-24.30
-25.53
-27.23
-29.23
-31.19
-32.61
-33.01
-32.06
-29.72
-26.22
-21.99
-17.54
-13.33
-9.68
-6.71
-4.37
-2.40
-0.51
1.56
3.96
6.62
9.34
11.76
13.57
14.55
14.70
14.25
13.65
13.40
13.93
15.46
17.93
21.11
24.65
28.22
31.59
34.69
37.57
40.31
43.03
45.68
48.07
49.81
50.48
49.74
47.46
43.87
39.49
35.04
31.24
28.64
27.36
26.89
26.27
24.32
20.18
13.75
5.77
-2.46
-9.57
-14.69
-17.65
-18.84
-18.86
-18.18
-17.07
-15.64
-14.10
-12.80
-12.14
-12.43
-13.63
-15.39
-17.17
-18.45
-18.90
-18.50
-17.55
-16.50
-15.76
-15.56
-15.89
-16.53
-17.15
-17.49
-17.45
-17.08
-16.60
-16.20
-16.02
-16.10
-16.35
-16.69
-17.01
-17.32
-17.70
-18.30
-19.24
-20.55
-22.13
-23.73
-25.01
-25.66
-25.48
-24.43
-22.62
-20.24
-17.57
-14.83
-12.18
-9.65
-7.23
-4.91
-2.70
-0.72
0.92
2.10
2.86
3.30
3.64
4.06
4.68
5.56
6.67
7.95
9.30
10.60
11.76
12.74
13.54
14.25
14.99
15.83
16.81
17.85
18.78
19.43
19.67
19.46
18.92
18.24
17.56
16.89
16.06
14.80
12.83
10.10
6.79
3.31
0.17
-2.21
-3.54
-3.81
-3.18
-1.94
-0.46
0.96
2.11
2.95
3.62
4.48
5.95
8.41
11.96
16.25
20.55
23.84
25.22
24.24
21.07
16.42
11.26
6.43
2.40
-0.78
-3.33
-5.53
-7.60
-9.57
-11.42
-13.08
-14.48
-15.57
-16.28
-16.65
-16.85
-17.18
-17.97
-19.50
-21.82
-24.71
-27.80
-30.67
-33.04
-34.77
-35.89
-36.46
-36.56
-36.27
-35.61
-34.61
-33.26
-31.50
-29.25
-26.45
-23.16
-19.51
-15.71
-11.98
-8.51
-5.39
-2.71
-0.52
1.11
2.22
2.91
3.34
3.68
4.08
4.55
5.03
5.41
5.62
5.64
5.49
5.20
4.78
4.21
3.48
2.60
1.62
0.61
-0.41
-1.43
-2.56
-3.89
-5.43
-7.14
-8.88
-10.44
-11.74
-12.79
-13.75
-14.89
-16.40
-18.34
-20.51
-22.50
-23.82
-24.07
-23.13
-21.20
-18.78
-16.42
-14.51
-13.14
-12.05
-10.82
-8.91
-5.94
-1.69
3.83
10.37
17.44
24.35
30.41
35.02
37.85
38.92
38.53
37.22
35.51
33.85
32.49
31.47
30.60
29.62
28.21
26.23
23.70
20.83
17.92
15.22
12.82
10.69
8.69
6.70
4.61
2.45
0.26
-1.87
-3.80
-5.42
-6.62
-7.36
-7.72
-7.92
-8.22
-8.83
-9.79
-10.94
-11.93
-12.36
-11.93
-10.51
-8.20
-5.30
-2.20
0.71
3.08
4.70
5.51
5.58
5.14
4.51
4.01
3.89
4.26
5.07
6.15
7.27
8.18
8.65
8.58
7.95
6.90
5.64
4.39
3.36
2.54
1.72
0.56
-1.29
-4.01
-7.48
-11.40
-15.34
-18.97
-22.05
-24.51
-26.34
-27.57
-28.21
-28.26
-27.81
-26.99
-25.94
-24.82
-23.68
-22.55
-21.42
-20.32
-19.32
-18.51
-17.92
-17.52
-17.18
-16.65
-15.75
-14.33
-12.37
-9.96
-7.27
-4.49
-1.78
0.71
2.87
4.65
6.03
7.05
7.85
8.58
9.36
10.25
11.21
12.14
12.92
13.45
13.71
13.71
13.56
13.37
13.22
13.13
13.04
12.82
12.31
11.37
10.01
8.33
6.52
4.82
3.39
2.35
1.70
1.39
1.25
1.06
0.56
-0.47
-2.10
-4.25
-6.69
-9.14
-11.35
-13.06
-14.12
-14.38
-13.80
-12.44
-10.52
-8.37
-6.23
-4.26
-2.45
-0.71
1.00
2.62
4.05
5.19
6.01
6.61
7.13
7.63
8.12
8.49
8.64
8.52
8.14
7.55
6.83
6.05
5.29
4.62
4.05
3.52
2.88
1.98
0.73
-0.85
-2.61
-4.33
-5.81
-6.93
-7.69
-8.21
-8.63
-9.15
-9.87
-10.88
-12.11
-13.37
-14.41
-14.95
-14.81
-13.93
-12.39
-10.35
-7.97
-5.40
-2.75
-0.20
2.11
4.03
5.50
6.56
7.33
7.98
8.61
9.27
9.93
10.59
11.24
11.90
12.63
13.42
14.22
14.91
15.31
15.29
14.83
14.00
12.96
11.88
10.82
9.77
8.59
7.23
5.70
4.15
2.76
1.59
0.55
-0.65
-2.26
-4.45
-7.12
-10.03
-12.83
-15.25
-17.05
-18.10
-18.30
-17.61
-16.07
-13.82
-11.11
-8.26
-5.48
-2.88
-0.38
2.13
4.78
7.54
10.25
12.68
14.60
15.88
16.54
16.77
16.82
16.88
17.05
17.25
17.36
17.29
17.00
16.52
15.88
15.06
14.10
13.03
11.97
11.05
10.35
9.81
9.24
8.38
7.08
5.36
3.42
1.54
-0.08
-1.38
-2.49
-3.63
-5.04
-6.89
-9.21
-11.83
-14.39
-16.49
-17.67
-17.65
-16.33
-13.91
-10.78
-7.45
-4.33
-1.68
0.48
2.27
3.83
5.22
6.38
7.25
7.77
8.03
8.22
8.52
9.00
9.54
9.90
9.90
9.53
8.99
8.52
8.34
8.42
8.66
8.80
8.71
8.33
7.70
6.87
5.93
4.97
4.07
3.31
2.71
2.22
1.67
0.91
-0.12
-1.43
-2.94
-4.64
-6.51
-8.58
-10.73
-12.70
-14.12
-14.64
-14.04
-12.36
-9.85
-6.86
-3.68
-0.49
2.65
5.77
8.84
11.70
14.12
15.82
16.68
16.69
16.12
15.31
14.64
14.32
14.36
14.59
14.80
14.79
14.49
13.91
13.13
12.21
11.15
9.94
8.58
7.10
5.53
3.90
2.19
0.37
-1.54
-3.47
-5.26
-6.77
-7.93
-8.87
-9.79
-10.90
-12.31
-13.96
-15.56
-16.71
-17.08
-16.47
-14.87
-12.43
-9.42
-6.19
-3.03
-0.19
2.21
4.16
5.71
7.01
8.21
9.47
10.97
12.86
15.20
17.89
20.70
23.27
25.28
26.53
27.03
26.94
26.52
25.99
25.45
24.88
24.14
22.98
21.16
18.48
14.98
10.89
6.67
2.80
-0.35
-2.71
-4.47
-5.99
-7.76
-10.14
-13.39
-17.50
-22.25
-27.15
-31.51
-34.68
-36.20
-35.93
-34.12
-31.23
-27.87
-24.60
-21.81
-19.75
-18.36
-17.38
-16.39
-14.95
-12.73
-9.70
-6.00
-1.94
2.26
6.48
10.72
15.07
19.57
24.25
29.16
34.38
39.92
45.69
51.31
56.18
59.61
60.93
59.78
56.17
50.61
43.92
37.14
31.23
26.83
24.15
22.98
22.79
22.99
23.08
22.77
21.94
20.56
18.60
16.04
12.84
9.08
4.96
0.82
-2.96
-6.03
-8.22
-9.58
-10.31
-10.73
-11.00
-11.17
-11.09
-10.59
-9.58
-8.14
-6.41
-4.60
-2.82
-1.08
0.64
2.33
3.90
5.13
5.79
5.73
4.90
3.44
1.60
-0.30
-2.02
-3.38
-4.43
-5.30
-6.21
-7.33
-8.73
-10.33
-11.99
-13.53
-14.86
-15.98
-16.93
-17.83
-18.77
-19.83
-21.10
-22.65
-24.48
-26.40
-28.10
-29.12
-29.04
-27.66
-25.07
-21.64
-17.82
-14.05
-10.54
-7.40
-4.59
-2.07
0.14
2.05
3.72
5.20
6.56
7.87
9.07
10.10
10.88
11.36
11.58
11.63
11.60
11.57
11.59
11.61
11.54
11.27
10.74
9.94
8.92
7.78
6.55
5.28
3.94
2.51
0.99
-0.62
-2.31
-4.16
-6.25
-8.65
-11.35
-14.22
-16.98
-19.28
-20.80
-21.32
-20.86
-19.60
-17.81
-15.80
-13.75
-11.75
-9.78
-7.83
-5.92
-4.06
-2.28
-0.55
1.15
2.82
4.36
5.67
6.69
7.48
8.21
9.13
10.44
12.12
13.97
15.68
16.93
17.56
17.53
17.00
16.18
15.31
14.55
13.94
13.37
12.61
11.44
9.77
7.75
5.61
3.67
2.04
0.62
-0.84
-2.63
-4.83
-7.39
-10.03
-12.49
-14.61
-16.30
-17.55
-18.28
-18.38
-17.69
-16.16
-13.90
-11.22
-8.48
-6.02
-3.95
-2.20
-0.57
1.13
2.94
4.71
6.25
7.44
8.38
9.30
10.41
11.76
13.17
14.34
14.97
14.96
14.42
13.57
12.60
11.60
10.47
9.07
7.31
5.26
3.17
1.37
0.16
-0.36
-0.27
0.15
0.51
0.51
-0.00
-1.04
-2.49
-4.21
-6.03
-7.78
-9.28
-10.38
-10.94
-10.90
-10.30
-9.24
-7.83
-6.24
-4.64
-3.21
-2.10
-1.35
-0.87
-0.44
0.20
1.23
2.70
4.49
6.23
7.37
7.31
5.50
1.75
-3.68
-10.01
-16.18
-21.26
-24.65
-26.39
-26.93
-26.94
-26.98
-27.24
-27.54
-27.45
-26.50
-24.37
-21.06
-16.86
-12.32
-8.01
-4.34
-1.49
0.63
2.19
3.43
4.52
5.57
6.65
7.83
9.15
10.53
11.81
12.66
12.84
12.27
11.23
10.27
10.08
11.21
13.79
17.49
21.65
25.48
28.40
30.10
30.54
29.83
28.12
25.62
22.52
19.13
15.75
12.65
9.94
7.60
5.49
3.51
1.64
-0.04
-1.42
-2.47
-3.25
-4.00
-5.01
-6.48
-8.47
-10.74
-12.93
-14.64
-15.62
-15.90
-15.73
-15.46
-15.30
-15.23
-14.96
-14.17
-12.66
-10.51
-8.10
-5.89
-4.22
-3.18
-2.65
-2.42
-2.37
-2.48
-2.83
-3.37
-3.95
-4.34
-4.38
-4.11
-3.75
-3.53
-3.60
-3.90
-4.28
-4.59
-4.83
-5.13
-5.65
-6.48
-7.56
-8.73
-9.79
-10.63
-11.27
-11.82
-12.39
-13.10
-13.93
-14.76
-15.38
-15.58
-15.16
-14.04
-12.27
-10.02
-7.52
-4.99
-2.61
-0.47
1.40
3.07
4.57
5.94
7.19
8.34
9.40
10.39
11.24
11.80
11.87
11.29
10.06
8.39
6.70
5.39
4.66
4.49
4.53
4.46
4.03
3.28
2.41
1.65
1.11
0.71
0.25
-0.52
-1.75
-3.47
-5.58
-7.95
-10.40
-12.70
-14.62
-15.95
-16.47
-16.09
-14.81
-12.76
-10.20
-7.48
-4.92
-2.77
-1.17
-0.08
0.64
1.24
1.90
2.78
3.88
5.09
6.28
7.29
8.06
8.55
8.79
8.79
8.54
8.05
7.35
6.56
5.76
4.95
4.04
2.85
1.27
-0.64
-2.64
-4.36
-5.52
-6.09
-6.23
-6.30
-6.58
-7.22
-8.21
-9.40
-10.59
-11.58
-12.19
-12.23
-11.60
-10.21
-8.15
-5.60
-2.79
0.02
2.59
4.80
6.63
8.16
9.55
10.88
12.16
13.29
14.13
14.57
14.64
14.45
14.15
13.83
13.58
13.37
13.24
13.17
13.10
12.87
12.32
11.28
9.81
8.12
6.55
5.34
4.56
4.07
3.57
2.81
1.68
0.24
-1.38
-3.08
-4.84
-6.72
-8.72
-10.78
-12.72
-14.36
-15.60
-16.42
-16.85
-16.88
-16.39
-15.22
-13.31
-10.75
-7.83
-4.92
-2.33
-0.19
1.54
2.98
4.19
5.17
5.88
6.34
6.65
6.97
7.48
8.21
9.07
9.89
10.45
10.68
10.60
10.35
10.09
9.93
9.91
9.97
10.01
9.87
9.41
8.49
7.11
5.38
3.52
1.77
0.30
-0.85
-1.80
-2.70
-3.72
-4.93
-6.34
-7.92
-9.59
-11.26
-12.75
-13.85
-14.28
-13.87
-12.58
-10.59
-8.24
-5.94
-3.99
-2.50
-1.39
-0.48
0.41
1.36
2.31
3.13
3.69
3.97
4.02
3.97
3.98
4.17
4.56
5.13
5.78
6.42
6.93
7.29
7.45
7.40
7.11
6.55
5.68
4.49
3.05
1.48
-0.08
-1.53
-2.82
-4.03
-5.31
-6.84
-8.75
-11.05
-13.63
-16.23
-18.54
-20.24
-21.12
-21.08
-20.21
-18.70
-16.84
-14.92
-13.18
-11.75
-10.63
-9.77
-9.09
-8.52
-8.08
-7.82
-7.79
-7.95
-8.15
-8.17
-7.83
-7.06
-5.95
-4.68
-3.40
-2.13
-0.79
0.81
2.78
5.16
7.86
10.73
13.61
16.38
18.94
21.25
23.25
24.87
25.98
26.43
26.08
24.86
22.91
20.52
18.04
15.80
13.88
12.18
10.46
8.50
6.23
3.76
1.35
-0.69
-2.09
-2.71
-2.55
-1.76
-0.67
0.36
0.99
1.10
0.78
0.23
-0.30
-0.64
-0.77
-0.78
-0.75
-0.74
-0.72
-0.65
-0.53
-0.44
-0.43
-0.56
-0.78
-0.99
-1.04
-0.89
-0.58
-0.25
-0.10
-0.23
-0.59
-0.98
-1.13
-0.82
-0.00
1.12
2.22
2.95
3.10
2.61
1.63
0.39
-0.94
-2.26
-3.55
-4.81
-5.98
-6.92
-7.43
-7.38
-6.78
-5.81
-4.77
-3.97
-3.56
-3.52
-3.61
-3.55
-3.08
-2.14
-0.89
0.40
1.46
2.18
2.64
3.10
3.82
4.93
6.34
7.77
8.93
9.58
9.72
9.52
9.22
9.01
8.94
8.97
9.01
8.99
8.89
8.72
8.50
8.21
7.87
7.49
7.08
6.64
6.11
5.31
4.02
2.06
-0.59
-3.77
-7.11
-10.12
-12.39
-13.68
-13.96
-13.45
-12.39
-11.01
-9.35
-7.42
-5.18
-2.75
-0.33
1.83
3.53
4.69
5.34
5.60
5.61
5.51
5.42
5.43
5.53
5.63
5.59
5.27
4.70
4.01
3.44
3.14
3.07
3.05
2.77
2.02
0.80
-0.70
-2.19
-3.42
-4.30
-4.93
-5.49
-6.19
-7.16
-8.41
-9.88
-11.44
-12.92
-14.16
-15.01
-15.26
-14.78
-13.52
-11.59
-9.27
-6.93
-4.90
-3.39
-2.35
-1.58
-0.81
0.17
1.42
2.88
4.38
5.72
6.77
7.44
7.74
7.78
7.76
7.89
8.33
9.09
10.04
10.96
11.65
11.98
11.93
11.55
10.92
10.19
9.47
8.85
8.39
8.02
7.64
7.12
6.39
5.50
4.58
3.76
3.10
2.52
1.87
0.99
-0.17
-1.52
-2.79
-3.63
-3.65
-2.67
-0.68
2.04
5.06
7.97
10.46
12.41
13.90
15.05
15.93
16.52
16.69
16.40
15.70
14.83
14.07
13.66
13.64
13.87
14.01
13.81
13.15
12.18
11.20
10.54
10.42
10.85
11.66
12.59
13.45
14.19
14.95
15.89
17.20
18.91
20.89
22.90
24.69
26.06
26.90
27.31
27.49
27.68
28.15
29.01
30.25
31.62
32.69
32.98
32.21
30.53
28.68
27.83
29.19
33.49
40.51
49.00
56.91
62.09
63.01
59.21
51.45
41.27
30.51
20.60
12.32
5.75
0.44
-4.24
-8.80
-13.54
-18.52
-23.69
-28.83
-33.59
-37.37
-39.52
-39.49
-37.14
-33.02
-28.23
-24.13
-21.75
-21.48
-22.96
-25.34
-27.81
-29.83
-31.27
-32.15
-32.54
-32.37
-31.65
-30.56
-29.58
-29.26
-30.02
-31.91
-34.57
-37.40
-39.78
-41.32
-41.94
-41.84
-41.50
-41.59
-42.78
-45.59
-50.06
-55.69
-61.46
-66.17
-68.87
-69.16
-67.27
-63.82
-59.56
-55.00
-50.46
-46.11
-42.14
-38.82
-36.38
-34.90
-34.23
-33.99
-33.75
-33.14
-32.00
-30.30
-28.13
-25.57
-22.70
-19.59
-16.33
-13.01
-9.73
-6.57
-3.58
-0.79
1.83
4.33
6.77
9.20
11.60
13.89
15.93
17.59
18.78
19.48
19.76
19.73
19.47
19.04
18.50
17.83
17.06
16.14
15.08
13.86
12.50
11.06
9.57
8.04
6.44
4.74
2.94
1.12
-0.59
-2.07
-3.23
-4.03
-4.42
-4.39
-3.93
-3.04
-1.84
-0.46
0.95
2.27
3.44
4.47
5.33
5.99
6.43
6.65
6.67
6.55
6.32
6.00
5.64
5.29
5.02
4.89
4.88
4.95
5.00
4.96
4.77
4.42
3.91
3.27
2.51
1.65
0.70
-0.28
-1.28
-2.29
-3.33
-4.44
-5.67
-7.02
-8.44
-9.79
-10.84
-11.38
-11.23
-10.39
-9.01
-7.32
-5.54
-3.78
-2.08
-0.39
1.26
2.81
4.13
5.11
5.73
6.07
6.22
6.28
6.26
6.18
6.07
5.97
5.93
6.00
6.16
6.34
6.46
6.39
6.04
5.34
4.31
3.04
1.71
0.54
-0.33
-0.85
-1.15
-1.42
-1.82
-2.45
-3.26
-4.13
-4.97
-5.66
-6.12
-6.26
-5.99
-5.24
-4.03
-2.49
-0.82
0.76
2.09
3.09
3.80
4.28
4.61
4.88
5.16
5.54
6.14
7.08
8.36
9.88
11.40
12.62
13.34
13.45
12.97
12.03
10.76
9.32
7.86
6.53
5.42
4.59
4.01
3.57
3.14
2.60
1.87
0.84
-0.56
-2.35
-4.40
-6.45
-8.16
-9.16
-9.29
-8.53
-7.02
-4.99
-2.63
-0.13
2.31
4.56
6.48
8.02
9.18
10.01
10.53
10.72
10.57
10.16
9.69
9.43
9.58
10.25
11.29
12.46
13.49
14.18
14.45
14.27
13.65
12.60
11.17
9.50
7.77
6.20
4.89
3.84
2.91
1.92
0.80
-0.44
-1.69
-2.83
-3.83
-4.79
-5.84
-7.15
-8.71
-10.37
-11.87
-12.91
-13.31
-12.98
-11.95
-10.34
-8.29
-6.01
-3.73
-1.69
-0.07
1.11
1.94
2.67
3.52
4.63
6.00
7.49
8.86
9.92
10.51
10.62
10.34
9.85
9.38
9.12
9.13
9.31
9.50
9.47
9.07
8.20
6.85
5.12
3.20
1.40
0.06
-0.60
-0.50
0.17
1.09
1.91
2.40
2.45
2.06
1.26
0.10
-1.30
-2.72
-3.88
-4.47
-4.34
-3.56
-2.38
-1.13
-0.05
0.75
1.37
2.00
2.83
3.95
5.28
6.57
7.49
7.73
7.17
5.88
4.17
2.44
1.02
0.11
-0.33
-0.50
-0.63
-0.92
-1.40
-1.97
-2.46
-2.73
-2.71
-2.46
-2.09
-1.68
-1.28
-0.85
-0.37
0.14
0.57
0.83
0.82
0.53
-0.03
-0.78
-1.72
-2.82
-4.05
-5.34
-6.57
-7.57
-8.23
-8.46
-8.25
-7.67
-6.82
-5.86
-4.92
-4.11
-3.44
-2.88
-2.37
-1.89
-1.46
-1.10
-0.79
-0.49
-0.09
0.49
1.24
2.07
2.82
3.34
3.59
3.64
3.65
3.79
4.10
4.53
4.96
5.24
5.34
5.33
5.32
5.40
5.56
5.75
5.87
5.92
5.95
6.01
6.08
6.09
5.88
5.39
4.64
3.75
2.88
2.12
1.51
1.06
0.85
1.01
1.69
2.94
4.68
6.71
8.81
10.80
12.63
14.25
15.63
16.72
17.50
18.03
18.43
18.81
19.21
19.50
19.46
18.95
17.99
16.82
15.74
14.97
14.48
13.99
13.09
11.46
9.02
5.97
2.61
-0.77
-4.06
-7.26
-10.39
-13.27
-15.58
-16.89
-16.97
-15.89
-14.12
-12.35
-11.22
-11.16
-12.20
-14.08
-16.41
-18.79
-21.01
-22.99
-24.76
-26.32
-27.60
-28.41
-28.53
-27.81
-26.27
-24.06
-21.47
-18.79
-16.23
-13.92
-11.92
-10.26
-8.94
-7.98
-7.36
-7.07
-7.06
-7.28
-7.68
-8.19
-8.73
-9.20
-9.53
-9.70
-9.74
-9.70
-9.66
-9.71
-9.94
-10.45
-11.24
-12.19
-13.08
-13.60
-13.54
-12.89
-11.88
-10.91
-10.36
-10.42
-11.07
-12.11
-13.30
-14.42
-15.39
-16.19
-16.86
-17.43
-17.89
-18.18
-18.20
-17.80
-16.92
-15.49
-13.53
-11.11
-8.36
-5.47
-2.66
-0.14
1.95
3.56
4.69
5.43
5.86
6.10
6.31
6.62
7.16
7.96
8.96
10.05
11.09
12.00
12.75
13.37
13.85
14.13
14.11
13.68
12.78
11.45
9.77
7.92
6.10
4.53
3.36
2.65
2.32
2.21
2.10
1.85
1.35
0.56
-0.50
-1.76
-3.11
-4.35
-5.27
-5.67
-5.48
-4.77
-3.77
-2.69
-1.72
-0.83
0.08
1.15
2.41
3.73
4.87
5.56
5.62
5.07
4.11
3.08
2.29
1.96
2.11
2.57
3.06
3.36
3.37
3.16
2.92
2.86
3.07
3.52
4.04
4.48
4.68
4.58
4.16
3.46
2.49
1.28
-0.12
-1.61
-3.03
-4.22
-5.05
-5.51
-5.74
-6.00
-6.62
-7.79
-9.51
-11.55
-13.57
-15.21
-16.29
-16.81
-16.94
-16.84
-16.61
-16.26
-15.71
-14.89
-13.80
-12.51
-11.13
-9.82
-8.81
-8.26
-8.28
-8.79
-9.46
-9.77
-9.17
-7.29
-4.16
-0.16
4.09
7.95
11.04
13.19
14.47
15.07
15.19
15.02
14.68
14.20
13.52
12.52
11.14
9.52
8.06
7.20
7.25
8.12
9.31
10.10
9.86
8.43
6.04
3.25
0.61
-1.57
-3.23
-4.49
-5.44
-6.05
-6.23
-5.85
-4.93
-3.61
-2.15
-0.84
0.11
0.58
0.59
0.28
-0.19
-0.64
-0.93
-1.01
-0.88
-0.61
-0.28
0.00
0.19
0.26
0.21
0.06
-0.17
-0.43
-0.67
-0.83
-0.85
-0.76
-0.69
-0.82
-1.29
-2.16
-3.32
-4.54
-5.53
-6.09
-6.14
-5.79
-5.24
-4.75
-4.52
-4.64
-5.07
-5.65
-6.13
-6.28
-5.89
-4.91
-3.37
-1.44
0.65
2.66
4.44
5.91
7.09
8.00
8.68
9.13
9.30
9.20
8.84
8.31
7.71
7.11
6.60
6.20
5.99
6.00
6.23
6.63
7.06
7.36
7.36
6.93
6.08
4.90
3.55
2.22
1.09
0.25
-0.30
-0.69
-1.11
-1.79
-2.92
-4.58
-6.71
-9.07
-11.30
-13.00
-13.90
-13.86
-12.95
-11.40
-9.45
-7.33
-5.23
-3.29
-1.60
-0.17
1.11
2.35
3.73
5.30
6.98
8.54
9.72
10.34
10.42
10.11
9.65
9.25
9.01
8.95
9.06
9.24
9.41
9.44
9.19
8.52
7.43
6.03
4.52
3.10
1.86
0.72
-0.49
-1.97
-3.85
-6.07
-8.43
-10.68
-12.50
-13.67
-14.05
-13.63
-12.49
-10.79
-8.78
-6.73
-4.88
-3.37
-2.21
-1.30
-0.49
0.42
1.53
2.82
4.22
5.64
6.95
8.09
8.97
9.55
9.82
9.85
9.76
9.72
9.81
10.01
10.18
10.15
9.76
9.02
8.04
6.97
5.95
5.04
4.22
3.41
2.54
1.59
0.46
-0.94
-2.67
-4.73
-6.98
-9.11
-10.77
-11.61
-11.52
-10.56
-9.00
-7.13
-5.20
-3.30
-1.42
0.47
2.37
4.22
5.88
7.22
8.16
8.72
8.96
9.03
9.02
9.00
8.92
8.74
8.42
7.98
7.47
6.96
6.47
5.93
5.28
4.50
3.65
2.87
2.31
1.98
1.76
1.44
0.79
-0.26
-1.62
-3.02
-4.17
-4.94
-5.37
-5.72
-6.27
-7.12
-8.13
-8.97
-9.23
-8.64
-7.21
-5.10
-2.64
-0.10
2.37
4.70
6.84
8.72
10.18
11.12
11.54
11.58
11.49
11.48
11.68
12.04
12.38
12.50
12.23
11.59
10.67
9.69
8.87
8.29
7.95
7.75
7.52
7.12
6.50
5.69
4.81
3.99
3.30
2.75
2.26
1.76
1.16
0.40
-0.57
-1.79
-3.28
-5.05
-6.98
-8.88
-10.45
-11.40
-11.52
-10.70
-9.09
-6.92
-4.53
-2.20
-0.08
1.81
3.51
5.04
6.34
7.31
7.86
8.00
7.90
7.78
7.80
7.98
8.15
8.14
7.81
7.23
6.58
6.06
5.75
5.57
5.35
4.95
4.34
3.65
3.07
2.79
2.81
3.00
3.06
2.74
1.87
0.49
-1.18
-2.83
-4.18
-5.08
-5.55
-5.77
-5.94
-6.26
-6.82
-7.59
-8.49
-9.39
-10.12
-10.49
-10.30
-9.43
-7.83
-5.60
-2.96
-0.23
2.25
4.23
5.59
6.40
6.83
7.12
7.46
7.89
8.36
8.74
8.94
8.97
8.94
8.98
9.15
9.40
9.55
9.43
8.92
8.07
7.01
5.99
5.20
4.74
4.61
4.66
4.74
4.65
4.28
3.56
2.50
1.17
-0.32
-1.83
-3.29
-4.68
-6.03
-7.44
-8.93
-10.49
-12.02
-13.35
-14.24
-14.53
-14.11
-12.96
-11.20
-9.01
-6.61
-4.25
-2.13
-0.38
0.97
1.95
2.60
2.99
3.17
3.22
3.27
3.43
3.79
4.36
5.03
5.65
6.10
6.30
6.29
6.16
6.02
5.92
5.89
5.93
6.00
6.03
5.91
5.52
4.83
3.90
2.88
1.97
1.26
0.71
0.15
-0.64
-1.80
-3.33
-5.08
-6.87
-8.58
-10.17
-11.67
-13.08
-14.29
-15.04
-15.07
-14.20
-12.45
-10.02
-7.31
-4.67
-2.40
-0.63
0.62
1.44
1.91
2.14
2.22
2.26
2.40
2.80
3.54
4.64
5.95
7.30
8.41
9.08
9.22
8.90
8.33
7.76
7.35
7.15
7.07
6.89
6.44
5.67
4.68
3.64
2.68
1.83
1.00
0.09
-0.98
-2.17
-3.36
-4.48
-5.54
-6.65
-8.01
-9.69
-11.60
-13.42
-14.72
-15.14
-14.56
-13.13
-11.18
-9.13
-7.26
-5.67
-4.30
-3.09
-2.00
-1.05
-0.26
0.39
1.02
1.74
2.60
3.57
4.51
5.32
5.91
6.28
6.51
6.72
6.99
7.31
7.62
7.75
7.58
7.01
6.10
5.01
3.92
2.98
2.21
1.51
0.73
-0.26
-1.51
-2.93
-4.33
-5.55
-6.46
-7.08
-7.48
-7.87
-8.42
-9.32
-10.63
-12.25
-13.91
-15.23
-15.82
-15.39
-13.86
-11.39
-8.33
-5.10
-2.06
0.57
2.71
4.38
5.64
6.55
7.15
7.51
7.71
7.85
8.04
8.38
8.91
9.62
10.41
11.15
11.71
12.05
12.19
12.22
12.20
12.11
11.83
11.20
10.16
8.81
7.36
6.06
5.04
4.25
3.46
2.48
1.20
-0.31
-1.85
-3.22
-4.31
-5.13
-5.78
-6.38
-6.98
-7.52
-7.91
-8.01
-7.67
-6.82
-5.46
-3.67
-1.61
0.62
2.87
5.06
7.05
8.71
9.85
10.40
10.39
9.99
9.48
9.12
9.09
9.46
10.19
11.10
11.99
12.66
12.98
12.93
12.60
12.07
11.47
10.82
10.09
9.22
8.15
6.85
5.36
3.73
2.05
0.44
-0.99
-2.11
-2.91
-3.51
-4.10
-4.96
-6.25
-8.00
-10.07
-12.15
-13.86
-14.85
-14.85
-13.79
-11.76
-9.03
-5.94
-2.86
-0.11
2.11
3.74
4.74
5.15
4.95
4.15
2.81
1.14
-0.57
-1.97
-2.80
-3.02
-2.76
-2.35
-2.08
-2.12
-2.44
-2.88
-3.25
-3.49
-3.68
-3.97
-4.51
-5.31
-6.22
-7.03
-7.56
-7.73
-7.59
-7.31
-7.08
-7.09
-7.52
-8.45
-9.84
-11.48
-13.00
-13.94
-13.93
-12.79
-10.63
-7.80
-4.75
-1.90
0.49
2.37
3.83
5.06
6.19
7.28
8.31
9.26
10.12
10.93
11.70
12.36
12.80
12.84
12.44
11.67
10.77
9.95
9.34
8.88
8.35
7.52
6.27
4.64
2.77
0.86
-0.98
-2.70
-4.33
-5.91
-7.48
-9.06
-10.71
-12.53
-14.54
-16.66
-18.70
-20.31
-21.25
-21.39
-20.81
-19.66
-18.19
-16.54
-14.77
-12.85
-10.73
-8.43
-6.03
-3.68
-1.52
0.29
1.68
2.63
3.23
3.63
4.06
4.69
5.60
6.75
8.00
9.17
10.14
10.78
10.98
10.51
9.17
6.79
3.40
-0.72
-5.12
-9.32
-13.01
-16.13
-18.75
-21.08
-23.23
-25.18
-26.83
-28.02
-28.55
-28.23
-26.94
-24.73
-21.79
-18.47
-15.09
-11.88
-8.89
-6.07
-3.39
-0.96
1.04
2.43
3.18
3.39
3.31
3.14
3.00
2.95
3.02
3.27
3.78
4.57
5.51
6.38
6.95
7.07
6.79
6.23
5.58
4.95
4.36
3.76
3.10
2.33
1.37
0.17
-1.34
-3.23
-5.43
-7.77
-9.98
-11.75
-12.82
-13.10
-12.64
-11.62
-10.26
-8.72
-7.09
-5.33
-3.38
-1.24
1.03
3.25
5.25
6.85
8.00
8.74
9.23
9.65
10.19
10.90
11.73
12.56
13.23
13.64
13.75
13.56
13.11
12.42
11.52
10.42
9.23
7.99
6.77
5.57
4.33
3.00
1.56
0.01
-1.63
-3.36
-5.30
-7.52
-10.10
-12.93
-15.81
-18.39
-20.33
-21.36
-21.32
-20.22
-18.17
-15.33
-11.93
-8.25
-4.59
-1.23
1.61
3.91
5.78
7.48
9.20
11.01
12.87
14.67
16.25
17.54
18.46
18.93
18.92
18.44
17.65
16.85
16.33
16.30
16.69
17.24
17.56
17.39
16.69
15.59
14.32
13.00
11.64
10.17
8.52
6.71
4.82
2.89
0.93
-1.22
-3.69
-6.58
-9.81
-13.15
-16.20
-18.57
-19.95
-20.22
-19.42
-17.75
-15.47
-12.88
-10.22
-7.71
-5.51
-3.71
-2.27
-1.11
-0.07
0.96
2.02
3.06
4.04
4.92
5.75
6.62
7.60
8.73
9.90
10.91
11.54
11.67
11.28
10.46
9.39
8.19
6.92
5.53
3.98
2.24
0.37
-1.50
-3.31
-5.06
-6.86
-8.87
-11.16
-13.71
-16.39
-18.97
-21.18
-22.78
-23.51
-23.26
-22.04
-20.02
-17.49
-14.76
-12.04
-9.44
-6.93
-4.43
-1.98
0.39
2.59
4.62
6.57
8.63
10.90
13.31
15.67
17.66
18.99
19.61
19.61
19.22
18.67
18.08
17.44
16.62
15.49
13.98
12.11
9.94
7.60
5.21
2.85
0.57
-1.61
-3.72
-5.82
-7.98
-10.31
-12.83
-15.45
-17.89
-19.75
-20.58
-20.12
-18.36
-15.58
-12.23
-8.74
-5.43
-2.37
0.44
3.07
5.58
7.97
10.24
12.41
14.51
16.48
18.22
19.62
20.56
20.99
20.95
20.51
19.80
18.92
18.02
17.23
16.66
16.30
16.05
15.64
14.81
13.40
11.48
9.33
7.34
5.83
4.90
4.38
3.91
3.14
1.80
-0.16
-2.64
-5.38
-8.10
-10.50
-12.31
-13.32
-13.46
-12.87
-11.81
-10.60
-9.43
-8.28
-6.94
-5.16
-2.84
-0.08
2.83
5.59
7.97
9.96
11.65
13.09
14.36
15.40
16.25
16.96
17.61
18.25
18.88
19.44
19.83
19.96
19.80
19.31
18.50
17.40
16.08
14.69
13.38
12.20
11.12
10.00
8.68
7.04
5.11
3.02
0.94
-0.97
-2.66
-4.20
-5.74
-7.46
-9.52
-11.99
-14.74
-17.52
-19.94
-21.59
-22.15
-21.50
-19.73
-17.13
-14.06
-10.85
-7.69
-4.64
-1.70
1.13
3.77
6.05
7.82
9.03
9.77
10.25
10.72
11.33
12.10
12.89
13.59
14.13
14.54
14.87
15.13
15.24
15.07
14.55
13.68
12.56
11.33
10.08
8.83
7.49
6.02
4.42
2.78
1.24
-0.08
-1.14
-2.03
-2.92
-3.93
-5.15
-6.50
-7.83
-9.00
-9.93
-10.73
-11.61
-12.84
-14.60
-16.92
-19.67
-22.52
-25.09
-26.95
-27.80
-27.51
-26.20
-24.16
-21.77
-19.40
-17.25
-15.40
-13.79
-12.35
-10.99
-9.70
-8.45
-7.19
-5.82
-4.20
-2.28
-0.08
2.23
4.40
6.19
7.50
8.38
9.01
9.60
10.29
11.11
11.97
12.70
13.14
13.20
12.93
12.44
11.89
11.36
10.89
10.39
9.79
9.00
7.98
6.79
5.51
4.25
3.08
2.02
1.06
0.11
-0.87
-1.99
-3.27
-4.66
-5.97
-6.95
-7.39
-7.09
-6.02
-4.24
-1.91
0.75
3.52
6.16
8.48
10.34
11.72
12.71
13.43
13.99
14.50
14.99
15.54
16.22
17.08
18.10
19.10
19.88
20.28
20.25
19.95
19.63
19.48
19.59
19.92
20.37
20.85
21.33
21.70
21.75
21.18
19.72
17.26
14.03
10.46
7.08
4.30
2.21
0.68
-0.63
-2.07
-3.90
-6.21
-8.94
-11.75
-14.06
-15.21
-14.61
-12.06
-7.87
-2.84
2.07
6.09
8.95
10.84
12.19
13.34
14.34
15.04
15.22
14.87
14.17
13.37
12.60
11.79
10.73
9.26
7.43
5.55
3.99
2.96
2.40
1.97
1.24
-0.10
-2.08
-4.46
-6.87
-8.98
-10.62
-11.84
-12.82
-13.76
-14.78
-15.91
-17.06
-18.20
-19.28
-20.31
-21.23
-21.86
-21.94
-21.24
-19.66
-17.37
-14.71
-12.10
-9.82
-7.97
-6.50
-5.31
-4.33
-3.60
-3.19
-3.07
-3.15
-3.22
-3.07
-2.62
-1.90
-1.04
-0.21
0.48
0.95
1.16
1.08
0.70
-0.02
-1.06
-2.38
-3.92
-5.65
-7.53
-9.53
-11.56
-13.49
-15.14
-16.38
-17.17
-17.60
-17.85
-18.09
-18.38
-18.64
-18.66
-18.15
-16.81
-14.48
-11.21
-7.36
-3.57
-0.57
1.07
1.25
0.44
-0.42
-0.28
1.62
5.46
10.78
16.69
22.23
26.63
29.40
30.45
29.90
28.09
25.46
22.49
19.52
16.66
13.88
10.96
7.74
4.20
0.54
-2.86
-5.46
-6.75
-6.36
-4.13
-0.21
4.95
10.72
16.46
21.71
26.18
29.74
32.31
33.72
33.70
31.92
28.23
22.80
16.16
9.17
2.79
-2.23
-5.48
-7.03
-7.30
-6.91
-6.42
-6.22
-6.43
-7.00
-7.75
-8.41
-8.74
-8.51
-7.66
-6.32
-4.82
-3.57
-2.89
-2.94
-3.60
-4.62
-5.75
-6.90
-8.13
-9.64
-11.63
-14.22
-17.34
-20.81
-24.30
-27.39
-29.62
-30.55
-29.84
-27.37
-23.28
-18.01
-12.18
-6.47
-1.46
2.46
5.15
6.73
7.47
7.76
8.05
8.69
9.93
11.87
14.43
17.48
20.83
24.34
27.89
31.33
34.37
36.64
37.71
37.27
35.25
31.87
27.57
22.94
18.47
14.58
11.55
9.53
8.48
8.08
7.73
6.60
3.95
-0.59
-6.92
-14.40
-22.20
-29.59
-36.19
-42.02
-47.27
-52.16
-56.69
-60.66
-63.73
-65.62
-66.22
-65.61
-64.07
-61.93
-59.52
-57.08
-54.72
-52.44
-50.18
-47.76
-45.04
-41.89
-38.28
-34.32
-30.26
-26.42
-23.06
-20.29
-18.03
-16.03
-14.12
-12.18
-10.28
-8.55
-7.16
-6.15
-5.46
-4.96
-4.49
-3.93
-3.17
-2.11
-0.69
1.15
3.42
6.06
8.91
11.76
14.35
16.42
17.84
18.59
18.77
18.55
18.08
17.47
16.76
15.95
15.01
13.95
12.80
11.68
10.68
9.94
9.50
9.31
9.17
8.86
8.17
7.04
5.55
3.85
2.15
0.58
-0.83
-2.09
-3.28
-4.53
-5.98
-7.77
-9.97
-12.49
-15.03
-17.16
-18.36
-18.31
-16.91
-14.40
-11.20
-7.78
-4.44
-1.34
1.54
4.20
6.55
8.44
9.72
10.35
10.49
10.40
10.38
10.60
11.11
11.79
12.48
13.01
13.30
13.32
13.08
12.61
11.91
10.99
9.86
8.57
7.18
5.79
4.47
3.27
2.20
1.26
0.42
-0.38
-1.23
-2.19
-3.32
-4.66
-6.19
-7.90
-9.75
-11.67
-13.59
-15.37
-16.83
-17.78
-18.02
-17.44
-15.99
-13.76
-10.89
-7.60
-4.09
-0.62
2.59
5.39
7.66
9.43
10.75
11.76
12.56
13.24
13.89
14.52
15.20
15.95
16.73
17.46
18.02
18.28
18.23
17.93
17.50
17.08
16.70
16.26
15.58
14.53
13.06
11.30
9.39
7.50
5.66
3.82
1.87
-0.21
-2.39
-4.59
-6.71
-8.76
-10.81
-12.97
-15.30
-17.75
-20.20
-22.43
-24.20
-25.30
-25.62
-25.07
-23.66
-21.45
-18.53
-15.11
-11.40
-7.61
-3.89
-0.38
2.85
5.65
7.85
9.28
9.90
9.85
9.46
9.16
9.26
9.88
10.86
11.89
12.74
13.27
13.58
13.81
14.11
14.48
14.87
15.17
15.29
15.19
14.82
14.20
13.33
12.27
11.12
9.99
8.97
8.07
7.26
6.43
5.51
4.43
3.13
1.57
-0.29
-2.38
-4.54
-6.50
-7.95
-8.63
-8.43
-7.47
-6.02
-4.43
-2.97
-1.71
-0.56
0.66
2.06
3.62
5.18
6.58
7.69
8.55
9.29
10.00
10.68
11.24
11.54
11.52
11.19
10.65
10.02
9.33
8.56
7.64
6.53
5.25
3.89
2.59
1.47
0.63
0.08
-0.23
-0.38
-0.41
-0.43
-0.57
-1.01
-2.00
-3.65
-5.90
-8.40
-10.63
-12.10
-12.52
-11.89
-10.48
-8.63
-6.59
-4.50
-2.38
-0.27
1.74
3.49
4.87
5.83
6.41
6.76
7.04
7.37
7.84
8.44
9.10
9.72
10.20
10.48
10.55
10.38
9.92
9.08
7.76
5.97
3.88
1.76
-0.10
-1.55
-2.61
-3.43
-4.14
-4.83
-5.50
-6.15
-6.83
-7.72
-8.99
-10.75
-12.87
-14.99
-16.63
-17.32
-16.81
-15.11
-12.51
-9.44
-6.33
-3.52
-1.11
0.88
2.50
3.72
4.46
4.71
4.58
4.36
4.41
5.00
6.12
7.47
8.61
9.19
9.15
8.70
8.21
7.98
8.03
8.16
8.04
7.46
6.31
4.72
2.86
0.92
-1.00
-2.85
-4.67
-6.52
-8.46
-10.55
-12.75
-14.89
-16.61
-17.48
-17.08
-15.24
-12.03
-7.85
-3.23
1.31
5.36
8.67
11.14
12.77
13.63
13.87
13.75
13.52
13.41
13.51
13.70
13.75
13.41
12.50
11.04
9.13
6.97
4.73
2.55
0.50
-1.36
-3.01
-4.46
-5.77
-7.02
-8.30
-9.65
-11.07
-12.53
-14.01
-15.48
-16.85
-18.01
-18.78
-18.99
-18.54
-17.45
-15.88
-14.05
-12.12
-10.15
-8.06
-5.78
-3.27
-0.65
1.89
4.09
5.80
7.00
7.77
8.32
8.79
9.31
9.87
10.35
10.60
10.44
9.74
8.47
6.75
4.75
2.67
0.63
-1.30
-3.13
-4.87
-6.57
-8.28
-10.04
-11.99
-14.13
-16.41
-18.59
-20.31
-21.24
-21.16
-20.07
-18.16
-15.74
-13.14
-10.64
-8.34
-6.20
-4.12
-1.95
0.35
2.68
4.79
6.41
7.40
7.85
7.99
8.12
8.45
8.96
9.47
9.72
9.55
8.88
7.79
6.42
4.87
3.22
1.48
-0.31
-2.11
-3.86
-5.49
-7.02
-8.48
-9.99
-11.59
-13.24
-14.72
-15.71
-15.90
-15.15
-13.45
-11.01
-8.10
-5.04
-2.08
0.57
2.87
4.86
6.65
8.38
10.09
11.63
12.79
13.34
13.23
12.60
11.77
11.05
10.62
10.42
10.27
9.93
9.22
8.07
6.50
4.58
2.48
0.44
-1.35
-2.80
-4.06
-5.61
-8.10
-12.14
-17.94
-25.13
-32.75
-39.54
-44.31
-46.22
-45.06
-41.14
-35.15
-27.94
-20.30
-12.88
-6.10
-0.13
5.01
9.44
13.26
16.57
19.39
21.74
23.71
25.43
27.04
28.64
30.17
31.50
32.46
32.92
32.81
32.20
31.17
29.75
27.96
25.77
23.21
20.42
17.67
15.24
13.40
12.20
11.46
10.76
9.56
7.43
4.21
0.11
-4.29
-8.25
-11.14
-12.63
-12.81
-12.06
-10.88
-9.70
-8.71
-7.90
-7.15
-6.41
-5.72
-5.22
-5.00
-5.10
-5.41
-5.75
-6.00
-6.15
-6.32
-6.66
-7.32
-8.25
-9.27
-10.13
-10.61
-10.66
-10.36
-9.90
-9.47
-9.19
-9.12
-9.25
-9.45
-9.62
-9.60
-9.32
-8.82
-8.29
-8.01
-8.23
-9.05
-10.28
-11.63
-12.73
-13.36
-13.51
-13.26
-12.80
-12.23
-11.60
-10.84
-9.91
-8.73
-7.32
-5.73
-4.11
-2.65
-1.52
-0.82
-0.49
-0.34
-0.10
0.42
1.27
2.30
3.32
4.12
4.55
4.53
4.02
2.97
1.40
-0.64
-2.97
-5.30
-7.33
-8.85
-9.87
-10.61
-11.43
-12.66
-14.38
-16.44
-18.42
-19.85
-20.34
-19.71
-18.04
-15.54
-12.50
-9.23
-5.99
-3.00
-0.44
1.67
3.42
5.00
6.62
8.40
10.27
12.06
13.56
14.63
15.30
15.74
16.14
16.62
17.17
17.68
17.97
17.96
17.64
17.07
16.29
15.31
14.09
12.59
10.81
8.81
6.73
4.69
2.77
0.95
-0.90
-2.94
-5.25
-7.79
-10.32
-12.45
-13.73
-13.82
-12.63
-10.36
-7.43
-4.34
-1.46
1.07
3.33
5.54
7.84
10.20
12.39
14.12
15.20
15.65
15.73
15.70
15.75
15.87
15.90
15.63
14.97
14.02
13.04
12.32
12.06
12.24
12.66
13.02
13.00
12.48
11.49
10.23
8.99
7.93
7.01
6.10
5.03
3.75
2.39
1.15
0.21
-0.46
-1.08
-1.94
-3.33
-5.38
-8.05
-11.13
-14.28
-17.08
-19.10
-19.91
-19.28
-17.24
-14.11
-10.36
-6.53
-3.01
0.07
2.76
5.24
7.65
10.01
12.21
14.04
15.36
16.14
16.49
16.60
16.64
16.70
16.76
16.72
16.46
15.94
15.18
14.30
13.39
12.55
11.83
11.22
10.67
10.09
9.43
8.69
7.91
7.16
6.47
5.82
5.17
4.42
3.52
2.47
1.32
0.17
-0.94
-2.01
-3.14
-4.42
-5.95
-7.71
-9.64
-11.58
-13.33
-14.74
-15.72
-16.22
-16.25
-15.73
-14.67
-13.03
-10.90
-8.37
-5.59
-2.72
0.09
2.69
4.93
6.64
7.76
8.33
8.49
8.48
8.52
8.75
9.16
9.67
10.14
10.45
10.52
10.32
9.94
9.47
9.07
8.83
8.80
8.88
8.92
8.72
8.17
7.31
6.24
5.14
4.11
3.17
2.24
1.20
-0.05
-1.49
-3.05
-4.61
-6.08
-7.47
-8.87
-10.40
-12.12
-13.97
-15.76
-17.26
-18.32
-18.86
-18.87
-18.38
-17.32
-15.64
-13.34
-10.52
-7.40
-4.24
-1.23
1.54
4.03
6.25
8.16
9.62
10.52
10.80
10.49
9.77
8.88
8.05
7.52
7.35
7.50
7.79
8.01
8.02
7.78
7.36
6.84
6.20
5.38
4.27
2.85
1.19
-0.50
-1.99
-3.11
-3.84
-4.32
-4.73
-5.33
-6.29
-7.64
-9.30
-11.04
-12.61
-13.79
-14.59
-15.14
-15.68
-16.41
-17.34
-18.28
-18.94
-19.01
-18.33
-16.91
-14.86
-12.40
-9.72
-6.97
-4.24
-1.64
0.71
2.70
4.20
5.17
5.64
5.76
5.75
5.87
6.30
7.10
8.13
9.10
9.70
9.70
9.10
8.12
7.06
6.22
5.73
5.55
5.55
5.55
5.43
5.14
4.67
3.99
3.10
2.05
0.96
0.03
-0.60
-0.91
-1.06
-1.33
-2.00
-3.29
-5.18
-7.56
-10.15
-12.66
-14.78
-16.25
-16.84
-16.45
-15.09
-12.93
-10.25
-7.41
-4.75
-2.51
-0.82
0.39
1.25
1.92
2.50
3.00
3.31
3.35
3.09
2.63
2.16
1.92
2.04
2.52
3.25
4.01
4.61
4.88
4.78
4.33
3.64
2.87
2.14
1.49
0.87
0.06
-1.12
-2.76
-4.75
-6.78
-8.45
-9.44
-9.68
-9.27
-8.48
-7.63
-7.02
-6.88
-7.34
-8.40
-9.87
-11.39
-12.43
-12.54
-11.43
-9.13
-6.04
-2.77
0.03
1.88
2.66
2.58
2.07
1.51
1.07
0.69
0.19
-0.59
-1.56
-2.41
-2.69
-2.03
-0.23
2.73
6.67
11.31
16.24
20.91
24.72
27.13
27.81
26.74
24.23
20.75
16.82
12.90
9.35
6.36
3.94
1.90
-0.08
-2.35
-5.13
-8.42
-11.99
-15.53
-18.79
-21.68
-24.24
-26.48
-28.28
-29.40
-29.59
-28.72
-26.99
-24.77
-22.51
-20.53
-18.95
-17.62
-16.38
-15.14
-13.95
-12.95
-12.23
-11.76
-11.34
-10.67
-9.51
-7.71
-5.25
-2.23
1.15
4.71
8.26
11.65
14.79
17.62
20.09
22.15
23.71
24.63
24.84
24.35
23.31
21.96
20.54
19.23
18.07
16.95
15.68
14.11
12.11
9.67
6.90
3.95
0.99
-1.82
-4.33
-6.35
-7.76
-8.45
-8.45
-7.88
-6.96
-5.93
-4.92
-3.96
-3.00
-1.97
-0.86
0.26
1.25
2.01
2.52
2.81
3.01
3.24
3.53
3.84
4.07
4.10
3.87
3.36
2.64
1.73
0.64
-0.71
-2.42
-4.54
-6.98
-9.51
-11.84
-13.74
-15.15
-16.20
-17.27
-18.72
-20.73
-23.18
-25.58
-27.33
-27.88
-26.99
-24.80
-21.74
-18.32
-14.94
-11.78
-8.82
-5.98
-3.22
-0.64
1.66
3.59
5.13
6.38
7.42
8.32
9.11
9.81
10.51
11.33
12.39
13.70
15.13
16.41
17.24
17.42
16.87
15.70
14.03
12.01
9.70
7.11
4.29
1.28
-1.83
-4.98
-8.17
-11.45
-14.89
-18.42
-21.83
-24.73
-26.71
-27.46
-26.87
-25.05
-22.32
-19.05
-15.55
-12.08
-8.71
-5.42
-2.14
1.28
4.93
8.86
12.94
16.94
20.52
23.37
25.30
26.31
26.57
26.31
25.72
24.86
23.68
22.06
19.90
17.16
13.95
10.49
7.06
3.93
1.32
-0.71
-2.22
-3.41
-4.56
-5.88
-7.48
-9.29
-11.09
-12.54
-13.33
-13.28
-12.37
-10.77
-8.76
-6.67
-4.74
-3.08
-1.66
-0.33
0.97
2.28
3.47
4.38
4.84
4.79
4.25
3.32
2.09
0.63
-0.98
-2.62
-4.14
-5.39
-6.30
-6.94
-7.54
-8.35
-9.58
-11.31
-13.44
-15.76
-17.96
-19.81
-21.13
-21.91
-22.28
-22.55
-23.05
-24.10
-25.74
-27.78
-29.71
-30.96
-31.02
-29.68
-27.00
-23.28
-18.83
-13.94
-8.80
-3.55
1.60
6.38
10.55
13.95
16.56
18.50
19.92
20.93
21.55
21.77
21.61
21.16
20.57
20.03
19.61
19.32
19.08
18.74
18.16
17.27
16.06
14.64
13.15
11.79
10.68
9.90
9.36
8.88
8.20
7.04
5.18
2.49
-0.96
-4.90
-8.82
-12.09
-14.09
-14.42
-13.09
-10.55
-7.51
-4.67
-2.45
-0.82
0.60
2.30
4.62
7.51
10.58
13.32
15.38
16.69
17.44
17.92
18.28
18.50
18.43
18.06
17.52
17.11
17.08
17.44
18.00
18.40
18.34
17.68
16.53
15.10
13.64
12.28
11.03
9.78
8.40
6.74
4.75
2.50
0.15
-2.12
-4.26
-6.34
-8.56
-11.09
-13.88
-16.62
-18.78
-19.88
-19.65
-18.19
-15.87
-13.14
-10.38
-7.71
-5.07
-2.39
0.34
3.00
5.39
7.32
8.74
9.71
10.41
11.00
11.60
12.18
12.73
13.13
13.35
13.35
13.17
12.89
12.54
12.15
11.69
11.14
10.43
9.61
8.76
8.02
7.47
7.08
6.72
6.18
5.29
4.03
2.50
0.94
-0.46
-1.64
-2.67
-3.76
-5.10
-6.74
-8.58
-10.33
-11.65
-12.31
-12.19
-11.35
-9.95
-8.15
-6.07
-3.78
-1.39
0.95
3.04
4.68
5.83
6.56
7.07
7.58
8.27
9.18
10.28
11.47
12.59
13.52
14.14
14.37
14.17
13.53
12.57
11.41
10.23
9.21
8.44
7.90
7.50
7.11
6.64
6.11
5.59
5.16
4.82
4.46
3.92
3.09
1.93
0.53
-1.00
-2.55
-4.08
-5.65
-7.31
-9.14
-11.15
-13.32
-15.56
-17.72
-19.53
-20.67
-20.78
-19.63
-17.21
-13.79
-9.82
-5.85
-2.27
0.67
2.94
4.58
5.70
6.37
6.72
6.91
7.13
7.53
8.16
8.99
9.88
10.71
11.38
11.82
12.01
11.95
11.72
11.45
11.32
11.44
11.75
12.05
12.09
11.72
10.94
9.95
8.94
8.02
7.12
6.11
4.85
3.30
1.56
-0.23
-1.94
-3.51
-4.98
-6.40
-7.84
-9.36
-10.99
-12.73
-14.58
-16.50
-18.38
-20.01
-21.11
-21.39
-20.65
-18.88
-16.27
-13.15
-9.91
-6.87
-4.24
-2.10
-0.46
0.70
1.40
1.71
1.74
1.66
1.64
1.80
2.15
2.59
2.96
3.14
3.09
2.91
2.74
2.73
3.00
3.67
4.88
6.78
9.46
12.90
16.96
21.36
25.90
30.44
35.04
39.87
45.01
50.40
55.77
60.74
64.89
67.98
69.91
70.83
70.98
70.62
69.93
68.87
67.11
64.16
59.49
52.80
44.12
33.90
22.76
11.28
-0.21
-11.63
-22.97
-34.07
-44.47
-53.48
-60.39
-64.80
-66.71
-66.53
-64.90
-62.45
-59.62
-56.60
-53.45
-50.21
-47.01
-44.08
-41.67
-39.94
-38.87
-38.29
-37.90
-37.43
-36.73
-35.70
-34.38
-32.79
-30.98
-28.99
-26.90
-24.79
-22.72
-20.73
-18.80
-16.92
-15.19
-13.79
-12.96
-12.88
-13.59
-14.88
-16.34
-17.47
-17.81
-17.12
-15.40
-12.89
-10.00
-7.10
-4.46
-2.14
-0.11
1.65
3.14
4.29
4.98
5.13
4.77
4.03
3.11
2.23
1.56
1.17
1.02
1.02
0.98
0.81
0.51
0.17
-0.05
0.00
0.36
0.96
1.63
2.19
2.47
2.42
2.03
1.40
0.62
-0.19
-0.97
-1.67
-2.33
-3.07
-3.95
-5.00
-6.09
-6.99
-7.36
-6.86
-5.32
-2.77
0.56
4.32
8.13
11.73
14.99
17.87
20.36
22.49
24.25
25.74
27.04
28.27
29.47
30.49
31.01
30.68
29.25
26.75
23.50
20.01
16.75
14.02
11.84
10.04
8.33
6.49
4.43
2.13
-0.33
-2.86
-5.35
-7.68
-9.68
-11.21
-12.18
-12.65
-12.94
-13.45
-14.59
-16.51
-19.06
-21.80
-24.19
-25.79
-26.39
-26.00
-24.77
-22.89
-20.55
-17.96
-15.34
-12.91
-10.84
-9.15
-7.83
-6.74
-5.78
-4.89
-4.00
-3.05
-1.98
-0.75
0.68
2.17
3.64
4.96
6.09
7.06
7.82
8.27
8.26
7.61
6.31
4.53
2.57
0.77
-0.66
-1.74
-2.66
-3.69
-5.08
-6.89
-9.03
-11.22
-13.10
-14.24
-14.33
-13.20
-10.99
-8.01
-4.75
-1.63
1.03
3.13
4.77
6.08
7.15
8.01
8.65
9.03
9.22
9.28
9.25
9.17
8.97
8.64
8.17
7.63
7.07
6.56
6.09
5.58
4.93
4.03
2.83
1.36
-0.30
-2.00
-3.59
-4.95
-5.98
-6.72
-7.27
-7.83
-8.62
-9.86
-11.62
-13.79
-16.10
-18.16
-19.54
-19.96
-19.33
-17.79
-15.60
-13.09
-10.52
-8.08
-5.84
-3.80
-1.89
-0.03
1.87
3.80
5.68
7.31
8.50
9.13
9.25
9.06
8.84
8.79
8.98
9.30
9.54
9.53
9.28
8.89
8.51
8.21
7.92
7.51
6.83
5.85
4.71
3.58
2.63
1.90
1.30
0.69
-0.04
-0.92
-1.89
-2.84
-3.72
-4.57
-5.49
-6.58
-7.87
-9.28
-10.60
-11.61
-12.07
-11.86
-10.95
-9.40
-7.37
-5.09
-2.83
-0.83
0.85
2.23
3.52
4.88
6.40
8.00
9.47
10.58
11.18
11.28
11.04
10.71
10.53
10.68
11.23
12.15
13.37
14.75
16.07
17.11
17.61
17.40
16.41
14.83
12.99
11.26
9.88
8.86
8.00
7.01
5.69
4.01
2.12
0.22
-1.51
-3.02
-4.36
-5.58
-6.74
-7.92
-9.20
-10.71
-12.55
-14.72
-17.00
-19.01
-20.28
-20.46
-19.42
-17.39
-14.77
-12.07
-9.61
-7.54
-5.82
-4.33
-2.93
-1.59
-0.33
0.78
1.70
2.41
2.94
3.31
3.57
3.77
3.93
4.09
4.29
4.54
4.79
4.97
5.02
4.83
4.45
3.96
3.52
3.27
3.25
3.40
3.58
3.67
3.59
3.32
2.92
2.42
1.82
1.12
0.34
-0.46
-1.17
-1.68
-1.93
-2.00
-2.06
-2.35
-3.07
-4.29
-5.86
-7.48
-8.74
-9.27
-8.91
-7.72
-5.96
-4.02
-2.25
-0.89
0.05
0.66
1.15
1.70
2.42
3.31
4.32
5.33
6.30
7.25
8.24
9.36
10.60
11.88
13.05
13.96
14.56
14.89
15.07
15.19
15.27
15.16
14.73
13.91
12.84
11.80
11.14
11.07
11.58
12.46
13.46
14.42
15.31
16.25
17.40
18.83
20.49
22.24
23.84
24.99
25.37
24.62
22.51
18.99
14.23
8.73
3.13
-1.88
-5.74
-8.20
-9.28
-9.30
-8.73
-8.09
-7.79
-8.07
-8.94
-10.21
-11.63
-12.93
-13.90
-14.42
-14.42
-13.88
-12.87
-11.51
-10.06
-8.79
-8.00
-7.88
-8.43
-9.50
-10.81
-12.09
-13.08
-13.66
-13.78
-13.53
-13.13
-12.86
-13.00
-13.73
-15.03
-16.70
-18.42
-19.90
-20.96
-21.60
-21.94
-22.07
-22.09
-21.99
-21.80
-21.59
-21.51
-21.63
-21.94
-22.19
-22.03
-21.17
-19.50
-17.17
-14.53
-11.95
-9.68
-7.81
-6.27
-4.97
-3.85
-2.95
-2.32
-2.00
-1.91
-1.94
-1.92
-1.76
-1.45
-1.12
-0.93
-0.98
-1.25
-1.57
-1.72
-1.53
-0.98
-0.19
0.61
1.20
1.45
1.37
1.10
0.74
0.46
0.26
0.07
-0.30
-1.02
-2.26
-4.08
-6.41
-9.08
-11.85
-14.44
-16.57
-17.99
-18.48
-17.98
-16.59
-14.57
-12.33
-10.23
-8.45
-6.96
-5.56
-4.02
-2.24
-0.30
1.61
3.28
4.63
5.71
6.61
7.41
8.11
8.68
9.11
9.51
10.01
10.72
11.61
12.53
13.22
13.49
13.25
12.56
11.56
10.42
9.27
8.18
7.15
6.15
5.15
4.10
2.94
1.60
-0.01
-1.92
-4.07
-6.29
-8.27
-9.67
-10.25
-9.90
-8.77
-7.12
-5.18
-3.10
-0.84
1.66
4.39
7.16
9.64
11.47
12.50
12.82
12.79
12.83
13.25
14.13
15.29
16.41
17.13
17.18
16.41
14.83
12.70
10.46
8.72
8.09
8.95
11.29
14.62
18.14
20.95
22.34
21.95
19.83
16.28
11.73
6.50
0.82
-5.20
-11.48
-17.83
-23.96
-29.42
-33.72
-36.51
-37.63
-37.21
-35.62
-33.31
-30.70
-28.12
-25.74
-23.64
-21.84
-20.26
-18.80
-17.29
-15.59
-13.58
-11.26
-8.70
-6.06
-3.52
-1.26
0.62
2.08
3.17
4.06
4.91
5.84
6.85
7.83
8.61
9.03
9.01
8.55
7.71
6.60
5.39
4.21
3.19
2.34
1.56
0.69
-0.50
-2.19
-4.40
-7.01
-9.68
-12.01
-13.62
-14.23
-13.79
-12.39
-10.30
-7.80
-5.16
-2.55
-0.11
2.04
3.80
5.12
5.96
6.39
6.52
6.47
6.34
6.21
6.15
6.20
6.41
6.77
7.23
7.69
8.01
8.10
7.87
7.29
6.38
5.21
3.85
2.36
0.77
-0.87
-2.55
-4.19
-5.69
-6.98
-8.07
-9.04
-10.04
-11.17
-12.46
-13.74
-14.76
-15.23
-14.93
-13.78
-11.84
-9.32
-6.48
-3.61
-0.93
1.44
3.52
5.45
7.35
9.21
10.88
12.13
12.77
12.85
12.62
12.45
12.58
13.06
13.63
13.94
13.71
12.90
11.68
10.32
9.05
7.95
6.92
5.83
4.56
3.12
1.60
0.10
-1.32
-2.65
-3.88
-5.04
-6.08
-7.02
-7.91
-8.83
-9.92
-11.25
-12.84
-14.51
-16.02
-17.05
-17.27
-16.51
-14.73
-12.09
-8.89
-5.49
-2.23
0.64
3.01
4.90
6.40
7.61
8.61
9.43
10.07
10.55
10.90
11.18
11.49
11.90
12.43
13.01
13.54
13.95
14.20
14.26
14.17
13.93
13.49
12.80
11.85
10.71
9.51
8.45
7.65
7.11
6.74
6.36
5.81
4.97
3.84
2.46
0.92
-0.67
-2.22
-3.67
-5.09
-6.57
-8.25
-10.12
-12.02
-13.63
-14.55
-14.48
-13.34
-11.32
-8.72
-5.86
-2.98
-0.20
2.45
4.94
7.27
9.39
11.27
12.85
14.04
14.79
15.11
15.10
14.92
14.71
14.52
14.35
14.17
14.02
14.00
14.21
14.64
15.13
15.37
15.07
14.09
12.50
10.52
8.46
6.57
4.98
3.71
2.74
1.99
1.35
0.72
0.02
-0.82
-1.80
-2.85
-3.89
-4.83
-5.65
-6.44
-7.38
-8.65
-10.42
-12.68
-15.18
-17.52
-19.20
-19.84
-19.25
-17.55
-15.00
-11.97
-8.73
-5.52
-2.49
0.29
2.75
4.89
6.77
8.54
10.31
12.14
14.00
15.79
17.40
18.68
19.57
20.02
20.06
19.78
19.33
18.86
18.43
17.99
17.38
16.40
14.86
12.76
10.25
7.65
5.32
3.59
2.63
2.40
2.61
2.90
2.90
2.48
1.69
0.81
0.10
-0.26
-0.30
-0.19
-0.23
-0.64
-1.59
-3.14
-5.26
-7.79
-10.46
-12.89
-14.68
-15.49
-15.21
-13.93
-11.96
-9.68
-7.45
-5.52
-3.91
-2.58
-1.37
-0.14
1.17
2.59
4.02
5.39
6.56
7.50
8.21
8.78
9.34
9.96
10.63
11.27
11.73
11.93
11.83
11.45
10.86
10.10
9.17
8.09
6.94
5.85
4.98
4.39
4.02
3.72
3.36
2.91
2.48
2.23
2.24
2.38
2.39
2.01
1.17
0.10
-0.76
-0.94
-0.16
1.51
3.78
6.24
8.50
10.31
11.47
11.87
11.44
10.20
8.33
6.14
3.98
2.07
0.45
-1.00
-2.50
-4.17
-6.00
-7.81
-9.39
-10.52
-11.14
-11.25
-10.97
-10.45
-9.87
-9.40
-9.19
-9.38
-10.01
-11.02
-12.20
-13.30
-14.02
-14.19
-13.75
-12.80
-11.59
-10.47
-9.71
-9.47
-9.69
-10.13
-10.55
-10.79
-10.89
-11.07
-11.51
-12.29
-13.31
-14.34
-15.20
-15.81
-16.29
-16.83
-17.58
-18.57
-19.67
-20.63
-21.14
-20.93
-19.89
-18.09
-15.79
-13.29
-10.82
-8.46
-6.16
-3.86
-1.61
0.39
1.89
2.77
3.08
3.07
3.00
3.06
3.23
3.42
3.57
3.69
3.93
4.41
5.12
5.89
6.45
6.58
6.26
5.62
4.91
4.30
3.80
3.30
2.62
1.64
0.33
-1.17
-2.73
-4.19
-5.44
-6.44
-7.24
-7.91
-8.54
-9.22
-9.91
-10.47
-10.67
-10.28
-9.20
-7.48
-5.33
-3.00
-0.76
1.23
2.87
4.17
5.16
5.90
6.47
6.92
7.32
7.70
8.04
8.33
8.57
8.73
8.83
8.82
8.73
8.56
8.32
8.03
7.67
7.20
6.59
5.81
4.87
3.82
2.68
1.41
-0.05
-1.77
-3.79
-6.06
-8.47
-10.93
-13.37
-15.77
-18.06
-20.05
-21.45
-21.97
-21.45
-19.93
-17.71
-15.18
-12.66
-10.38
-8.37
-6.65
-5.22
-4.11
-3.35
-2.90
-2.63
-2.41
-2.10
-1.67
-1.18
-0.72
-0.34
-0.03
0.26
0.57
0.87
1.10
1.13
0.91
0.44
-0.20
-0.84
-1.31
-1.50
-1.37
-1.03
-0.68
-0.56
-0.93
-1.92
-3.55
-5.61
-7.79
-9.66
-10.88
-11.26
-10.78
-9.58
-7.88
-5.95
-3.96
-2.11
-0.49
0.82
1.85
2.70
3.51
4.43
5.52
6.71
7.84
8.75
9.33
9.60
9.67
9.71
9.83
10.07
10.37
10.54
10.47
10.05
9.31
8.32
7.14
5.83
4.35
2.67
0.76
-1.36
-3.70
-6.22
-8.89
-11.63
-14.19
-16.29
-17.58
-17.86
-17.07
-15.35
-12.98
-10.26
-7.43
-4.66
-2.01
0.49
2.83
4.97
6.86
8.42
9.63
10.54
11.21
11.70
12.05
12.16
11.97
11.45
10.66
9.74
8.81
7.90
6.96
5.87
4.54
2.97
1.27
-0.38
-1.79
-2.82
-3.47
-3.83
-4.15
-4.75
-5.89
-7.72
-10.10
-12.66
-14.90
-16.33
-16.62
-15.75
-13.94
-11.56
-9.06
-6.72
-4.68
-2.89
-1.24
0.45
2.26
4.22
6.26
8.23
10.00
11.48
12.64
13.49
14.09
14.50
14.78
15.01
15.28
15.73
16.35
17.08
17.68
17.90
17.48
16.40
14.85
13.14
11.59
10.30
9.24
8.22
7.11
5.87
4.53
3.18
1.78
0.30
-1.35
-3.17
-5.04
-6.83
-8.44
-9.91
-11.37
-12.94
-14.58
-16.11
-17.20
-17.54
-16.93
-15.35
-12.98
-10.12
-7.13
-4.31
-1.78
0.43
2.41
4.19
5.76
7.00
7.85
8.32
8.58
8.93
9.60
10.74
12.26
13.92
15.44
16.62
17.36
17.71
17.80
17.69
17.40
16.85
15.94
14.64
13.03
11.31
9.73
8.49
7.59
6.83
5.94
4.72
3.12
1.29
-0.49
-2.01
-3.18
-4.09
-4.95
-5.95
-7.24
-8.90
-10.98
-13.49
-16.33
-19.28
-22.00
-24.08
-25.20
-25.19
-24.02
-21.84
-18.87
-15.44
-11.88
-8.52
-5.54
-2.98
-0.68
1.59
4.00
6.51
8.90
10.89
12.31
13.21
13.79
14.31
14.95
15.71
16.48
17.12
17.56
17.81
17.92
17.92
17.75
17.33
16.62
15.70
14.79
14.17
14.09
14.50
15.16
15.63
15.51
14.62
13.12
11.36
9.77
8.59
7.81
7.19
6.45
5.41
4.09
2.68
1.42
0.56
0.24
0.54
1.48
3.05
5.20
7.83
10.70
13.51
15.93
17.68
18.67
19.01
18.96
18.83
18.87
19.16
19.64
20.12
20.39
20.26
19.59
18.30
16.34
13.75
10.66
7.31
4.05
1.25
-0.87
-2.21
-2.92
-3.19
-3.21
-3.04
-2.72
-2.24
-1.75
-1.42
-1.48
-2.09
-3.22
-4.73
-6.42
-8.11
-9.67
-11.02
-12.03
-12.59
-12.59
-12.02
-10.99
-9.62
-8.05
-6.34
-4.50
-2.56
-0.63
1.13
2.56
3.62
4.41
5.17
6.09
7.27
8.56
9.74
10.59
10.98
10.96
10.66
10.17
9.54
8.70
7.59
6.24
4.79
3.47
2.48
1.90
1.68
1.69
1.79
1.87
1.90
1.85
1.74
1.58
1.39
1.19
0.95
0.63
0.16
-0.50
-1.35
-2.28
-3.18
-3.92
-4.43
-4.71
-4.84
-4.90
-4.94
-5.05
-5.26
-5.60
-6.08
-6.67
-7.33
-7.98
-8.47
-8.63
-8.34
-7.64
-6.70
-5.85
-5.45
-5.73
-6.65
-8.00
-9.43
-10.59
-11.28
-11.44
-11.09
-10.27
-9.08
-7.67
-6.22
-4.92
-3.92
-3.24
-2.82
-2.55
-2.33
-2.12
-1.84
-1.44
-0.89
-0.12
0.89
2.12
3.45
4.76
5.91
6.74
7.12
7.01
6.43
5.47
4.23
2.81
1.30
-0.24
-1.68
-2.96
-3.99
-4.77
-5.38
-5.91
-6.44
-6.97
-7.48
-7.95
-8.38
-8.78
-9.13
-9.42
-9.66
-9.93
-10.43
-11.38
-12.87
-14.87
-17.10
-19.19
-20.82
-21.80
-22.13
-21.91
-21.28
-20.33
-19.15
-17.84
-16.43
-14.92
-13.27
-11.38
-9.19
-6.77
-4.32
-2.12
-0.47
0.54
0.94
0.97
0.83
0.74
0.79
1.01
1.35
1.75
2.12
2.38
2.51
2.45
2.25
1.93
1.49
0.90
0.09
-1.01
-2.47
-4.31
-6.58
-9.31
-12.47
-15.93
-19.42
-22.49
-24.64
-25.46
-24.79
-22.74
-19.75
-16.36
-13.04
-10.07
-7.52
-5.33
-3.39
-1.74
-0.50
0.17
0.24
-0.17
-0.74
-1.01
-0.63
0.58
2.45
4.61
6.51
7.74
8.08
7.58
6.56
5.36
4.30
3.51
3.04
2.80
2.71
2.64
2.46
2.08
1.39
0.47
-0.53
-1.30
-1.52
-0.95
0.50
2.67
5.31
8.04
10.45
12.26
13.25
13.40
12.85
11.90
10.94
10.28
10.12
10.49
11.29
12.33
13.41
14.30
14.81
14.83
14.37
13.53
12.55
11.65
10.93
10.35
9.70
8.73
7.28
5.36
3.16
0.94
-1.05
-2.66
-3.85
-4.58
-4.80
-4.43
-3.35
-1.59
0.68
3.17
5.54
7.52
8.95
9.81
10.14
10.03
9.62
9.03
8.44
8.01
7.88
8.14
8.83
9.94
11.38
13.07
14.81
16.43
17.81
18.91
19.83
20.73
21.73
22.80
23.80
24.47
24.64
24.25
23.42
22.38
21.37
20.62
20.25
20.27
20.55
20.78
20.49
19.20
16.65
12.99
8.77
4.77
1.70
-0.11
-0.72
-0.50
0.13
0.93
1.83
2.85
3.92
4.85
5.42
5.51
5.17
4.52
3.57
2.06
-0.42
-4.24
-9.33
-15.08
-20.43
-24.35
-26.32
-26.55
-25.89
-25.35
-25.65
-26.93
-28.79
-30.55
-31.60
-31.52
-30.14
-27.50
-23.81
-19.38
-14.71
-10.38
-6.94
-4.79
-4.02
-4.43
-5.57
-6.95
-8.14
-8.98
-9.50
-9.94
-10.57
-11.53
-12.86
-14.47
-16.23
-18.03
-19.83
-21.54
-23.04
-24.17
-24.72
-24.56
-23.64
-21.98
-19.69
-16.92
-13.89
-10.85
-8.06
-5.66
-3.70
-2.09
-0.67
0.63
1.81
2.78
3.51
4.04
4.50
4.98
5.47
5.85
5.97
5.79
5.37
4.91
4.50
4.17
3.82
3.30
2.53
1.48
0.17
-1.36
-3.10
-5.05
-7.16
-9.33
-11.40
-13.17
-14.43
-15.04
-14.94
-14.23
-13.09
-11.73
-10.29
-8.82
-7.28
-5.60
-3.81
-2.07
-0.66
0.15
0.19
-0.53
-1.83
-3.43
-4.97
-6.11
-6.59
-6.31
-5.37
-4.05
-2.76
-1.85
-1.50
-1.67
-2.08
-2.44
-2.52
-2.28
-1.84
-1.43
-1.31
-1.63
-2.48
-3.76
-5.23
-6.57
-7.40
-7.43
-6.52
-4.71
-2.20
0.70
3.71
6.56
9.07
11.12
12.72
13.94
14.93
15.80
16.63
17.35
17.82
17.89
17.48
16.64
15.50
14.23
13.01
11.92
11.02
10.35
9.84
9.43
8.97
8.33
7.48
6.48
5.54
4.82
4.48
4.53
4.85
5.24
5.47
5.39
4.93
4.14
3.18
2.26
1.52
1.03
0.73
0.50
0.19
-0.26
-0.90
-1.75
-2.85
-4.26
-5.99
-7.99
-10.10
-12.13
-13.87
-15.26
-16.34
-17.31
-18.39
-19.70
-21.16
-22.52
-23.39
-23.44
-22.54
-20.79
-18.46
-15.86
-13.23
-10.64
-8.08
-5.50
-2.94
-0.48
1.70
3.42
4.56
5.09
5.12
4.84
4.53
4.39
4.52
4.93
5.52
6.20
6.89
7.52
7.96
8.03
7.55
6.44
4.80
2.94
1.24
-0.04
-0.88
-1.50
-2.24
-3.35
-4.96
-6.92
-9.04
-11.08
-12.88
-14.30
-15.26
-15.66
-15.38
-14.36
-12.61
-10.32
-7.71
-5.05
-2.55
-0.32
1.60
3.20
4.52
5.60
6.49
7.27
8.05
8.87
9.68
10.31
10.65
10.64
10.40
10.15
10.08
10.21
10.34
10.21
9.60
8.55
7.26
5.98
4.89
3.94
2.98
1.82
0.41
-1.16
-2.74
-4.21
-5.59
-7.00
-8.58
-10.33
-12.12
-13.67
-14.69
-15.00
-14.55
-13.47
-11.97
-10.24
-8.37
-6.39
-4.30
-2.13
0.01
1.97
3.62
4.88
5.76
6.36
6.80
7.20
7.56
7.87
8.08
8.17
8.17
8.12
8.03
7.91
7.74
7.51
7.28
7.11
7.07
7.13
7.17
7.05
6.67
6.03
5.22
4.38
3.60
2.89
2.13
1.19
-0.06
-1.69
-3.73
-6.13
-8.72
-11.25
-13.37
-14.74
-15.08
-14.36
-12.72
-10.48
-8.01
-5.62
-3.48
-1.61
0.03
1.49
2.75
3.80
4.64
5.32
5.92
6.54
7.27
8.07
8.86
9.51
9.87
9.90
9.66
9.34
9.13
9.17
9.48
9.88
10.09
9.80
8.82
7.13
4.94
2.56
0.25
-1.92
-4.06
-6.42
-9.27
-12.76
-16.97
-21.89
-27.48
-33.54
-39.65
-45.13
-49.17
-51.11
-50.74
-48.47
-45.11
-41.65
-38.95
-37.50
-37.47
-38.82
-41.36
-44.78
-48.62
-52.22
-54.89
-56.09
-55.60
-53.58
-50.43
-46.55
-42.04
-36.71
-30.11
-21.86
-11.92
-0.72
10.85
21.84
31.41
39.17
45.16
49.71
53.25
56.10
58.45
60.32
61.68
62.50
62.86
62.92
62.95
63.19
63.76
64.62
65.52
66.12
66.10
65.37
64.05
62.48
61.02
59.89
59.09
58.44
57.70
56.66
55.13
52.93
49.74
45.09
38.53
29.95
19.70
8.69
-1.90
-10.97
-17.85
-22.46
-25.13
-26.41
-26.78
-26.59
-26.06
-25.37
-24.69
-24.14
-23.73
-23.35
-22.76
-21.75
-20.22
-18.27
-16.12
-14.09
-12.52
-11.69
-11.79
-12.90
-14.96
-17.74
-20.80
-23.64
-25.78
-26.95
-27.08
-26.31
-24.85
-22.83
-20.33
-17.38
-14.14
-10.88
-8.03
-5.97
-4.92
-4.88
-5.63
-6.90
-8.37
-9.78
-10.94
-11.65
-11.80
-11.30
-10.12
-8.35
-6.16
-3.75
-1.42
0.56
1.94
2.57
2.42
1.64
0.45
-0.86
-2.00
-2.72
-2.81
-2.15
-0.71
1.37
3.86
6.46
8.92
11.09
12.96
14.53
15.84
16.86
17.53
17.83
17.73
17.33
16.74
16.10
15.52
15.03
14.53
13.85
12.79
11.24
9.22
6.90
4.51
2.19
-0.02
-2.11
-4.16
-6.19
-8.14
-9.93
-11.40
-12.38
-12.70
-12.27
-11.10
-9.39
-7.46
-5.60
-4.07
-2.93
-2.17
-1.71
-1.46
-1.33
-1.20
-0.94
-0.41
0.43
1.47
2.52
3.37
3.92
4.23
4.45
4.69
4.90
4.93
4.57
3.69
2.35
0.75
-0.85
-2.23
-3.33
-4.20
-5.02
-6.04
-7.53
-9.68
-12.60
-16.22
-20.36
-24.76
-29.12
-33.11
-36.46
-38.88
-40.24
-40.60
-40.25
-39.59
-38.84
-37.90
-36.30
-33.50
-29.23
-23.65
-17.41
-11.24
-5.71
-0.95
3.22
7.00
10.43
13.27
15.25
16.25
16.44
16.23
16.06
16.22
16.69
17.32
17.84
18.09
18.01
17.68
17.16
16.58
16.03
15.63
15.46
15.55
15.82
16.10
16.17
15.84
15.00
13.68
11.99
10.09
8.14
6.28
4.58
3.07
1.77
0.67
-0.23
-0.98
-1.68
-2.53
-3.71
-5.28
-7.14
-8.91
-10.09
-10.28
-9.32
-7.40
-4.95
-2.46
-0.26
1.61
3.27
4.97
6.88
9.05
11.35
13.58
15.50
16.91
17.76
18.14
18.39
18.94
20.16
22.22
24.93
27.84
30.34
31.99
32.67
32.64
32.48
32.88
34.41
37.36
41.62
46.55
51.05
53.76
53.45
49.66
43.00
35.28
28.95
26.26
28.38
35.03
44.55
54.66
63.21
68.78
70.82
69.33
64.68
57.35
47.98
37.40
26.67
16.85
8.73
2.60
-1.85
-5.38
-8.92
-13.15
-18.24
-23.82
-29.12
-33.31
-35.82
-36.52
-35.72
-33.95
-31.66
-29.08
-26.18
-22.81
-18.91
-14.67
-10.59
-7.28
-5.30
-4.94
-6.07
-8.24
-10.81
-13.16
-14.94
-16.06
-16.67
-17.02
-17.23
-17.22
-16.73
-15.45
-13.17
-9.95
-6.10
-2.11
1.50
4.35
6.19
6.86
6.23
4.22
0.81
-3.78
-9.18
-14.93
-20.64
-26.09
-31.23
-36.02
-40.30
-43.76
-46.11
-47.18
-47.08
-46.09
-44.57
-42.71
-40.54
-37.98
-34.96
-31.54
-27.88
-24.13
-20.33
-16.45
-12.39
-8.18
-3.92
0.15
3.86
7.13
9.95
12.29
13.98
14.73
14.32
12.70
10.10
6.99
3.84
1.02
-1.30
-3.15
-4.54
-5.55
-6.13
-6.27
-5.88
-4.88
-3.25
-1.05
1.42
3.65
5.01
4.99
3.41
0.54
-2.96
-6.25
-8.53
-9.34
-8.60
-6.63
-3.98
-1.33
0.73
1.79
1.75
0.72
-0.99
-3.04
-5.15
-7.16
-9.04
-10.83
-12.60
-14.46
-16.50
-18.71
-21.01
-23.23
-25.18
-26.70
-27.66
-27.97
-27.56
-26.35
-24.34
-21.70
-18.71
-15.71
-12.92
-10.40
-7.96
-5.33
-2.32
1.15
4.90
8.63
11.95
14.42
15.66
15.32
13.24
9.46
4.16
-2.29
-9.44
-16.76
-23.67
-29.57
-33.99
-36.68
-37.71
-37.40
-36.14
-34.16
-31.46
-27.92
-23.45
-18.24
-12.66
-7.29
-2.58
1.21
4.10
6.26
7.91
9.20
10.17
10.86
11.26
11.45
11.59
11.87
12.44
13.36
14.49
15.52
16.14
16.13
15.57
14.72
13.92
13.39
13.10
12.85
12.38
11.55
10.37
8.97
7.46
5.85
4.10
2.19
0.28
-1.34
-2.31
-2.36
-1.52
-0.02
1.70
3.29
4.54
5.53
6.47
7.58
8.92
10.34
11.53
12.16
12.07
11.32
10.16
8.94
7.97
7.50
7.61
8.26
9.26
10.35
11.23
11.68
11.59
11.04
10.25
9.43
8.70
8.02
7.24
6.17
4.66
2.69
0.29
-2.47
-5.52
-8.71
-11.76
-14.27
-15.75
-15.84
-14.43
-11.77
-8.38
-4.90
-1.90
0.39
2.01
3.18
4.11
4.86
5.32
5.26
4.60
3.40
1.99
0.77
0.12
0.24
1.07
2.34
3.75
5.06
6.15
7.01
7.62
7.97
8.02
7.76
7.24
6.49
5.54
4.31
2.67
0.49
-2.28
-5.51
-8.95
-12.26
-15.12
-17.23
-18.38
-18.41
-17.35
-15.36
-12.79
-10.01
-7.33
-4.93
-2.75
-0.69
1.38
3.46
5.45
7.19
8.52
9.34
9.65
9.49
8.92
8.09
7.13
6.24
5.63
5.43
5.65
6.15
6.71
7.12
7.28
7.18
6.94
6.62
6.25
5.75
4.97
3.71
1.84
-0.67
-3.68
-6.85
-9.69
-11.70
-12.49
-11.93
-10.12
-7.34
-4.00
-0.48
2.89
5.87
8.32
10.30
11.98
13.58
15.24
17.02
18.77
20.31
21.50
22.31
22.84
23.23
23.55
23.85
24.08
24.20
24.18
23.98
23.59
22.92
21.96
20.70
19.25
17.82
16.71
16.14
16.20
16.73
17.36
17.61
17.13
15.85
14.01
12.12
10.68
9.98
9.97
10.34
10.69
10.76
10.49
9.95
9.24
8.40
7.33
5.92
4.17
2.14
0.08
-1.76
-3.17
-4.03
-4.30
-4.02
-3.32
-2.37
-1.46
-1.01
-1.48
-3.28
-6.57
-11.12
-16.35
-21.37
-25.34
-27.61
-27.95
-26.55
-23.84
-20.36
-16.55
-12.78
-9.34
-6.49
-4.46
-3.32
-3.01
-3.22
-3.54
-3.57
-3.13
-2.29
-1.31
-0.60
-0.40
-0.84
-1.84
-3.22
-4.78
-6.40
-8.00
-9.48
-10.72
-11.58
-12.12
-12.56
-13.39
-14.98
-17.46
-20.56
-23.67
-26.29
-28.21
-29.67
-31.10
-32.82
-34.67
-36.05
-36.20
-34.53
-30.95
-25.85
-19.84
-13.55
-7.35
-1.42
4.20
9.44
14.18
18.20
21.37
23.68
25.23
26.26
26.98
27.53
27.98
28.29
28.41
28.30
27.93
27.29
26.37
25.25
24.04
22.87
21.84
20.99
20.30
19.82
19.56
19.63
20.07
20.78
21.51
21.92
21.76
20.99
19.84
18.67
17.80
17.35
17.22
17.16
16.89
16.22
15.05
13.40
11.41
9.34
7.51
6.26
5.79
6.05
6.84
7.81
8.73
9.42
9.82
9.78
9.07
7.43
4.76
1.27
-2.54
-6.03
-8.73
-10.55
-11.73
-12.67
-13.58
-14.38
-14.74
-14.34
-13.00
-10.80
-7.97
-4.67
-0.93
3.20
7.56
11.66
14.88
16.73
17.05
16.14
14.58
12.98
11.79
11.23
11.38
12.26
13.88
16.21
19.04
22.03
24.74
26.72
27.70
27.58
26.49
24.72
22.68
20.77
19.34
18.55
18.39
18.72
19.25
19.72
19.87
19.58
18.92
18.17
17.65
17.51
17.61
17.52
16.61
14.34
10.46
5.10
-1.17
-7.48
-12.86
-16.46
-17.91
-17.39
-15.63
-13.65
-12.36
-12.30
-13.52
-15.74
-18.58
-21.78
-25.21
-28.86
-32.67
-36.56
-40.47
-44.35
-48.21
-51.99
-55.60
-58.87
-61.66
-63.88
-65.53
-66.66
-67.33
-67.59
-67.49
-66.97
-65.92
-64.14
-61.43
-57.65
-52.85
-47.25
-41.22
-35.17
-29.46
-24.38
-20.01
-16.21
-12.48
-8.16
-2.51
4.98
14.39
25.19
36.42
46.85
55.35
61.17
64.04
64.27
62.56
59.74
56.59
53.51
50.60
47.61
44.27
40.37
35.92
31.13
26.28
21.58
17.10
12.76
8.38
3.81
-1.04
-6.13
-11.27
-16.23
-20.74
-24.52
-27.36
-29.13
-29.77
-29.30
-27.85
-25.59
-22.77
-19.63
-16.46
-13.46
-10.75
-8.35
-6.13
-3.99
-1.84
0.30
2.25
3.88
5.07
5.84
6.27
6.49
6.54
6.42
6.14
5.74
5.35
5.08
4.97
4.95
4.85
4.50
3.81
2.82
1.66
0.51
-0.52
-1.41
-2.25
-3.06
-3.85
-4.48
-4.85
-4.87
-4.61
-4.29
-4.12
-4.22
-4.55
-4.94
-5.20
-5.22
-5.08
-4.97
-5.14
-5.77
-6.89
-8.31
-9.74
-10.86
-11.45
-11.46
-10.98
-10.16
-9.15
-8.01
-6.70
-5.17
-3.43
-1.53
0.32
1.91
3.07
3.72
3.86
3.59
3.07
2.40
1.70
1.00
0.32
-0.32
-0.98
-1.68
-2.46
-3.36
-4.36
-5.45
-6.57
-7.66
-8.67
-9.61
-10.52
-11.49
-12.52
-13.51
-14.20
-14.27
-13.46
-11.70
-9.14
-6.11
-3.06
-0.31
1.96
3.72
5.02
5.96
6.62
7.08
7.48
7.90
8.39
8.98
9.58
10.14
10.56
10.82
10.88
10.73
10.32
9.68
8.86
7.94
6.96
5.86
4.52
2.80
0.66
-1.84
-4.51
-7.13
-9.58
-11.72
-13.44
-14.59
-14.99
-14.49
-13.10
-10.99
-8.46
-5.81
-3.27
-0.88
1.41
3.67
5.89
7.94
9.63
10.78
11.32
11.35
11.14
10.99
11.14
11.60
12.22
12.71
12.81
12.44
11.75
10.99
10.38
10.04
9.87
9.64
9.04
7.89
6.15
3.98
1.68
-0.44
-2.06
-2.96
-3.03
-2.24
-0.68
1.45
3.81
6.04
7.82
9.04
9.78
10.27
10.71
11.17
11.50
11.45
10.77
9.38
7.40
5.03
2.52
0.01
-2.45
-4.79
-6.95
-8.81
-10.27
-11.25
-11.80
-12.04
-12.13
-12.25
-12.50
-12.92
-13.43
-13.99
-14.49
-14.84
-14.93
-14.60
-13.80
-12.47
-10.71
-8.63
-6.38
-4.08
-1.81
0.33
2.21
3.65
4.53
4.83
4.74
4.55
4.57
4.94
5.60
6.28
6.64
6.48
5.74
4.62
3.42
2.40
1.73
1.39
1.23
1.08
0.78
0.24
-0.55
-1.60
-2.89
-4.33
-5.75
-6.87
-7.43
-7.28
-6.48
-5.26
-3.92
-2.69
-1.70
-0.91
-0.27
0.27
0.68
0.88
0.82
0.53
0.06
-0.48
-1.01
-1.44
-1.80
-2.10
-2.41
-2.77
-3.17
-3.61
-4.10
-4.69
-5.46
-6.43
-7.59
-8.78
-9.83
-10.55
-10.82
-10.62
-9.92
-8.77
-7.17
-5.14
-2.73
-0.05
2.77
5.62
8.43
11.21
13.88
16.35
18.41
19.83
20.49
20.41
19.82
18.99
18.21
17.62
17.26
17.01
16.78
16.47
16.08
15.70
15.38
15.18
15.04
14.89
14.62
14.11
13.37
12.43
11.39
10.32
9.26
8.22
7.25
6.49
6.13
6.38
7.36
9.04
11.24
13.75
16.36
18.90
21.27
23.30
24.78
25.42
25.00
23.42
20.74
17.22
13.29
