1675170153.00
64.000000
-0.00
-0.00
-0.00
-0.00
-0.00
-0.00
-0.00
-0.00
-0.00
-0.00
0.00
0.01
0.01
-0.00
-0.03
-0.05
-0.05
0.00
0.13
0.36
0.66
1.01
1.37
1.72
2.06
2.40
2.79
3.24
3.80
4.42
5.06
5.66
6.20
6.68
7.15
7.68
8.31
9.14
10.09
11.04
11.88
12.56
13.14
13.76
14.65
15.96
17.91
20.32
22.90
25.38
27.58
29.57
31.68
34.32
37.81
42.54
48.15
54.10
59.83
64.97
69.58
74.14
79.34
85.71
93.76
103.00
112.62
121.73
129.77
136.75
143.30
150.75
157.77
166.64
177.95
191.79
206.97
220.57
228.25
225.36
208.53
176.87
132.76
80.05
23.07
-34.94
-92.44
-149.16
-205.23
-260.37
-313.74
-363.87
-409.83
-450.91
-486.50
-515.74
-537.23
-549.22
-549.96
-538.37
-514.21
-478.67
-433.88
-382.45
-327.02
-269.84
-212.63
-156.66
-102.95
-52.37
-5.90
35.58
71.43
101.35
125.50
144.38
158.69
169.15
176.37
180.75
182.57
182.07
179.51
175.23
169.65
163.18
156.15
148.81
141.30
133.69
126.02
118.33
110.69
103.16
95.80
88.68
81.83
75.25
68.95
62.95
57.25
51.86
46.78
42.03
37.59
33.45
29.61
26.07
22.81
19.83
17.11
14.67
12.48
10.54
8.83
7.35
6.07
4.97
4.05
3.27
2.62
2.09
1.65
1.30
1.01
0.79
0.61
0.47
0.37
0.29
0.23
0.20
0.17
0.16
0.17
0.18
0.20
0.22
0.26
0.29
0.33
0.38
0.42
0.46
0.51
0.56
0.60
0.65
0.70
0.76
0.81
0.87
0.94
1.02
1.10
1.19
1.30
1.42
1.56
1.71
1.89
2.08
2.30
2.54
2.81
3.10
3.43
3.79
4.18
4.60
5.06
5.56
6.08
6.65
7.25
7.89
8.56
9.28
10.03
10.81
11.64
12.49
13.40
14.36
15.37
16.44
17.55
18.67
19.77
20.77
21.59
22.09
22.16
21.67
20.50
18.60
15.92
12.51
8.43
3.85
-1.03
-5.98
-10.77
-15.15
-18.90
-21.89
-23.98
-25.12
-25.31
-24.64
-23.19
-21.08
-18.44
-15.40
-12.08
-8.58
-4.95
-1.25
2.42
6.02
9.47
12.76
15.86
18.76
21.45
23.96
26.34
28.51
30.44
32.11
33.55
34.79
35.91
37.02
38.29
39.97
42.01
44.40
47.20
50.38
53.95
57.89
62.22
67.04
72.54
78.40
84.47
90.64
96.80
102.87
108.79
114.58
120.40
126.55
132.64
138.44
143.67
147.90
150.54
150.82
147.74
139.78
130.04
119.49
108.74
98.05
87.35
76.41
64.98
53.03
40.89
29.24
18.16
7.78
-2.03
-11.75
-22.10
-33.69
-46.72
-60.86
-75.29
-89.53
-103.16
-116.09
-128.68
-141.60
-155.65
-171.66
-190.22
-211.33
-234.30
-257.08
-276.43
-288.83
-291.72
-284.53
-268.95
-248.33
-226.27
-205.51
-187.13
-170.91
-156.18
-142.66
-130.80
-121.36
-114.81
-110.88
-108.53
-106.33
-102.92
-97.26
-88.90
-77.78
-64.10
-48.25
-30.79
-12.51
5.62
22.50
37.11
48.69
56.92
61.92
64.24
64.65
64.00
63.00
62.08
61.38
60.78
60.07
59.07
57.79
56.38
55.15
54.35
54.02
53.93
53.60
52.45
50.03
46.25
41.42
36.09
30.82
25.90
21.34
16.87
12.15
6.99
1.45
-4.26
-9.82
-15.06
-19.88
-24.25
-28.31
-32.28
-36.52
-41.48
-47.48
-54.49
-61.84
-68.24
-72.02
-71.68
-66.38
-56.28
-42.53
-26.88
-11.16
3.21
15.40
25.20
32.71
38.21
41.96
44.23
45.35
45.65
45.51
45.25
45.09
45.07
45.15
45.20
45.06
44.67
44.05
43.37
42.80
42.49
42.39
42.24
41.64
40.18
37.62
33.98
29.56
24.76
19.98
15.48
11.29
7.25
3.15
-1.25
-6.04
-11.11
-16.20
-20.96
-25.10
-28.57
-31.66
-34.94
-39.09
-44.77
-52.19
-60.84
-69.50
-76.60
-80.56
-80.13
-74.73
-64.60
-50.87
-35.26
-19.54
-5.19
6.86
16.25
23.22
28.36
32.32
35.32
37.38
38.64
39.38
39.83
40.14
40.32
40.28
39.89
38.16
34.66
29.93
25.28
21.84
20.03
19.58
19.78
19.84
17.30
10.79
1.01
-9.73
-19.23
-26.32
-30.99
-33.99
-36.37
-42.16
-53.74
-70.13
-87.65
-102.72
-113.36
-119.68
-123.24
-126.41
-135.66
-155.37
-185.28
-220.76
-256.10
-286.15
-307.43
-318.30
-294.27
-227.52
-131.94
-35.06
41.73
91.50
118.51
130.93
136.62
141.50
145.05
145.74
142.61
135.22
120.96
98.49
67.90
32.25
-2.64
-33.56
-58.10
-74.49
-77.20
-67.36
-49.03
-26.36
-2.12
22.14
43.99
62.12
76.01
86.00
91.97
93.20
88.91
79.09
65.26
49.42
34.54
24.18
17.85
15.40
15.67
16.64
16.40
14.25
10.76
7.99
8.83
15.73
29.91
50.86
76.70
104.81
132.16
155.58
172.03
179.57
177.77
168.26
153.67
136.80
119.70
103.35
88.20
74.85
64.83
59.20
57.63
57.50
55.03
47.26
33.78
17.12
1.45
-8.14
-9.02
-1.56
10.84
23.73
33.11
36.04
30.62
16.16
-4.38
-26.71
-45.74
-57.70
-60.64
-54.51
-40.83
-21.98
-0.22
25.51
55.75
90.13
126.05
160.01
189.56
214.04
234.38
236.26
211.89
164.05
108.39
62.29
35.02
25.88
27.34
29.64
24.64
15.70
3.91
-7.84
-17.53
-25.04
-32.02
-40.79
-53.13
-70.19
-89.84
-111.36
-132.70
-152.38
-168.71
-179.40
-181.73
-173.67
-156.17
-126.67
-89.99
-54.57
-27.68
-11.19
-3.05
-0.94
-4.18
-14.67
-32.86
-57.60
-84.43
-108.19
-124.80
-133.10
-135.10
-126.47
-107.14
-79.20
-48.44
-21.23
-2.14
8.88
15.64
24.90
41.84
67.01
98.06
130.04
158.81
176.84
178.34
163.04
137.20
109.80
85.97
65.87
44.93
18.04
-17.63
-60.41
-104.94
-146.93
-181.98
-208.25
-225.91
-237.37
-245.00
-250.42
-253.63
-254.13
-252.15
-249.48
-250.21
-253.52
-260.05
-268.30
-274.49
-273.66
-262.07
-239.14
-207.61
-172.37
-137.76
-106.47
-78.08
-50.49
-21.57
9.49
41.99
74.81
107.02
138.24
167.45
193.17
213.20
225.38
228.73
224.11
214.18
202.54
192.70
186.50
184.38
185.44
188.09
190.76
192.31
192.15
190.04
185.92
179.70
171.59
162.25
152.76
144.37
138.02
133.87
131.13
128.36
123.93
116.74
106.57
93.99
80.09
66.01
52.57
40.01
27.94
15.61
2.37
-12.00
-26.89
-40.90
-52.28
-59.49
-61.96
-60.44
-56.82
-53.40
-52.07
-53.54
-57.19
-61.42
-64.26
-63.99
-59.46
-50.23
-36.46
-18.92
1.09
21.82
41.27
57.69
69.89
77.47
80.67
80.07
76.43
70.61
63.53
56.17
49.38
43.62
38.81
34.53
30.28
25.84
21.42
17.50
14.45
12.34
10.80
9.21
7.01
3.92
-0.01
-4.46
-9.09
-13.61
-17.87
-21.84
-25.56
-29.14
-32.71
-36.42
-40.40
-44.86
-49.98
-55.97
-62.90
-70.34
-77.29
-82.23
-83.46
-79.75
-70.78
-57.35
-41.09
-23.90
-7.36
7.54
20.36
31.05
39.63
46.09
50.47
52.89
53.66
53.18
51.87
50.05
47.82
45.15
41.93
38.15
34.02
30.08
27.01
25.36
25.25
26.18
27.13
26.91
24.61
19.96
13.31
5.45
-2.77
-10.71
-18.21
-25.35
-32.46
-39.87
-47.85
-56.45
-65.45
-74.25
-82.00
-87.73
-90.59
-90.05
-86.01
-78.68
-68.51
-56.09
-42.08
-27.19
-12.28
1.79
14.27
24.62
32.74
38.88
43.60
47.45
50.72
53.32
54.90
55.08
53.75
51.21
47.93
44.43
41.06
37.97
35.18
32.70
30.51
28.44
26.10
23.06
18.95
13.75
7.84
1.80
-3.87
-9.08
-14.17
-19.79
-26.64
-35.16
-45.24
-56.15
-66.64
-75.15
-80.21
-80.78
-76.49
-67.71
-55.36
-40.67
-24.91
-9.25
5.35
18.15
28.68
36.75
42.32
45.59
46.89
46.61
45.11
42.62
39.31
35.39
31.05
26.53
21.98
17.51
13.20
9.07
5.01
0.92
-3.29
-7.78
-12.79
-18.59
-25.33
-32.93
-41.16
-50.03
-59.48
-69.39
-79.69
-90.44
-101.70
-113.34
-124.87
-135.45
-144.68
-151.74
-155.60
-155.52
-151.53
-144.44
-135.58
-126.21
-117.39
-111.01
-108.12
-108.73
-112.20
-117.57
-123.52
-128.32
-129.92
-126.63
-119.03
-107.87
-93.44
-75.86
-55.43
-32.99
-9.98
11.99
40.22
75.40
113.00
146.98
173.87
193.74
207.94
217.54
223.47
226.59
226.29
222.57
216.05
206.98
195.44
182.09
166.85
150.63
134.76
119.25
104.00
88.97
73.32
56.30
37.48
17.11
-3.90
-24.58
-45.64
-69.14
-93.17
-118.28
-145.91
-178.11
-216.78
-262.28
-312.14
-360.85
-399.96
-420.47
-416.88
-388.88
-341.75
-284.20
-224.88
-169.50
-120.14
-75.92
-35.05
3.08
38.43
71.02
101.75
132.34
164.23
197.20
229.04
256.14
274.55
281.94
278.33
265.71
247.11
225.59
203.54
182.63
163.95
148.04
135.10
124.85
116.61
109.69
103.82
99.49
97.65
99.06
103.47
109.41
114.41
115.99
112.60
104.23
92.24
78.61
65.12
52.76
41.74
31.74
22.33
13.05
3.47
-6.87
-18.23
-30.51
-43.09
-54.90
-64.79
-71.85
-75.75
-76.73
-75.50
-73.00
-70.20
-67.89
-66.44
-65.77
-65.33
-64.37
-62.23
-58.75
-54.37
-49.95
-46.34
-44.04
-42.89
-42.16
-40.96
-38.47
-34.26
-28.35
-21.12
-13.18
-5.22
2.08
8.17
12.66
15.43
16.61
16.56
15.77
14.65
13.46
12.31
11.21
10.16
9.18
8.37
7.83
7.60
7.64
7.84
8.05
8.04
7.67
6.81
5.38
3.41
1.02
-1.60
-4.26
-6.84
-9.45
-12.29
-15.63
-19.55
-23.88
-28.22
-32.10
-35.25
-37.67
-39.69
-41.72
-44.04
-46.57
-48.89
-50.35
-50.29
-48.19
-43.87
-37.46
-29.47
-20.59
-11.68
-3.53
3.27
8.46
12.15
14.65
16.40
17.77
18.93
19.83
20.38
20.46
20.06
19.33
18.40
17.40
16.39
15.33
14.18
12.95
11.69
10.47
9.34
8.25
7.17
6.00
4.77
3.49
2.24
1.01
-0.22
-1.47
-2.75
-3.97
-5.15
-6.33
-7.72
-9.53
-11.92
-14.77
-17.70
-20.06
-21.15
-20.40
-17.55
-12.67
-6.07
1.73
10.23
19.01
27.70
36.10
44.05
51.45
58.17
64.12
69.18
73.33
76.69
79.52
82.21
85.19
88.80
93.22
98.47
104.45
110.95
117.78
124.70
131.43
137.70
143.20
147.81
151.61
154.94
158.30
162.16
166.72
171.85
177.19
182.31
186.87
190.57
192.90
192.94
188.97
179.28
162.93
140.12
111.95
79.94
45.52
9.98
-25.25
-58.27
-86.20
-105.60
-113.80
-110.35
-97.54
-79.59
-61.05
-45.39
-35.28
-32.04
-36.34
-48.92
-70.81
-102.20
-141.12
-182.86
-220.90
-251.04
-270.19
-276.54
-270.15
-253.60
-231.29
-207.94
-187.25
-171.55
-166.22
-173.40
-190.13
-209.98
-227.04
-238.05
-242.21
-240.47
-234.86
-234.96
-246.99
-269.89
-296.97
-321.61
-340.36
-352.42
-358.65
-361.02
-371.60
-398.47
-440.55
-489.22
-534.99
-571.49
-595.35
-605.84
-546.90
-401.15
-200.96
-4.78
147.76
249.11
309.74
343.50
360.95
368.39
360.18
333.90
295.46
256.15
224.84
204.37
193.21
188.22
186.66
179.08
161.74
138.18
116.00
100.88
93.95
93.13
95.38
98.12
95.35
84.08
66.44
47.33
30.70
17.95
8.87
3.04
0.80
1.40
1.31
0.83
1.54
4.46
9.33
15.30
21.75
28.60
35.44
42.22
49.87
59.04
69.79
81.55
93.73
106.08
118.93
133.02
149.48
169.98
195.60
226.16
259.51
291.49
316.77
330.54
330.28
316.76
293.97
267.18
241.01
218.17
199.18
183.07
168.38
153.83
138.47
121.87
103.95
85.22
66.83
50.20
36.40
25.47
16.34
7.20
-3.77
-17.74
-34.97
-54.74
-75.58
-95.56
-112.54
-124.54
-130.16
-128.94
-121.54
-109.61
-95.26
-80.48
-66.56
-53.91
-42.27
-31.00
-19.65
-8.27
2.44
11.38
17.55
20.49
20.62
19.12
17.44
16.77
17.61
19.71
22.32
24.61
25.96
26.16
25.28
23.46
20.80
17.31
12.96
7.80
2.04
-3.99
-9.80
-14.82
-18.50
-20.44
-20.60
-19.30
-17.26
-15.33
-14.41
-15.39
-19.12
-26.34
-37.34
-51.54
-67.30
-82.07
-93.22
-98.93
-98.85
-93.99
-85.92
-75.93
-64.69
-52.53
-40.35
-30.13
-24.49
-25.46
-33.16
-45.22
-57.47
-65.66
-67.24
-62.30
-53.37
-44.37
-39.14
-40.22
-48.22
-61.40
-76.01
-87.08
-89.69
-80.34
-58.04
-24.91
14.18
52.41
83.17
102.08
108.78
107.35
104.97
109.19
124.37
149.13
175.86
193.95
194.61
174.92
139.11
96.27
56.45
26.92
10.31
4.61
6.02
11.07
17.74
24.71
29.97
30.29
22.18
3.19
-27.13
-65.82
-107.09
-144.16
-171.81
-188.53
-196.58
-200.34
-198.47
-189.05
-171.12
-146.63
-119.34
-92.47
-68.20
-49.19
-35.79
-29.69
-34.08
-51.63
-83.15
-126.86
-177.11
-225.78
-263.82
-283.54
-281.63
-261.02
-229.63
-197.57
-173.37
-161.09
-159.69
-164.22
-168.31
-167.26
-159.85
-147.94
-135.17
-124.92
-118.98
-117.11
-117.40
-117.08
-114.14
-108.05
-99.63
-90.26
-80.82
-71.30
-61.22
-50.34
-39.26
-29.55
-23.23
-21.75
-25.24
-32.46
-41.24
-49.61
-56.46
-61.90
-66.97
-72.99
-80.84
-90.55
-101.23
-111.47
-119.80
-125.08
-126.79
-124.99
-120.12
-112.76
-103.36
-92.14
-78.98
-63.48
-45.06
-23.19
2.39
31.51
63.47
97.23
131.68
165.91
199.53
232.60
265.52
298.89
333.41
369.71
408.05
447.75
486.68
521.21
547.03
560.45
559.86
546.53
524.12
497.27
469.89
443.95
419.40
395.08
369.99
344.07
318.29
294.10
272.64
254.43
239.39
227.27
217.92
211.50
208.23
208.00
210.14
213.47
216.57
218.22
217.82
215.43
211.59
206.84
201.24
194.14
184.33
170.43
151.52
127.53
99.23
67.85
34.55
0.14
-34.87
-69.84
-103.73
-135.00
-162.07
-183.83
-199.95
-210.83
-217.18
-219.45
-217.61
-211.21
-199.81
-183.43
-162.79
-139.13
-113.89
-88.26
-62.83
-37.54
-12.05
14.03
40.75
67.68
94.15
119.20
141.69
160.36
174.03
181.85
183.61
179.73
171.02
158.31
142.03
122.02
97.88
69.56
37.65
3.37
-32.10
-68.02
-103.95
-139.54
-174.09
-206.23
-233.98
-255.47
-269.55
-276.22
-276.48
-271.25
-260.94
-245.53
-225.00
-199.84
-171.66
-142.78
-115.62
-94.14
-81.03
-76.26
-77.09
-80.11
-83.14
-85.85
-88.83
-93.15
-99.08
-105.87
-112.39
-117.72
-121.74
-122.54
-119.64
-113.37
-104.61
-94.54
-84.23
-74.48
-66.04
-59.55
-55.40
-53.95
-55.05
-58.12
-62.29
-66.50
-69.84
-71.80
-72.31
-71.66
-70.49
-69.26
-68.16
-67.09
-65.78
-64.15
-62.48
-61.38
-61.35
-62.57
-64.44
-65.79
-65.42
-62.81
-58.42
-53.49
-49.47
-47.28
-47.14
-48.57
-50.84
-53.36
-55.77
-57.68
-58.37
-56.76
-51.65
-42.32
-28.86
-12.39
5.22
21.74
35.35
45.24
51.94
57.06
62.62
70.09
79.80
90.89
101.83
111.19
118.03
121.76
121.67
116.44
104.47
84.69
57.51
25.29
-8.26
-39.39
-65.52
-85.79
-100.65
-110.95
-117.19
-119.36
-117.39
-111.78
-103.93
-95.92
-89.67
-86.16
-84.88
-84.14
-81.79
-76.27
-67.18
-55.43
-42.62
-30.16
-18.60
-7.51
4.01
16.60
30.00
43.15
54.68
63.75
70.36
75.21
79.03
82.08
83.94
83.98
81.92
78.29
74.32
71.42
70.50
71.49
73.45
74.96
74.79
72.34
67.75
61.59
54.54
47.04
39.12
30.63
21.33
11.12
0.13
-11.33
-22.96
-34.61
-46.31
-58.11
-69.87
-80.95
-90.23
-96.28
-97.82
-94.14
-85.26
-71.83
-54.81
-35.10
-13.45
9.39
32.52
54.88
75.61
94.39
111.61
128.10
144.38
160.18
174.19
184.54
189.54
188.45
181.70
170.86
158.10
145.56
134.77
126.36
120.01
114.81
109.76
104.29
98.48
92.82
87.68
82.83
77.39
70.25
60.76
49.13
36.36
23.65
11.80
0.85
-9.64
-20.18
-30.92
-41.61
-51.83
-61.34
-70.27
-79.06
-88.02
-96.99
-105.10
-110.93
-112.97
-110.11
-102.06
-89.48
-73.73
-56.54
-39.53
-23.98
-10.65
0.21
8.74
15.33
20.38
24.16
26.71
27.94
27.83
26.51
24.43
22.11
20.03
18.49
17.49
16.85
16.41
16.01
15.52
14.79
13.58
11.66
8.91
5.35
1.19
-3.31
-7.90
-12.50
-17.15
-22.00
-27.15
-32.59
-38.13
-43.51
-48.48
-52.90
-56.93
-60.88
-65.21
-70.31
-76.24
-82.61
-88.55
-92.92
-94.54
-92.54
-86.51
-76.63
-63.59
-48.45
-32.44
-16.83
-2.71
9.14
18.32
24.81
28.86
30.85
31.18
30.19
28.20
25.54
22.53
19.50
16.70
14.29
12.35
10.90
9.86
9.12
8.46
7.62
6.24
4.03
0.81
-3.46
-8.59
-14.20
-19.78
-24.83
-29.02
-32.27
-34.91
-37.58
-41.17
-46.42
-53.70
-62.69
-72.52
-81.96
-90.05
-96.55
-102.17
-108.47
-117.19
-129.47
-145.10
-162.24
-177.71
-187.88
-189.83
-182.28
-166.09
-143.84
-119.00
-94.75
-73.18
-54.81
-38.86
-23.69
-7.40
11.46
33.21
56.51
78.39
94.98
102.90
100.72
89.77
73.78
57.48
44.82
37.73
35.93
37.73
41.26
45.20
48.98
52.43
55.20
56.74
56.42
53.95
49.52
43.90
38.10
33.05
29.32
26.96
25.59
24.73
24.02
23.42
23.21
23.72
24.99
26.61
27.81
27.74
26.00
22.81
19.12
16.30
15.77
18.70
25.76
37.19
52.83
72.33
95.01
119.87
145.36
169.44
189.83
204.53
212.36
213.33
208.52
199.62
188.20
175.19
160.83
145.07
128.19
111.02
94.73
80.32
67.92
56.72
45.31
32.47
17.85
2.22
-12.93
-26.09
-36.39
-43.92
-49.53
-54.33
-59.20
-64.52
-70.14
-75.65
-80.66
-84.94
-88.50
-91.58
-94.43
-97.34
-100.49
-103.93
-107.53
-110.92
-113.45
-114.21
-112.22
-106.67
-97.15
-83.86
-67.66
-49.86
-31.97
-15.34
-0.91
10.86
19.96
26.62
31.22
34.08
35.44
35.52
34.51
32.69
30.33
27.74
25.21
22.95
21.12
19.82
19.03
18.65
18.45
18.16
17.52
16.34
14.48
11.95
8.85
5.39
1.82
-1.62
-4.76
-7.64
-10.45
-13.52
-17.19
-21.62
-26.71
-32.16
-37.50
-42.33
-46.46
-49.91
-52.98
-56.11
-59.78
-64.35
-69.78
-75.59
-80.75
-83.81
-83.32
-78.23
-68.31
-54.29
-37.64
-20.18
-3.54
11.16
23.38
33.03
40.25
45.27
48.33
49.73
49.89
49.24
48.20
47.04
45.88
44.70
43.44
42.06
40.62
39.18
37.88
36.81
35.98
35.30
34.60
33.67
32.30
30.29
27.56
24.10
20.04
15.60
11.04
6.65
2.56
-1.26
-4.98
-8.86
-13.08
-17.66
-22.43
-27.12
-31.41
-35.13
-38.30
-41.13
-43.96
-47.23
-51.29
-56.39
-62.36
-68.62
-74.08
-77.36
-77.09
-72.31
-62.86
-49.45
-33.54
-16.98
-1.53
11.52
21.52
28.43
32.57
34.49
34.70
33.75
32.10
30.19
28.35
26.78
25.54
24.62
24.00
23.69
23.75
24.20
24.96
25.78
26.30
26.12
24.94
22.62
19.28
15.25
10.90
6.61
2.56
-1.26
-5.05
-9.15
-13.83
-19.23
-25.24
-31.49
-37.50
-42.83
-47.34
-51.27
-55.21
-59.87
-65.70
-72.55
-79.53
-85.10
-87.47
-85.16
-77.46
-64.75
-48.34
-30.16
-12.16
4.08
17.67
28.28
35.98
41.02
43.73
44.54
43.94
42.48
40.65
38.77
36.99
35.29
33.68
32.25
31.17
30.57
30.47
30.67
30.81
30.58
29.70
28.04
25.54
22.20
18.06
13.28
8.14
3.01
-1.75
-5.98
-9.79
-13.54
-17.60
-22.16
-27.10
-32.06
-36.61
-40.44
-43.61
-46.46
-49.54
-53.38
-58.38
-64.56
-71.52
-78.36
-83.66
-85.82
-83.42
-75.71
-62.87
-46.13
-27.40
-8.72
8.18
22.24
33.13
41.03
46.43
49.92
51.98
53.07
53.46
53.31
52.67
51.59
50.14
48.45
46.72
45.14
43.86
42.94
42.36
41.98
41.61
40.98
39.85
38.07
35.58
32.49
28.91
25.06
21.07
17.06
13.12
9.28
5.47
1.57
-2.61
-7.17
-12.10
-17.26
-22.42
-27.34
-31.89
-36.08
-40.08
-44.21
-48.83
-54.19
-60.29
-66.62
-72.24
-75.86
-76.19
-72.34
-64.13
-52.12
-37.47
-21.64
-6.02
8.22
20.26
29.66
36.27
40.22
41.87
41.70
40.21
37.84
34.96
31.83
28.68
25.78
23.32
21.51
20.42
20.03
20.21
20.75
21.39
21.80
21.68
20.77
18.93
16.19
12.76
8.89
4.88
0.89
-3.03
-6.94
-10.94
-15.07
-19.32
-23.50
-27.46
-31.05
-34.31
-37.51
-41.05
-45.44
-51.02
-57.73
-64.94
-71.47
-75.78
-76.37
-72.24
-63.23
-50.16
-34.62
-18.53
-3.70
8.61
17.79
23.92
27.36
28.62
28.05
25.78
21.84
16.40
9.84
2.87
-3.62
-8.98
-12.90
-15.68
-18.03
-20.79
-24.63
-29.74
-35.92
-42.75
-49.90
-57.25
-64.97
-73.37
-82.74
-93.35
-105.35
-118.95
-134.18
-150.74
-167.69
-183.44
-196.04
-203.85
-206.17
-203.55
-197.50
-189.81
-181.83
-173.87
-165.25
-154.71
-140.86
-122.70
-99.80
-72.38
-41.22
-7.49
27.44
62.20
95.50
126.16
153.10
175.50
192.91
205.43
213.51
217.69
218.30
215.44
209.15
199.90
188.75
177.15
166.49
157.54
150.30
144.25
138.79
133.52
128.24
122.83
117.17
111.21
105.13
99.24
93.69
88.26
82.38
75.58
67.98
60.34
53.65
48.45
44.21
39.57
33.08
24.15
13.53
2.83
-6.39
-13.65
-19.76
-26.46
-35.25
-46.48
-58.93
-70.17
-77.43
-78.58
-72.75
-60.45
-43.29
-23.36
-2.63
17.26
35.19
50.41
62.45
71.01
76.08
77.96
77.34
75.13
72.32
69.62
67.32
65.28
63.08
60.32
56.91
53.12
49.52
46.64
44.72
43.56
42.58
41.06
38.43
34.52
29.56
24.07
18.58
13.47
8.84
4.50
0.21
-4.25
-8.97
-13.84
-18.70
-23.41
-27.90
-32.22
-36.54
-41.09
-46.07
-51.62
-57.65
-63.72
-69.04
-72.56
-73.21
-70.19
-63.29
-52.98
-40.35
-26.83
-13.89
-2.74
5.90
11.83
15.24
16.59
16.37
15.01
12.88
10.28
7.58
5.18
3.51
2.83
3.15
4.28
5.83
7.45
8.92
10.08
10.87
11.21
10.97
10.06
8.51
6.47
4.21
1.92
-0.36
-2.73
-5.37
-8.44
-11.96
-15.82
-19.84
-23.86
-27.83
-31.77
-35.81
-40.18
-45.12
-50.81
-57.09
-63.40
-68.63
-71.38
-70.34
-64.77
-54.78
-41.38
-26.12
-10.70
3.49
15.59
25.23
32.41
37.36
40.31
41.52
41.22
39.75
37.45
34.80
32.28
30.23
28.83
28.04
27.67
27.55
27.54
27.61
27.79
28.00
28.02
27.59
26.54
24.82
22.58
20.04
17.36
14.55
11.48
7.92
3.70
-1.24
-6.76
-12.54
-18.20
-23.42
-28.02
-32.08
-35.85
-39.71
-44.05
-49.11
-54.89
-61.06
-66.85
-71.13
-72.58
-70.02
-62.87
-51.43
-36.90
-21.03
-5.65
7.84
18.71
26.88
32.67
36.53
38.85
39.94
40.06
39.49
38.55
37.50
36.53
35.72
35.04
34.37
33.64
32.80
31.93
31.17
30.58
30.06
29.35
28.09
26.01
23.05
19.40
15.47
11.66
8.17
4.93
1.60
-2.17
-6.56
-11.50
-16.61
-21.45
-25.70
-29.33
-32.59
-35.97
-39.92
-44.75
-50.53
-56.99
-63.65
-69.77
-74.47
-76.77
-75.83
-71.14
-62.76
-51.39
-38.31
-25.13
-13.37
-4.18
1.83
4.62
4.52
2.07
-2.10
-7.31
-12.76
-17.52
-20.58
-21.01
-18.25
-12.32
-3.85
6.13
16.57
26.74
36.38
45.61
54.53
62.86
69.78
74.19
75.10
72.16
65.85
57.28
47.80
38.49
29.87
21.92
14.38
7.03
-0.15
-7.05
-13.62
-19.95
-26.30
-32.79
-39.16
-44.68
-48.23
-48.63
-45.11
-37.58
-26.78
-14.13
-1.28
10.29
19.60
26.32
30.62
32.91
33.66
33.24
31.91
29.87
27.40
24.72
22.07
19.70
17.77
16.41
15.64
15.37
15.41
15.55
15.56
15.28
14.57
13.37
11.59
9.18
6.09
2.36
-1.90
-6.54
-11.35
-16.16
-20.78
-25.04
-28.90
-32.40
-35.68
-39.02
-42.72
-47.09
-52.28
-58.18
-64.29
-69.65
-73.06
-73.34
-69.67
-61.90
-50.59
-36.89
-22.24
-8.05
4.62
15.19
23.49
29.67
34.00
36.76
38.19
38.52
37.93
36.71
35.11
33.42
31.80
30.36
29.14
28.15
27.39
26.85
26.46
26.11
25.63
24.80
23.43
21.40
18.68
15.38
11.60
7.47
3.08
-1.54
-6.32
-11.19
-16.00
-20.59
-24.89
-28.98
-33.12
-37.71
-43.01
-49.03
-55.35
-61.14
-65.24
-66.50
-64.04
-57.52
-47.30
-34.38
-20.21
-6.32
6.03
16.14
23.87
29.52
33.56
36.31
37.95
38.55
38.20
37.18
35.84
34.51
33.40
32.52
31.78
31.16
30.69
30.49
30.56
30.72
30.66
30.03
28.56
26.15
22.87
18.88
14.37
9.52
4.47
-0.61
-5.52
-10.04
-14.03
-17.46
-20.50
-23.48
-26.89
-31.23
-36.76
-43.35
-50.29
-56.44
-60.38
-60.89
-57.16
-49.13
-37.45
-23.40
-8.56
5.50
17.51
26.78
33.11
36.81
38.44
38.64
37.94
36.67
35.00
33.08
31.07
29.17
27.64
26.69
26.39
26.64
27.16
27.52
27.33
26.34
24.51
22.03
19.18
16.16
13.03
9.72
6.10
2.16
-2.00
-6.22
-10.44
-14.66
-18.97
-23.43
-28.04
-32.76
-37.59
-42.64
-48.00
-53.55
-58.73
-62.51
-63.65
-61.04
-54.16
-43.34
-29.68
-14.78
-0.32
12.30
22.23
29.21
33.42
35.30
35.38
34.16
32.09
29.57
27.00
24.74
23.04
22.01
21.53
21.40
21.36
21.22
20.82
20.13
19.10
17.71
15.90
13.54
10.51
6.65
1.95
-3.51
-9.38
-15.21
-20.52
-25.07
-28.95
-32.57
-36.53
-41.37
-47.31
-54.10
-61.10
-67.26
-71.40
-72.41
-69.53
-62.53
-51.77
-38.21
-23.20
-8.22
5.40
16.76
25.50
31.74
35.94
38.58
40.03
40.47
39.98
38.71
37.00
35.28
33.94
33.13
32.71
32.28
31.46
30.03
28.08
25.86
23.69
21.77
20.03
18.24
16.02
13.07
9.22
4.55
-0.69
-6.14
-11.42
-16.28
-20.58
-24.45
-28.10
-31.93
-36.39
-41.84
-48.40
-55.77
-63.10
-69.09
-72.25
-71.25
-65.44
-55.03
-41.11
-25.35
-9.56
4.76
16.71
26.02
32.89
37.74
41.04
43.17
44.42
44.98
44.95
44.45
43.58
42.49
41.34
40.28
39.43
38.84
38.49
38.29
38.06
37.58
36.64
35.05
32.70
29.67
26.08
22.17
18.16
14.14
10.00
5.59
0.71
-4.71
-10.49
-16.32
-21.78
-26.57
-30.65
-34.34
-38.18
-42.77
-48.49
-55.21
-62.26
-68.38
-72.09
-72.01
-67.32
-58.05
-45.10
-30.01
-14.48
0.05
12.65
22.93
30.84
36.58
40.38
42.47
43.16
42.78
41.65
40.07
38.27
36.43
34.69
33.19
32.00
31.11
30.49
30.00
29.46
28.71
27.54
25.81
23.41
20.34
16.74
12.79
8.66
4.42
0.03
-4.60
-9.47
-14.41
-19.14
-23.36
-26.95
-30.08
-33.22
-36.90
-41.61
-47.40
-53.87
-60.09
-64.78
-66.56
-64.30
-57.43
-46.20
-31.67
-15.56
0.19
13.84
24.30
31.31
35.30
37.07
37.47
37.08
36.21
34.94
33.29
31.35
29.33
27.48
26.05
25.19
24.93
25.13
25.53
25.78
25.52
24.46
22.44
19.49
15.80
11.65
7.34
3.11
-0.99
-5.02
-9.16
-13.61
-18.42
-23.49
-28.56
-33.34
-37.69
-41.68
-45.65
-50.03
-55.22
-61.25
-67.72
-73.71
-77.93
-79.02
-75.89
-68.07
-55.90
-40.52
-23.60
-6.94
7.96
20.22
29.58
36.34
40.95
43.97
45.84
46.89
47.42
47.66
47.78
47.83
47.74
47.43
46.90
46.22
45.58
45.09
44.73
44.31
43.49
41.94
39.49
36.11
32.02
27.49
22.86
18.30
13.86
9.46
4.91
0.10
-5.03
-10.38
-15.75
-20.90
-25.69
-30.11
-34.31
-38.63
-43.50
-49.28
-56.00
-63.21
-69.95
-74.84
-76.43
-73.62
-65.98
-53.93
-38.69
-21.98
-5.65
8.76
20.25
28.53
33.87
36.89
38.27
38.53
37.96
36.65
34.70
32.27
29.70
27.43
25.86
25.27
25.68
26.86
28.39
29.78
30.59
30.60
29.78
28.26
26.21
23.69
20.63
16.87
12.24
6.75
0.60
-5.87
-12.30
-18.44
-24.17
-29.52
-34.59
-39.54
-44.58
-49.90
-55.59
-61.44
-66.84
-70.76
-71.95
-69.28
-62.13
-50.69
-35.94
-19.50
-3.15
11.56
23.60
32.60
38.72
42.42
44.22
44.56
43.76
42.07
39.76
37.11
34.44
32.03
30.06
28.63
27.77
27.42
27.45
27.68
27.85
27.68
26.85
25.08
22.19
18.23
13.44
8.24
3.05
-1.90
-6.67
-11.51
-16.72
-22.46
-28.52
-34.49
-39.87
-44.41
-48.30
-52.15
-56.87
-63.15
-71.14
-80.07
-88.35
-93.95
-95.09
-90.89
-81.65
-68.73
-54.01
-39.26
-25.64
-13.65
-3.34
5.35
12.31
17.21
19.71
19.52
16.56
10.97
3.13
-6.23
-15.98
-24.63
-30.70
-33.16
-31.79
-27.18
-20.23
-11.46
-0.61
13.31
31.26
53.38
78.29
103.25
124.97
140.49
148.12
147.60
139.92
126.77
110.15
92.13
74.76
59.91
48.89
42.16
39.05
37.92
36.58
33.00
26.00
15.69
3.60
-7.69
-15.06
-15.74
-8.21
7.01
27.19
47.92
64.49
73.69
74.92
70.50
64.46
60.62
60.85
64.42
68.69
70.86
69.52
65.27
60.09
55.88
53.32
51.52
48.69
43.38
35.31
25.59
15.97
7.97
2.05
-2.36
-6.44
-11.19
-17.01
-23.55
-30.08
-35.90
-40.63
-44.42
-47.74
-51.13
-54.87
-58.94
-63.04
-66.89
-70.41
-73.86
-77.59
-81.73
-85.81
-88.69
-88.90
-85.15
-76.94
-64.86
-50.41
-35.53
-21.96
-10.84
-2.52
3.20
6.86
8.99
10.00
10.10
9.42
8.09
6.27
4.23
2.27
0.66
-0.39
-0.81
-0.63
-0.03
0.76
1.41
1.66
1.22
-0.00
-1.98
-4.55
-7.47
-10.55
-13.71
-17.02
-20.59
-24.52
-28.76
-33.12
-37.31
-41.06
-44.23
-46.88
-49.34
-52.10
-55.72
-60.50
-66.24
-71.99
-76.20
-77.07
-73.21
-64.19
-50.76
-34.68
-18.08
-2.82
10.00
20.04
27.55
32.94
36.62
38.88
40.02
40.35
40.18
39.71
38.97
37.88
36.35
34.43
32.37
30.50
29.07
28.15
27.60
27.12
26.35
24.98
22.83
19.89
16.28
12.20
7.79
3.15
-1.75
-6.94
-12.33
-17.70
-22.72
-27.13
-30.84
-34.07
-37.20
-40.71
-44.95
-50.06
-55.87
-61.82
-66.91
-69.89
-69.48
-64.81
-55.79
-43.22
-28.63
-13.81
-0.36
10.69
18.89
24.34
27.40
28.58
28.35
27.16
25.39
23.29
21.11
19.03
17.25
15.93
15.12
14.74
14.65
14.69
14.72
14.67
14.47
13.98
12.98
11.14
8.23
4.20
-0.72
-6.10
-11.42
-16.22
-20.33
-23.82
-27.02
-30.41
-34.48
-39.55
-45.62
-52.28
-58.65
-63.52
-65.52
-63.57
-57.23
-46.89
-33.71
-19.24
-5.03
7.82
18.76
27.67
34.67
39.89
43.36
45.04
44.96
43.36
40.64
37.41
34.31
31.85
30.30
29.61
29.43
29.29
28.80
27.75
26.19
24.26
22.12
19.79
17.13
13.95
10.06
5.40
0.09
-5.61
-11.36
-16.85
-21.93
-26.60
-31.13
-35.95
-41.49
-48.10
-55.81
-64.17
-72.28
-78.77
-82.17
-81.18
-75.09
-64.05
-49.09
-31.90
-14.40
1.74
15.42
26.23
34.36
40.31
44.64
47.80
50.02
51.40
51.93
51.61
50.51
48.82
46.81
44.79
43.02
41.66
40.71
40.08
39.53
38.78
37.54
35.59
32.81
29.21
25.00
20.38
15.59
10.69
5.58
0.12
-5.77
-11.99
-18.20
-24.02
-29.21
-33.76
-38.05
-42.66
-48.18
-54.86
-62.35
-69.62
-75.05
-76.91
-73.88
-65.51
-52.45
-36.27
-19.04
-2.71
11.30
22.34
30.44
36.07
39.87
42.32
43.73
44.17
43.65
42.21
40.05
37.52
35.06
33.06
31.73
31.03
30.74
30.54
30.08
29.13
27.54
25.34
22.60
19.42
15.85
11.91
7.60
2.96
-1.97
-7.08
-12.27
-17.45
-22.56
-27.56
-32.48
-37.49
-42.87
-48.92
-55.81
-63.26
-70.43
-75.96
-78.21
-75.91
-68.51
-56.45
-41.09
-24.26
-7.85
6.70
18.56
27.52
33.80
37.87
40.22
41.31
41.49
41.07
40.30
39.43
38.64
38.06
37.77
37.79
38.07
38.58
39.21
39.80
40.13
39.87
38.71
36.38
32.79
28.04
22.40
16.21
9.79
3.38
-2.92
-9.09
-15.13
-21.03
-26.74
-32.23
-37.57
-42.98
-48.82
-55.44
-62.99
-71.11
-78.85
-84.74
-87.12
-84.66
-76.80
-64.00
-47.64
-29.61
-11.81
4.31
17.93
28.82
37.18
43.35
47.71
50.56
52.17
52.83
52.79
52.33
51.65
50.86
49.97
48.99
47.93
46.92
46.12
45.71
45.69
45.81
45.62
44.59
42.35
38.91
34.59
29.92
25.39
21.18
17.11
12.82
7.94
2.38
-3.68
-9.84
-15.70
-21.04
-25.91
-30.59
-35.57
-41.36
-48.29
-56.30
-64.74
-72.30
-77.32
-78.19
-73.90
-64.38
-50.56
-34.13
-17.02
-0.98
12.75
23.53
31.22
36.13
38.81
39.90
39.98
39.46
38.52
37.16
35.37
33.24
31.01
28.98
27.41
26.40
25.82
25.43
24.92
24.06
22.68
20.70
18.09
14.90
11.24
7.22
2.92
-1.64
-6.48
-11.56
-16.79
-22.01
-26.98
-31.55
-35.69
-39.49
-43.17
-47.04
-51.43
-56.56
-62.28
-67.91
-72.23
-73.70
-71.00
-63.49
-51.57
-36.53
-20.19
-4.33
9.73
21.32
30.28
36.73
40.92
43.04
43.28
41.93
39.42
36.30
33.15
30.42
28.35
26.90
25.86
24.96
24.03
23.06
22.13
21.32
20.56
19.64
18.27
16.09
12.86
8.47
3.02
-3.24
-9.96
-16.76
-23.32
-29.44
-35.10
-40.37
-45.50
-50.79
-56.62
-63.24
-70.60
-78.16
-84.76
-88.89
-88.98
-83.95
-73.55
-58.53
-40.42
-21.17
-2.60
13.92
27.65
38.44
46.56
52.46
56.58
59.32
60.97
61.77
61.91
61.55
60.79
59.68
58.29
56.70
55.02
53.40
51.95
50.66
49.40
47.92
45.94
43.28
39.86
35.75
31.10
26.09
20.85
15.43
9.84
4.09
-1.74
-7.48
-12.99
-18.24
-23.45
-29.01
-35.46
-43.20
-52.16
-61.77
-70.80
-77.62
-80.57
-78.45
-70.81
-58.15
-41.86
-23.81
-5.94
10.15
23.54
33.96
41.67
47.13
50.80
52.96
53.75
53.28
51.75
49.55
47.20
45.18
43.79
43.01
42.60
42.22
41.58
40.57
39.16
37.42
35.40
33.02
30.16
26.63
22.31
17.14
11.18
4.65
-2.22
-9.10
-15.74
-21.95
-27.70
-33.14
-38.62
-44.57
-51.35
-59.07
-67.36
-75.28
-81.43
-84.22
-82.33
-75.18
-63.08
-47.26
-29.55
-11.84
4.23
17.67
28.03
35.32
39.73
41.55
41.07
38.73
35.13
30.99
27.04
23.86
21.70
20.55
20.12
20.05
20.00
19.68
18.95
17.75
16.10
14.02
11.48
8.37
4.57
0.06
-5.01
-10.31
-15.46
-20.20
-24.50
-28.56
-32.78
-37.65
-43.56
-50.73
-59.01
-67.74
-75.71
-81.24
-82.66
-78.76
-69.29
-55.07
-37.79
-19.49
-2.02
13.35
26.03
35.93
43.20
48.11
50.92
51.96
51.62
50.37
48.59
46.55
44.39
42.13
39.80
37.49
35.37
33.69
32.59
32.01
31.69
31.14
29.80
27.23
23.18
17.78
11.43
4.72
-1.79
-7.66
-12.71
-17.05
-21.12
-25.52
-30.82
-37.47
-45.61
-55.00
-64.82
-73.88
-80.79
-84.30
-83.50
-78.02
-68.06
-54.41
-38.30
-21.02
-3.83
12.01
25.28
35.03
40.81
42.84
41.97
39.36
36.59
34.96
34.98
35.93
36.09
33.25
25.40
11.53
-7.93
-30.34
-51.60
-67.55
-75.46
-74.96
-67.97
-57.90
-48.33
-44.42
-49.99
-65.61
-88.18
-113.10
-137.03
-158.67
-177.90
-194.42
-208.03
-217.27
-220.44
-216.42
-205.15
-187.71
-165.66
-142.13
-120.01
-101.39
-86.40
-73.45
-60.00
-43.78
-23.62
0.40
27.39
56.36
86.32
116.61
146.37
174.25
198.72
218.60
233.52
243.58
248.69
247.70
238.85
220.78
193.89
160.93
126.31
94.57
68.52
48.63
33.31
20.49
8.91
-1.43
-9.72
-15.36
-18.78
-21.41
-24.95
-30.40
-37.62
-45.53
-52.83
-58.78
-63.77
-69.24
-77.17
-89.35
-106.70
-128.80
-153.76
-178.44
-198.97
-211.51
-213.27
-203.20
-182.43
-154.04
-122.42
-92.15
-66.91
-48.55
-36.87
-29.88
-24.73
-18.80
-10.63
-0.31
10.87
21.26
29.62
35.63
39.77
42.94
46.01
49.55
53.99
59.74
67.19
76.42
86.83
96.91
104.48
107.38
104.31
95.60
83.19
69.99
58.71
50.83
46.02
42.51
38.12
31.49
22.80
13.68
6.38
2.65
3.02
6.78
12.55
19.15
26.15
34.03
43.80
56.57
72.95
92.79
115.08
138.10
159.74
177.95
191.28
199.11
201.67
199.62
193.69
184.38
172.05
157.30
141.25
125.46
111.82
101.66
95.37
92.23
90.95
90.26
89.48
88.59
87.95
88.08
89.09
90.45
91.12
89.94
86.08
79.41
70.47
60.20
49.90
40.23
30.87
20.62
8.06
-7.61
-26.06
-46.08
-66.11
-83.48
-96.47
-104.72
-109.22
-111.32
-111.62
-109.44
-103.27
-91.70
-71.55
-41.53
-3.29
38.72
78.71
111.67
134.35
145.26
144.32
137.37
131.16
131.18
139.97
156.83
179.48
205.39
232.43
259.74
294.07
343.07
411.32
497.01
591.38
682.20
757.58
809.20
798.92
706.78
538.13
325.44
111.80
-71.66
-213.94
-318.47
-393.77
-447.37
-478.69
-485.86
-473.11
-448.90
-423.86
-405.81
-397.38
-396.91
-400.64
-400.83
-392.21
-374.03
-347.93
-318.94
-291.24
-266.64
-245.54
-227.83
-210.92
-193.00
-173.33
-153.36
-135.97
-123.08
-115.05
-111.50
-111.20
-111.32
-109.52
-103.89
-95.23
-86.23
-79.46
-76.85
-80.11
-89.85
-105.16
-124.25
-143.75
-161.98
-178.71
-194.51
-203.90
-203.72
-193.64
-176.26
-163.38
-155.93
-152.13
-150.50
-146.56
-138.79
-127.42
-112.77
-95.21
-75.52
-54.08
-33.33
-15.93
-2.89
6.47
13.91
21.70
31.38
43.08
56.74
70.82
83.94
95.84
106.77
116.93
126.24
134.15
139.95
143.79
145.70
145.89
144.86
142.89
139.98
136.10
131.41
126.40
122.06
118.97
117.09
115.89
114.44
111.95
108.31
104.13
100.46
98.28
97.64
97.40
95.55
89.84
78.78
62.28
41.79
19.65
-1.85
-21.38
-38.86
-55.11
-71.13
-87.28
-102.90
-116.50
-126.30
-130.91
-129.63
-122.31
-109.09
-90.34
-66.75
-39.39
-9.59
21.52
53.19
85.12
117.04
147.85
174.80
193.43
199.07
189.28
165.64
133.73
101.23
74.78
57.45
47.91
41.36
32.48
18.19
-1.19
-22.71
-42.51
-57.24
-65.19
-66.75
-64.94
-64.32
-69.12
-81.23
-99.16
-118.34
-132.80
-137.87
-129.49
-108.52
-81.63
-58.06
-43.98
-39.16
-39.15
-38.94
-36.61
-33.06
-30.82
-31.68
-34.44
-36.46
-35.11
-29.47
-20.51
-10.21
0.18
10.42
21.31
33.74
47.44
60.50
70.27
74.97
75.07
73.31
73.13
77.00
85.35
96.30
106.33
111.59
109.22
98.22
79.45
54.88
26.95
-1.47
-27.08
-46.10
-55.07
-52.00
-37.61
-15.67
8.14
28.39
42.31
50.57
56.16
62.01
68.78
74.52
76.13
71.61
61.47
48.17
34.47
21.50
8.07
-8.48
-30.56
-58.81
-91.74
-126.48
-159.97
-189.80
-214.09
-231.01
-238.52
-234.82
-219.34
-193.51
-160.63
-124.90
-90.04
-58.35
-30.57
-6.46
14.49
32.64
48.15
61.21
72.16
81.37
89.10
95.28
99.57
101.45
100.46
96.35
89.18
79.51
68.53
57.96
49.69
45.15
44.74
47.57
51.60
54.39
53.87
49.04
40.04
27.80
13.38
-2.50
-19.57
-37.84
-57.40
-78.24
-100.19
-122.78
-144.97
-164.76
-179.38
-186.06
-183.32
-172.22
-156.56
-141.81
-133.14
-133.38
-142.01
-155.56
-169.01
-177.34
-176.83
-165.42
-142.82
-110.29
-70.56
-27.48
14.64
51.95
81.96
103.84
118.19
126.39
130.00
130.45
129.01
126.77
124.63
123.28
122.89
123.22
123.56
122.78
119.16
110.45
94.14
68.41
33.40
-8.63
-53.81
-98.05
-138.13
-172.24
-199.48
-219.10
-229.94
-229.88
-217.86
-195.02
-165.14
-133.42
-104.37
-80.26
-60.92
-44.76
-28.83
-11.23
8.47
29.51
51.18
73.73
98.41
126.29
157.14
190.95
226.54
262.22
296.11
326.77
353.59
376.54
395.37
398.37
376.67
327.86
259.45
185.16
117.78
64.51
26.63
1.46
-15.28
-25.00
-29.69
-30.70
-29.82
-29.26
-30.82
-35.23
-42.18
-50.92
-59.60
-66.86
-72.40
-77.30
-82.98
-89.84
-96.65
-101.25
-101.67
-96.20
-84.73
-68.44
-49.54
-30.46
-13.23
0.73
10.53
15.74
16.95
15.42
12.85
10.83
10.29
11.39
13.56
15.84
17.34
17.77
17.35
16.71
16.45
16.89
17.91
18.93
19.07
17.33
12.87
5.25
-5.44
-18.57
-33.06
-47.64
-61.09
-72.50
-81.37
-87.75
-92.08
-95.13
-97.77
-100.80
-104.83
-110.07
-116.19
-122.24
-126.73
-127.95
-124.50
-115.74
-102.13
-85.02
-66.22
-47.42
-29.77
-13.74
0.62
13.38
24.45
33.59
40.51
45.12
47.63
48.50
48.31
47.63
46.85
46.20
45.78
45.59
45.57
45.60
45.51
45.01
43.74
41.43
37.87
33.12
27.44
21.30
15.12
9.25
3.73
-1.65
-7.30
-13.69
-21.19
-29.88
-39.42
-48.97
-57.29
-63.00
-64.85
-62.09
-54.72
-43.43
-29.40
-14.08
1.24
15.50
27.94
38.04
45.45
49.96
51.54
50.46
47.20
42.50
37.12
31.72
26.72
22.33
18.61
15.59
13.34
11.96
11.43
11.48
11.60
11.10
9.37
6.04
1.15
-4.95
-11.76
-18.86
-26.02
-33.27
-40.85
-49.06
-58.10
-67.91
-77.96
-87.18
-94.10
-97.17
-95.14
-87.52
-74.74
-58.07
-39.24
-19.99
-1.68
14.86
29.28
41.46
51.33
58.72
63.43
65.41
64.86
62.36
58.69
54.71
51.10
48.33
46.58
45.80
45.79
46.18
46.49
46.19
44.77
41.78
36.93
30.16
21.64
11.82
1.39
-8.89
-18.36
-26.75
-34.24
-41.40
-48.98
-57.57
-67.27
-77.58
-87.31
-94.87
-98.49
-96.77
-89.06
-75.66
-57.85
-37.47
-16.47
3.58
21.70
37.53
51.04
62.33
71.45
78.35
82.95
85.28
85.54
84.15
81.66
78.56
75.18
71.65
67.91
63.90
59.71
55.48
51.35
47.30
43.05
38.17
32.28
25.22
17.16
8.47
-0.37
-8.99
-17.18
-24.89
-32.25
-39.53
-47.08
-55.31
-64.50
-74.56
-84.91
-94.36
-101.34
-104.30
-102.07
-94.30
-81.44
-64.66
-45.50
-25.50
-5.96
12.13
28.14
41.68
52.56
60.82
66.68
70.50
72.70
73.62
73.49
72.44
70.56
67.99
65.00
61.92
59.12
56.88
55.32
54.24
53.32
52.08
50.20
47.49
44.02
39.93
35.38
30.39
24.79
18.37
10.93
2.48
-6.75
-16.33
-25.74
-34.50
-42.36
-49.32
-55.72
-62.17
-69.32
-77.56
-86.75
-95.98
-103.68
-107.95
-107.15
-100.33
-87.64
-70.25
-50.02
-28.94
-8.74
9.44
25.04
37.91
48.13
55.83
61.19
64.46
66.02
66.31
65.75
64.69
63.32
61.69
59.80
57.72
55.57
53.54
51.78
50.29
48.89
47.18
44.73
41.18
36.44
30.76
24.63
18.59
13.06
8.11
3.47
-1.30
-6.62
-12.64
-19.23
-26.02
-32.58
-38.64
-44.15
-49.30
-54.46
-60.04
-66.44
-73.82
-81.98
-90.26
-97.50
-102.32
-103.31
-99.46
-90.48
-76.91
-60.06
-41.69
-23.57
-7.18
6.55
17.13
24.46
28.67
30.09
29.34
27.24
24.68
22.35
20.33
17.97
13.99
6.95
-4.15
-19.25
-37.08
-55.31
-71.30
-82.89
-88.99
-89.82
-86.48
-80.27
-72.13
-62.38
-50.95
-37.82
-23.42
-8.68
5.27
17.50
27.70
36.23
44.01
52.15
61.43
71.94
82.88
92.70
99.40
101.07
96.36
84.84
67.19
45.10
20.99
-2.65
-23.96
-42.08
-57.17
-69.83
-80.28
-87.76
-90.68
-87.16
-76.05
-57.41
-32.41
-2.73
29.98
64.24
98.47
130.63
158.30
179.19
191.91
196.44
194.03
186.61
176.05
163.73
150.51
136.85
122.92
108.60
93.41
76.59
57.56
36.38
14.15
-7.07
-24.81
-36.93
-42.34
-41.42
-35.88
-28.28
-21.22
-16.72
-15.82
-18.51
-24.15
-31.92
-41.21
-51.76
-63.45
-75.99
-88.62
-100.14
-109.17
-114.46
-115.24
-111.38
-103.33
-92.04
-78.71
-64.59
-50.87
-38.43
-27.89
-19.56
-13.54
-9.70
-7.81
-7.38
-7.78
-8.26
-8.16
-7.10
-5.15
-2.78
-0.60
0.89
1.55
1.62
1.55
1.73
2.22
2.69
2.52
1.07
-2.00
-6.58
-12.06
-17.67
-22.69
-26.81
-30.24
-33.56
-37.44
-42.38
-48.45
-55.38
-62.72
-69.90
-76.33
-81.38
-84.29
-84.28
-80.69
-72.96
-60.96
-44.95
-25.64
-4.25
17.51
37.56
53.88
64.99
70.92
73.04
73.80
75.85
80.91
89.18
99.41
109.24
115.97
117.56
112.90
102.43
88.17
73.41
61.79
56.29
58.16
63.77
68.46
67.63
59.48
46.25
32.57
22.35
16.64
13.61
10.00
3.46
-6.80
-19.74
-33.64
-46.91
-57.96
-64.65
-64.72
-56.98
-42.05
-23.75
-7.67
1.19
1.00
-5.78
-13.36
-15.78
-10.12
2.73
18.14
31.36
39.63
42.16
38.41
27.02
6.43
-23.10
-57.29
-89.30
-111.44
-118.36
-109.74
-90.61
-68.80
-51.26
-41.49
-36.92
-32.61
-22.52
-3.13
24.31
54.00
78.73
93.09
94.29
83.49
64.77
43.74
25.05
11.00
1.01
-7.20
-16.68
-30.76
-51.03
-76.73
-104.76
-131.11
-149.34
-154.62
-144.61
-116.82
-75.91
-31.64
5.63
29.67
39.80
39.04
31.10
19.29
6.48
-4.82
-11.48
-11.06
-3.77
7.13
15.96
16.77
6.53
-13.44
-38.29
-61.04
-75.22
-76.73
-64.51
-39.97
-6.02
33.73
73.92
108.04
130.06
135.85
124.38
97.78
60.22
16.58
-28.26
-69.72
-103.57
-126.03
-134.75
-129.77
-113.97
-92.40
-70.53
-52.43
-39.78
-31.91
-26.90
-22.86
-18.71
-14.26
-9.77
-5.48
-1.32
2.98
7.66
12.77
18.08
23.07
27.05
29.39
29.79
28.49
26.22
24.19
23.67
25.64
30.53
37.98
47.00
56.25
64.44
70.84
75.39
78.54
80.80
82.33
82.68
81.17
77.29
71.12
63.43
55.30
47.70
41.08
35.48
30.81
27.28
25.55
26.55
31.09
39.41
50.83
63.70
75.74
84.51
88.06
85.31
76.22
61.75
43.53
23.65
4.38
-12.07
-23.79
-29.62
-29.55
-24.75
-17.29
-9.43
-2.89
1.53
3.81
4.28
3.21
0.74
-2.93
-7.32
-11.59
-14.92
-16.82
-17.41
-17.21
-16.86
-16.91
-17.67
-19.32
-21.93
-25.36
-29.16
-32.54
-34.65
-34.86
-32.99
-29.26
-23.99
-17.45
-9.98
-1.98
5.84
12.49
17.36
20.34
21.79
22.30
22.43
22.56
22.81
23.18
23.48
23.41
22.54
20.37
16.78
12.35
8.22
5.60
4.94
5.59
6.21
5.60
3.72
1.91
2.33
6.72
15.47
27.35
40.20
51.99
61.42
68.33
73.16
76.20
77.58
77.37
75.91
73.64
70.84
67.34
62.57
56.06
47.88
38.64
29.13
19.63
9.42
-2.90
-18.82
-39.01
-62.78
-88.28
-113.04
-134.81
-152.28
-165.32
-174.68
-181.45
-186.60
-190.57
-193.29
-194.27
-192.65
-187.20
-176.43
-158.70
-132.67
-98.35
-58.01
-16.34
20.73
48.15
63.82
69.23
68.52
66.18
64.99
65.26
65.59
64.59
62.09
59.51
58.89
61.54
67.21
74.33
81.11
86.61
91.15
95.58
100.99
107.94
116.05
123.79
129.15
130.45
126.92
118.68
105.50
87.41
64.52
37.06
5.78
-27.82
-61.59
-93.48
-122.29
-149.49
-176.86
-205.65
-236.06
-267.07
-296.91
-323.86
-346.78
-364.98
-379.19
-387.92
-387.39
-373.18
-342.83
-297.90
-244.28
-189.88
-130.58
-65.54
5.42
80.36
154.02
218.86
267.57
296.07
305.80
304.17
297.20
289.10
281.15
271.78
258.75
241.00
219.38
196.39
173.77
151.16
128.07
103.89
77.74
49.82
22.23
-1.30
-16.03
-19.13
-11.33
4.22
21.92
34.27
34.97
21.44
-4.14
-34.86
-63.25
-83.40
-92.22
-84.58
-61.46
-29.81
0.78
18.51
24.15
21.61
13.56
3.32
-8.14
-20.95
-34.14
-44.91
-49.48
-44.05
-28.03
-3.24
27.12
59.07
88.22
111.30
126.80
135.10
138.49
138.71
136.60
131.69
122.05
105.41
81.47
53.32
26.70
7.82
-0.51
-0.01
3.99
5.02
-2.03
-19.22
-45.66
-78.62
-114.44
-149.07
-177.70
-195.13
-197.66
-185.33
-162.93
-138.92
-122.21
-118.65
-129.10
-149.54
-173.38
-194.34
-208.40
-214.29
-212.67
-205.06
-193.00
-177.73
-160.34
-141.93
-123.77
-107.23
-93.66
-84.00
-78.36
-75.42
-72.19
-64.72
-49.33
-24.20
9.54
47.77
84.75
115.04
135.39
145.50
147.58
145.05
141.11
137.79
135.71
134.44
133.00
130.31
125.31
117.16
105.26
89.42
69.99
47.93
24.88
2.96
-15.52
-28.52
-34.80
-34.21
-27.59
-16.48
-2.60
12.57
27.86
42.44
55.65
66.96
76.08
83.03
88.21
92.15
95.19
97.22
97.75
96.22
92.52
87.31
81.76
76.91
73.08
69.68
65.68
60.53
54.71
49.69
47.30
48.80
54.32
62.79
72.42
81.21
87.58
90.56
89.90
85.93
79.47
71.44
62.57
53.30
43.72
33.85
23.73
13.41
2.88
-8.00
-19.35
-31.13
-42.98
-54.28
-64.36
-72.75
-79.42
-84.18
-86.32
-84.53
-77.58
-65.18
-48.67
-31.08
-16.44
-9.03
-11.33
-23.07
-41.19
-61.05
-78.07
-89.40
-94.45
-94.77
-93.83
-94.80
-99.37
-107.44
-117.84
-128.91
-139.50
-148.69
-156.05
-162.41
-168.60
-175.10
-181.95
-188.89
-195.13
-199.85
-202.03
-193.90
-171.16
-134.63
-90.25
-44.68
-0.96
42.16
85.60
130.61
174.94
213.12
240.65
256.31
262.68
260.16
250.72
235.90
217.20
196.38
174.95
155.53
141.49
135.99
140.54
154.26
173.19
191.44
202.25
198.84
177.42
138.90
89.15
37.08
-8.15
-40.42
-57.92
-63.23
-62.97
-64.35
-72.69
-90.13
-115.71
-146.54
-179.65
-212.64
-237.48
-248.07
-242.02
-221.44
-190.53
-152.94
-112.17
-73.09
-41.65
-22.82
-19.14
-27.93
-42.35
-55.90
-63.49
-64.32
-61.02
-56.77
-52.78
-48.39
-40.85
-27.69
-8.22
16.35
43.73
72.53
102.85
135.66
168.88
198.13
216.70
218.47
201.75
170.11
130.73
90.88
56.68
27.21
1.04
-21.86
-39.39
-48.26
-46.36
-34.76
-17.08
0.11
10.37
11.13
3.97
-7.01
-17.77
-26.17
-32.10
-36.18
-38.12
-36.16
-27.53
-10.93
12.14
36.19
54.02
59.69
50.49
26.88
-8.30
-50.17
-92.75
-131.47
-163.48
-186.76
-200.69
-206.05
-204.76
-198.82
-189.72
-178.59
-164.12
-146.23
-124.91
-100.34
-72.94
-43.52
-13.04
17.44
46.67
72.79
93.06
104.90
106.70
98.88
84.33
67.79
54.07
46.00
43.22
42.52
40.09
33.40
22.61
10.23
-0.25
-6.12
-6.54
-2.63
3.38
9.48
14.50
18.25
21.06
23.27
24.83
25.21
23.62
19.32
12.12
2.64
-7.55
-16.35
-21.84
-23.03
-20.24
-14.87
-8.75
-3.24
1.28
5.25
9.36
13.99
18.96
23.77
28.11
32.14
36.41
41.47
47.38
53.58
59.06
62.81
64.09
62.48
57.70
49.32
36.93
20.48
0.93
-19.57
-37.95
-51.24
-57.49
-56.40
-49.23
-38.00
-24.68
-10.62
3.47
17.14
29.79
40.41
47.80
50.92
49.36
43.78
35.95
28.49
24.15
24.72
30.09
37.88
44.12
44.77
37.38
22.07
1.53
-20.12
-38.83
-51.85
-57.97
-57.17
-49.83
-36.25
-16.68
8.24
36.78
65.90
91.63
110.12
118.86
117.70
109.10
97.17
86.11
78.50
74.38
71.76
67.90
60.82
49.99
36.00
19.71
1.38
-19.05
-41.07
-62.68
-80.50
-90.95
-91.91
-83.90
-69.95
-54.29
-40.63
-30.83
-24.62
-20.28
-15.82
-9.92
-2.31
6.37
15.09
22.96
29.21
32.88
32.30
25.27
9.84
-14.26
-44.55
-75.84
-101.79
-117.47
-121.49
-116.52
-107.79
-100.50
-97.40
-97.83
-98.47
-95.16
-84.60
-65.31
-37.47
-2.21
38.89
83.76
129.56
172.45
207.92
231.73
241.01
235.09
215.56
185.59
149.32
111.22
75.78
47.06
27.88
18.91
18.10
21.19
23.14
20.11
10.86
-3.14
-18.65
-32.33
-41.97
-46.84
-47.34
-44.45
-39.29
-33.18
-27.60
-24.04
-23.54
-26.36
-31.76
-38.31
-44.33
-48.30
-49.14
-46.17
-39.09
-28.10
-13.92
2.15
18.44
33.31
45.54
54.54
60.31
63.04
63.00
60.32
55.10
47.63
38.54
28.80
19.42
11.22
4.48
-1.05
-6.01
-11.06
-16.65
-22.89
-29.58
-36.41
-43.16
-49.82
-56.53
-63.43
-70.44
-77.13
-82.93
-87.24
-89.78
-90.67
-90.33
-89.26
-87.79
-86.00
-83.73
-80.71
-76.63
-71.07
-63.50
-53.38
-40.48
-25.22
-8.78
7.18
21.03
31.75
39.21
43.98
46.88
48.52
49.07
48.37
46.31
43.08
39.25
35.60
32.81
31.22
30.74
30.93
31.10
30.40
27.88
22.49
13.34
-0.07
-17.47
-37.61
-58.29
-76.69
-89.86
-95.33
-91.76
-79.34
-60.04
-37.25
-14.99
3.14
14.81
19.27
17.12
9.68
-1.51
-14.84
-28.48
-40.29
-48.01
-50.01
-45.97
-37.22
-26.29
-15.71
-6.86
0.61
8.50
18.95
33.17
50.63
69.11
85.41
96.56
100.84
98.24
90.25
79.17
67.36
56.71
48.34
42.61
39.16
37.10
35.30
32.75
28.84
23.66
17.83
12.27
7.78
4.80
3.36
3.21
3.96
5.18
6.40
7.10
6.78
5.10
2.01
-2.38
-7.98
-14.88
-23.45
-34.01
-46.55
-60.33
-73.94
-85.64
-93.91
-97.92
-97.71
-94.03
-87.87
-80.02
-70.85
-60.24
-47.95
-33.91
-18.56
-2.73
12.57
26.55
38.84
49.52
58.88
67.15
74.29
80.08
84.27
86.76
87.69
87.37
86.21
84.58
82.78
80.99
79.26
77.56
75.79
73.90
71.95
70.07
68.23
66.21
63.59
59.98
55.30
49.84
44.16
38.85
34.16
30.00
26.01
21.80
17.18
12.22
7.14
2.24
-2.30
-6.41
-10.21
-13.92
-17.81
-22.07
-26.69
-31.39
-35.77
-39.53
-42.64
-45.41
-48.34
-52.00
-56.67
-62.29
-68.31
-73.74
-77.35
-77.95
-74.80
-67.91
-58.11
-46.80
-35.41
-25.04
-16.12
-8.56
-2.01
3.84
9.18
14.08
18.62
22.90
27.02
30.92
34.42
37.25
39.14
39.99
39.88
39.07
37.95
36.96
36.53
36.91
38.13
39.82
41.36
42.06
41.47
39.52
36.61
33.36
30.34
27.85
25.88
24.10
22.04
19.08
14.45
7.35
-2.92
-16.55
-32.98
-50.89
-68.48
-84.08
-96.62
-105.84
-112.00
-115.53
-116.47
-114.47
-108.97
-99.73
-87.07
-71.99
-55.78
-39.57
-24.01
-9.29
4.62
17.62
29.32
39.16
46.66
51.78
54.89
56.65
57.62
58.07
57.87
56.69
54.21
50.36
45.38
39.85
34.50
30.00
26.80
24.92
24.04
23.53
22.77
21.33
19.11
16.30
13.23
10.23
7.46
4.97
2.68
0.44
-1.90
-4.46
-7.30
-10.38
-13.56
-16.63
-19.36
-21.62
-23.53
-25.45
-27.92
-31.47
-36.28
-42.06
-47.97
-52.85
-55.58
-55.37
-52.05
-46.04
-38.14
-29.25
-20.09
-11.10
-2.50
5.62
13.16
19.96
25.83
30.65
34.44
37.39
39.80
41.94
43.92
45.66
46.96
47.63
47.59
46.93
45.81
44.39
42.77
40.96
39.01
36.97
34.97
33.12
31.41
29.69
27.66
25.05
21.69
17.63
13.06
8.23
3.39
-1.35
-6.00
-10.68
-15.53
-20.59
-25.86
-31.15
-36.28
-41.08
-45.54
-49.79
-54.08
-58.75
-64.07
-70.19
-77.00
-83.99
-90.33
-94.88
-96.56
-94.52
-88.53
-78.90
-66.48
-52.31
-37.34
-22.36
-7.98
5.32
17.08
26.91
34.59
40.14
43.86
46.26
47.85
49.02
49.94
50.56
50.70
50.20
49.00
47.15
44.82
42.24
39.65
37.27
35.24
33.51
31.92
30.11
27.70
24.43
20.20
15.14
9.43
3.21
-3.49
-10.65
-18.09
-25.37
-31.84
-36.93
-40.46
-42.80
-44.76
-47.16
-50.60
-55.14
-60.44
-65.88
-70.77
-74.34
-75.77
-74.28
-69.32
-60.94
-49.87
-37.50
-25.31
-14.41
-5.11
3.00
10.66
18.45
26.47
34.26
41.17
46.63
50.51
53.08
54.72
55.71
56.02
55.41
53.70
51.00
47.78
44.72
42.29
40.55
39.10
37.29
34.62
30.99
26.78
22.69
19.32
16.94
15.30
13.77
11.69
8.60
4.45
-0.50
-5.92
-11.63
-17.61
-23.93
-30.44
-36.72
-42.20
-46.45
-49.52
-52.06
-55.08
-59.36
-65.01
-71.24
-76.54
-79.27
-78.21
-73.11
-64.60
-54.03
-42.86
-32.26
-22.81
-14.54
-7.21
-0.57
5.50
10.94
15.66
19.67
23.12
26.18
28.97
31.45
33.54
35.14
36.29
37.14
37.81
38.35
38.74
38.90
38.81
38.54
38.08
37.30
35.93
33.57
29.96
25.05
19.08
12.42
5.39
-1.85
-9.35
-17.21
-25.38
-33.54
-41.18
-47.73
-52.82
-56.42
-58.87
-60.75
-62.67
-65.13
-68.32
-72.12
-76.07
-79.46
-81.43
-81.17
-78.09
-71.98
-63.11
-52.14
-39.98
-27.53
-15.54
-4.50
5.40
14.15
21.84
28.60
34.59
39.88
44.53
48.52
51.76
54.14
55.50
55.82
55.20
53.95
52.45
51.02
49.79
48.63
47.26
45.38
42.79
39.54
35.86
32.06
28.32
24.64
20.84
16.64
11.87
6.51
0.79
-4.95
-10.34
-15.13
-19.26
-22.89
-26.30
-29.89
-34.03
-38.91
-44.37
-49.86
-54.44
-57.03
-56.76
-53.27
-46.87
-38.37
-28.88
-19.34
-10.37
-2.08
5.70
13.21
20.54
27.55
33.92
39.31
43.48
46.39
48.11
48.75
48.46
47.35
45.69
43.80
42.12
40.94
40.40
40.33
40.36
40.08
39.16
37.45
35.00
31.94
28.47
24.77
20.96
17.07
13.07
8.82
4.23
-0.73
-5.97
-11.36
-16.73
-22.03
-27.34
-32.87
-38.89
-45.61
-52.98
-60.63
-67.81
-73.47
-76.58
-76.29
-72.30
-64.91
-54.95
-43.50
-31.64
-20.09
-9.20
1.05
10.82
20.29
29.45
38.11
45.93
52.49
57.45
60.63
62.04
61.94
60.82
59.25
57.82
56.89
56.49
56.39
56.11
55.22
53.45
50.79
47.36
43.47
39.53
36.04
33.54
32.43
32.75
34.05
35.41
35.78
34.51
31.61
27.72
23.74
20.33
17.55
14.82
11.24
5.98
-1.51
-11.31
-23.09
-36.01
-48.72
-59.38
-65.95
-66.72
-60.88
-48.86
-32.22
-13.08
6.48
24.95
41.42
55.43
66.74
75.25
81.13
84.89
87.24
88.69
89.09
87.52
82.65
73.49
60.16
44.09
27.60
12.95
1.55
-6.46
-11.91
-16.03
-19.69
-23.28
-26.80
-30.37
-34.41
-39.52
-46.22
-54.38
-63.10
-70.87
-76.12
-77.79
-75.74
-70.67
-63.75
-55.91
-47.50
-38.39
-28.26
-17.26
-6.32
3.09
9.49
12.05
10.96
7.28
2.56
-1.61
-3.73
-2.34
3.86
15.67
32.85
53.88
76.13
96.56
112.68
123.10
127.65
126.87
121.42
111.70
97.93
80.61
60.82
40.31
21.05
4.74
-7.66
-16.08
-21.08
-23.60
-24.55
-24.68
-24.48
-24.33
-24.58
-25.55
-27.49
-30.44
-34.23
-38.55
-43.08
-47.70
-52.53
-57.84
-63.88
-70.71
-78.03
-85.28
-91.82
-97.19
-101.23
-104.05
-105.90
-106.96
-107.17
-106.29
-104.01
-100.02
-94.17
-86.52
-77.28
-66.79
-55.44
-43.72
-32.06
-20.88
-10.50
-1.18
6.95
13.86
19.59
24.17
27.49
29.48
30.22
29.96
28.99
27.58
25.81
23.62
20.84
17.15
12.47
6.94
0.86
-5.51
-11.98
-18.43
-24.77
-30.99
-37.64
-45.01
-53.11
-61.78
-70.92
-80.62
-91.07
-102.38
-114.47
-128.11
-143.19
-159.06
-175.04
-191.12
-207.96
-226.31
-246.30
-267.05
-288.52
-309.15
-326.52
-338.52
-344.30
-344.38
-339.75
-331.02
-317.89
-301.69
-281.87
-256.31
-222.44
-178.06
-121.98
-54.25
23.37
118.18
224.58
328.82
415.61
475.96
510.13
523.40
520.89
505.41
481.44
448.55
408.80
366.85
326.51
288.94
252.25
213.76
171.92
129.02
87.81
52.82
27.96
13.01
4.19
-4.14
-16.21
-33.56
-54.53
-76.95
-97.34
-106.20
-98.31
-74.57
-41.76
-8.45
17.83
32.15
31.03
13.80
-16.53
-54.40
-91.72
-123.39
-143.58
-150.19
-145.60
-135.92
-127.61
-123.64
-123.60
-123.81
-119.44
-106.66
-85.27
-56.43
-26.27
-3.03
8.11
6.52
-2.42
-8.83
-1.46
27.72
81.56
157.14
244.96
331.19
399.56
436.92
437.58
403.95
344.11
269.96
199.46
139.02
92.39
59.96
38.95
25.08
14.71
5.78
-1.66
-6.25
-9.29
-13.99
-25.09
-44.99
-72.13
-100.56
-124.94
-143.86
-160.72
-182.23
-208.85
-237.12
-259.66
-267.77
-255.91
-224.86
-180.80
-132.10
-85.86
-44.53
-5.34
32.48
67.12
95.53
116.05
130.21
141.62
153.06
165.18
177.55
187.67
194.10
197.16
198.02
197.51
195.21
189.43
178.41
159.43
132.00
98.11
61.65
27.21
-1.05
-20.77
-32.07
-37.35
-40.64
-46.30
-57.60
-76.20
-102.18
-134.59
-171.70
-211.19
-250.13
-285.20
-313.32
-332.25
-341.15
-340.70
-332.57
-318.57
-300.01
-277.29
-250.18
-218.40
-182.22
-142.91
-102.63
-63.93
-28.94
1.11
26.05
46.44
63.09
76.55
86.99
94.46
99.17
101.64
102.59
102.77
102.72
102.81
103.30
104.36
106.03
108.05
109.86
110.67
109.83
106.96
102.12
95.58
87.78
79.12
69.96
60.61
51.36
42.48
34.07
25.94
17.64
8.55
-1.79
-13.36
-25.46
-36.70
-45.34
-49.93
-49.71
-44.90
-36.55
-26.11
-14.96
-4.09
6.01
15.18
23.41
30.65
36.86
42.03
46.21
49.56
52.23
54.29
55.67
56.25
55.92
54.77
53.10
51.30
49.66
48.19
46.70
44.86
42.45
39.50
36.16
32.69
29.29
26.02
22.75
19.28
15.29
10.47
4.59
-2.44
-10.35
-18.69
-26.79
-34.14
-40.51
-46.14
-51.61
-57.58
-64.50
-72.27
-80.23
-87.25
-92.03
-93.52
-91.12
-84.77
-74.84
-62.00
-47.13
-31.25
-15.46
-0.76
12.15
23.05
32.23
40.22
47.46
54.03
59.56
63.56
65.72
66.15
65.37
64.03
62.60
61.16
59.53
57.39
54.59
51.10
47.06
42.56
37.62
32.25
26.63
20.98
15.50
10.17
4.68
-1.44
-8.56
-16.66
-25.31
-33.86
-41.76
-48.82
-55.28
-61.71
-68.65
-76.39
-84.71
-92.88
-99.78
-104.12
-104.83
-101.29
-93.53
-82.16
-68.15
-52.58
-36.42
-20.41
-5.10
9.14
22.09
33.65
43.82
52.61
60.00
65.97
70.43
73.36
74.83
75.08
74.43
73.27
71.99
70.87
70.08
69.70
69.67
69.89
70.20
70.42
70.28
69.52
67.98
65.67
62.82
59.78
56.84
54.04
51.12
47.65
43.26
37.84
31.60
24.94
18.23
11.61
4.80
-2.71
-11.46
-21.72
-33.19
-44.99
-55.74
-63.98
-68.51
-68.75
-64.81
-57.40
-47.55
-36.27
-24.31
-12.17
-0.11
11.65
22.89
33.35
42.67
50.51
56.58
60.78
63.27
64.52
65.16
65.83
66.87
68.23
69.56
70.43
70.69
70.51
70.28
70.30
70.47
70.26
68.93
65.89
60.93
54.29
46.43
37.83
28.83
19.55
10.06
0.44
-9.05
-18.01
-25.99
-32.69
-37.97
-41.97
-45.04
-47.59
-50.01
-52.56
-55.38
-58.61
-62.40
-66.80
-71.56
-76.04
-79.23
-80.11
-78.00
-72.93
-65.60
-57.04
-48.15
-39.42
-30.85
-22.22
-13.39
-4.55
3.82
11.18
17.15
21.58
24.53
26.12
26.51
25.82
24.18
21.83
19.06
16.21
13.53
11.12
8.88
6.57
3.90
0.67
-3.13
-7.28
-11.38
-15.07
-18.09
-20.48
-22.53
-24.67
-27.23
-30.39
-34.11
-38.18
-42.36
-46.39
-50.11
-53.49
-56.73
-60.26
-64.64
-70.31
-77.24
-84.72
-91.39
-95.64
-96.12
-92.20
-84.11
-72.71
-59.07
-44.22
-28.89
-13.61
1.18
15.07
27.71
38.81
48.28
56.09
62.30
66.97
70.21
72.15
72.99
73.01
72.42
71.42
70.13
68.60
66.90
65.08
63.19
61.19
58.97
56.34
53.09
49.09
44.40
39.23
33.88
28.60
23.49
18.44
13.24
7.67
1.63
-4.87
-11.67
-18.54
-25.20
-31.43
-37.07
-42.15
-46.87
-51.63
-56.91
-63.07
-70.11
-77.51
-84.26
-89.05
-90.72
-88.59
-82.66
-73.61
-62.46
-50.30
-37.94
-25.88
-14.32
-3.34
7.01
16.62
25.35
33.11
39.85
45.52
50.07
53.45
55.54
56.31
55.85
54.45
52.66
51.06
50.14
50.07
50.62
51.23
51.23
50.12
47.69
44.13
39.79
35.14
30.53
26.16
22.12
18.33
14.61
10.67
6.19
0.92
-5.20
-11.93
-18.81
-25.30
-30.97
-35.76
-39.98
-44.17
-48.85
-54.28
-60.34
-66.55
-72.23
-76.57
-78.84
-78.47
-75.09
-68.73
-59.79
-49.05
-37.43
-25.72
-14.46
-3.80
6.28
15.78
24.58
32.45
39.28
45.18
50.45
55.36
59.93
63.87
66.74
68.22
68.29
67.16
65.12
62.29
58.58
53.83
48.04
41.45
34.46
27.50
20.76
14.20
7.68
1.02
-5.81
-12.83
-19.92
-26.92
-33.64
-40.04
-46.34
-53.13
-61.19
-71.08
-82.79
-95.52
-107.94
-118.67
-126.78
-131.96
-134.35
-134.07
-130.92
-124.44
-114.28
-100.65
-84.27
-66.13
-46.87
-26.62
-5.41
16.17
36.43
52.89
63.36
67.18
65.75
62.02
58.98
58.18
59.10
59.70
57.90
52.95
45.93
39.15
34.98
34.65
37.92
43.43
49.47
54.77
58.79
61.67
63.75
65.28
66.16
66.01
64.46
61.30
56.60
50.66
43.90
36.64
29.04
20.98
12.14
2.09
-9.58
-23.07
-38.19
-54.28
-70.21
-84.58
-96.01
-103.44
-106.44
-105.27
-100.71
-93.80
-85.42
-76.20
-66.44
-56.42
-46.44
-36.91
-28.16
-20.32
-13.21
-6.52
0.03
6.52
12.77
18.47
23.41
27.57
31.16
34.49
37.87
41.46
45.24
49.01
52.45
55.11
56.62
56.67
55.16
52.16
47.81
42.36
36.00
28.84
20.95
12.40
3.34
-5.98
-15.23
-24.05
-32.15
-39.39
-45.86
-51.90
-58.00
-64.61
-71.94
-79.79
-87.44
-93.87
-98.00
-99.03
-96.81
-91.77
-84.78
-76.78
-68.56
-60.56
-52.98
-45.92
-39.48
-33.75
-28.71
-24.30
-20.33
-16.74
-13.55
-10.89
-8.80
-7.16
-5.76
-4.37
-3.02
-1.96
-1.60
-2.26
-3.92
-6.31
-9.17
-12.46
-16.48
-21.78
-28.91
-38.16
-49.37
-61.92
-75.03
-88.08
-100.79
-113.25
-125.83
-138.96
-153.02
-168.22
-184.33
-200.81
-216.74
-230.88
-241.63
-247.38
-246.81
-239.23
-224.49
-202.12
-171.67
-132.74
-85.39
-30.58
29.55
91.68
152.03
207.26
256.57
300.53
340.20
376.12
407.98
434.79
455.33
468.70
474.60
475.33
473.53
471.01
468.54
466.01
462.73
457.40
448.01
432.11
409.97
382.78
351.89
318.91
285.90
255.29
229.22
208.50
177.37
125.89
51.57
-40.13
-138.77
-233.89
-317.44
-384.36
-432.35
-461.77
-476.23
-477.19
-465.89
-443.81
-413.02
-375.99
-335.77
-295.76
-259.05
-225.75
-193.59
-161.71
-130.19
-99.85
-71.73
-46.56
-24.50
-5.20
12.95
31.23
49.15
65.08
77.35
85.33
89.72
91.83
92.73
93.09
93.07
92.20
90.35
88.04
86.05
84.82
83.97
82.49
79.47
74.64
68.20
60.52
51.58
40.68
26.94
10.02
-9.09
-28.20
-44.62
-56.45
-63.33
-66.52
-68.24
-70.82
-75.96
-84.52
-96.48
-111.05
-126.66
-141.03
-151.55
-156.00
-153.30
-143.95
-129.72
-112.86
-95.34
-78.38
-62.50
-47.82
-34.28
-21.90
-10.65
-0.39
9.13
18.13
26.64
34.43
40.99
45.80
48.49
49.09
48.12
46.41
44.88
44.12
44.20
44.66
44.83
44.17
42.63
40.51
38.26
36.19
34.24
32.07
29.25
25.50
20.82
15.39
9.49
3.40
-2.63
-8.32
-13.45
-18.02
-22.40
-27.21
-33.08
-40.18
-47.96
-55.22
-60.49
-62.49
-60.55
-54.68
-45.40
-33.49
-19.87
-5.45
8.84
22.09
33.57
42.82
49.71
54.46
57.48
59.28
60.29
60.86
61.16
61.26
61.15
60.78
60.05
58.85
57.02
54.43
51.10
47.20
43.04
39.03
35.44
32.43
29.89
27.54
25.04
21.99
18.19
13.58
8.30
2.60
-3.26
-9.11
-14.92
-20.77
-26.85
-33.43
-40.73
-48.70
-56.83
-64.03
-68.78
-69.64
-65.76
-57.21
-44.99
-30.57
-15.36
-0.39
13.73
26.65
38.01
47.41
54.58
59.49
62.51
64.17
65.03
65.38
65.21
64.27
62.26
59.12
55.18
51.07
47.62
45.37
44.40
44.22
44.05
43.10
41.01
37.81
33.89
29.65
25.31
20.84
16.05
10.73
4.82
-1.60
-8.31
-14.98
-21.34
-27.23
-32.72
-38.10
-43.85
-50.42
-58.04
-66.59
-75.42
-83.49
-89.57
-92.50
-91.50
-86.35
-77.47
-65.75
-52.32
-38.32
-24.61
-11.73
0.08
10.84
20.68
29.66
37.79
44.89
50.71
54.96
57.51
58.43
58.01
56.68
54.82
52.75
50.63
48.57
46.66
45.00
43.65
42.57
41.53
40.14
38.00
34.88
30.83
26.22
21.60
17.43
13.86
10.71
7.58
4.13
0.21
-4.10
-8.66
-13.35
-18.19
-23.28
-28.64
-34.18
-39.86
-45.81
-52.40
-60.07
-68.90
-78.37
-87.23
-93.93
-97.04
-95.87
-90.56
-81.98
-71.28
-59.46
-47.17
-34.70
-22.17
-9.72
2.35
13.57
23.49
31.73
38.10
42.64
45.62
47.42
48.50
49.29
50.08
51.01
52.02
52.94
53.59
53.79
53.47
52.66
51.41
49.76
47.70
45.06
41.62
37.11
31.36
24.34
16.28
7.58
-1.25
-9.75
-17.62
-24.70
-31.01
-36.58
-41.44
-45.64
-49.24
-52.41
-55.37
-58.45
-62.02
-66.32
-71.37
-76.81
-81.81
-85.24
-85.90
-82.94
-76.16
-66.14
-54.05
-41.37
-29.40
-19.09
-10.88
-4.80
-0.60
2.18
4.14
5.89
7.88
10.33
13.14
15.98
18.52
20.64
22.47
24.39
26.78
29.88
33.71
38.11
42.79
47.41
51.60
55.02
57.39
58.62
58.79
58.02
56.34
53.51
49.11
42.77
34.38
24.30
13.24
2.01
-8.72
-18.65
-27.76
-36.15
-43.93
-51.17
-58.03
-64.66
-71.15
-77.29
-82.40
-85.51
-85.62
-82.15
-75.20
-65.56
-54.36
-42.70
-31.28
-20.35
-9.93
0.00
9.36
17.93
25.51
32.01
37.49
42.04
45.72
48.53
50.42
51.43
51.73
51.61
51.40
51.32
51.40
51.52
51.41
50.76
49.29
46.88
43.62
39.83
36.00
32.59
29.88
27.79
25.87
23.52
20.25
15.83
10.47
4.60
-1.28
-6.81
-11.93
-16.81
-21.75
-26.96
-32.49
-38.21
-43.87
-49.14
-53.61
-56.86
-58.41
-57.81
-54.75
-49.24
-41.65
-32.67
-23.07
-13.53
-4.54
3.70
11.14
17.74
23.50
28.46
32.67
36.24
39.28
41.77
43.62
44.75
45.09
44.76
43.96
42.91
41.73
40.43
38.97
37.26
35.30
33.03
30.42
27.36
23.73
19.41
14.42
8.95
3.37
-1.84
-6.32
-9.90
-12.75
-15.18
-17.54
-19.98
-22.34
-24.29
-25.50
-25.93
-25.89
-26.02
-26.97
-29.19
-32.73
-37.25
-42.05
-46.23
-48.89
-49.17
-46.50
-40.70
-32.09
-21.47
-9.98
1.22
11.18
19.43
26.02
31.33
35.74
39.27
41.37
41.10
37.63
30.92
21.96
12.81
5.97
3.57
6.58
14.45
25.28
36.48
45.70
51.56
53.90
53.49
51.56
49.28
47.48
46.64
46.94
48.38
50.75
53.63
56.43
58.58
59.69
59.49
57.61
53.49
46.45
36.16
23.17
8.96
-4.49
-15.53
-23.62
-29.56
-35.07
-41.87
-50.93
-62.10
-74.27
-85.93
-95.71
-102.68
-106.33
-106.50
-103.24
-96.82
-87.83
-77.20
-66.28
-56.54
-49.41
-45.75
-45.73
-48.84
-54.27
-61.35
-69.90
-80.12
-92.25
-106.24
-121.61
-137.71
-153.95
-170.06
-185.80
-200.78
-214.12
-224.41
-230.02
-229.55
-222.29
-208.30
-188.30
-163.29
-134.55
-103.38
-71.08
-38.99
-8.51
19.11
42.91
62.69
78.99
92.59
104.29
114.72
124.23
133.09
141.69
150.80
161.61
175.22
191.31
208.46
224.81
239.06
251.12
262.00
273.23
286.05
300.67
314.62
324.06
325.16
315.42
294.12
261.79
219.61
169.07
111.87
48.29
-21.40
-95.96
-172.58
-247.18
-315.70
-374.83
-422.50
-447.47
-440.88
-400.67
-334.52
-256.68
-180.69
-114.86
-61.75
-20.35
11.81
35.34
49.54
53.66
48.06
35.04
17.30
-2.13
-20.61
-36.07
-48.86
-61.05
-75.00
-92.40
-114.04
-140.37
-171.47
-206.70
-244.11
-278.12
-302.46
-310.91
-299.44
-268.08
-221.39
-166.67
-111.10
-59.34
-13.17
27.37
62.84
93.20
117.90
136.69
150.50
161.88
174.44
191.58
214.79
242.96
271.84
295.09
306.10
300.62
278.58
244.47
205.92
170.90
145.51
132.78
132.81
143.75
162.48
184.86
205.84
220.10
223.30
213.74
193.05
165.45
135.84
107.79
82.79
60.68
41.16
25.07
14.59
12.37
20.21
38.23
64.85
97.56
133.63
170.48
205.38
235.04
255.60
263.12
254.73
229.57
189.20
137.11
77.60
14.77
-48.12
-108.43
-163.73
-211.39
-248.89
-274.54
-288.11
-290.99
-285.55
-274.17
-258.37
-238.68
-215.19
-188.35
-159.60
-131.23
-105.76
-84.98
-69.40
-58.20
-49.82
-42.72
-36.21
-30.60
-27.13
-27.25
-31.76
-40.19
-50.43
-59.10
-62.48
-57.98
-45.69
-29.05
-14.43
-9.36
-20.12
-49.47
-95.34
-151.03
-206.93
-253.06
-281.74
-289.41
-276.96
-248.83
-211.16
-169.66
-128.21
-88.51
-50.59
-13.62
23.30
60.78
98.33
134.06
164.70
186.31
195.56
191.37
175.81
153.73
131.30
113.18
100.76
92.48
85.77
79.13
73.83
72.98
79.53
94.19
113.76
132.19
143.68
145.29
137.79
125.32
112.73
103.41
98.73
97.42
97.13
96.49
95.60
95.07
96.34
100.62
102.87
98.71
84.56
57.69
16.47
-40.12
-111.39
-191.66
-274.38
-350.51
-410.56
-448.82
-465.57
-465.17
-449.83
-427.46
-405.79
-388.56
-373.74
-355.08
-326.67
-286.11
-232.44
-168.53
-99.95
-30.47
39.41
111.76
188.69
270.25
354.40
442.12
532.37
619.57
694.47
745.87
763.95
743.62
687.16
583.20
443.08
293.33
161.40
61.94
-5.98
-50.96
-80.97
-98.50
-107.31
-107.80
-103.38
-100.02
-102.15
-109.36
-116.71
-118.78
-113.20
-103.20
-92.75
-87.62
-92.18
-106.70
-126.10
-141.44
-144.99
-134.54
-114.02
-87.80
-60.03
-33.45
-9.63
11.08
28.89
43.72
55.13
62.57
67.01
69.54
70.98
71.56
71.01
69.19
65.89
60.78
53.52
44.56
34.67
24.69
14.89
5.61
-2.91
-10.87
-19.13
-29.07
-42.27
-60.65
-82.00
-106.07
-133.07
-163.14
-195.55
-228.03
-256.61
-276.48
-283.70
-276.79
-257.95
-231.66
-203.09
-176.68
-155.37
-140.53
-132.34
-130.00
-131.70
-135.13
-137.12
-134.52
-125.14
-108.52
-86.32
-62.02
-40.15
-24.93
-18.88
-21.24
-27.55
-30.91
-24.36
-3.88
29.74
71.01
112.08
145.71
167.89
178.43
179.63
174.29
164.04
149.15
129.51
105.94
80.76
57.39
38.96
27.15
21.92
22.11
26.38
33.63
42.74
52.13
59.72
63.57
62.92
58.85
54.00
51.53
53.72
61.03
72.19
84.78
96.19
104.23
107.39
105.14
98.08
87.91
77.05
68.06
62.86
62.29
66.12
73.19
81.77
89.86
95.48
97.04
93.84
86.22
75.36
62.90
50.31
38.79
29.16
21.85
16.65
12.47
7.25
-1.31
-14.62
-32.25
-51.82
-69.91
-83.58
-91.54
-94.44
-94.06
-92.24
-90.23
-88.67
-87.86
-88.12
-89.66
-92.24
-95.02
-96.78
-96.40
-93.42
-88.11
-81.28
-73.86
-66.50
-59.41
-52.38
-45.05
-37.23
-29.26
-21.88
-15.96
-12.04
-10.00
-9.06
-8.28
-7.01
-5.23
-3.42
-2.07
-1.34
-1.02
-0.76
-0.53
-0.81
-2.38
-5.91
-11.63
-19.14
-27.57
-35.96
-43.63
-50.35
-56.28
-61.66
-66.45
-70.09
-71.66
-70.20
-65.13
-56.55
-45.15
-31.89
-17.60
-2.75
12.40
27.56
42.18
55.48
66.60
74.97
80.42
83.21
83.89
83.09
81.42
79.40
77.45
75.82
74.63
73.84
73.34
72.98
72.63
72.06
70.96
69.01
66.04
62.13
57.58
52.71
47.67
42.28
36.27
29.52
22.30
15.18
8.71
3.11
-1.89
-6.87
-12.29
-18.19
-24.15
-29.53
-33.92
-37.36
-40.37
-43.68
-47.97
-53.64
-60.73
-68.83
-77.09
-84.31
-89.06
-90.12
-86.82
-79.39
-68.81
-56.54
-44.00
-32.20
-21.60
-12.20
-3.80
3.81
10.68
16.76
21.90
25.98
28.98
30.99
32.22
32.93
33.41
33.91
34.71
36.05
38.08
40.70
43.51
45.81
46.88
46.25
43.98
40.59
36.76
33.03
29.49
25.84
21.71
16.93
11.69
6.42
1.52
-2.87
-6.98
-11.26
-16.16
-22.01
-28.90
-36.65
-44.94
-53.27
-60.94
-67.05
-70.55
-70.35
-65.63
-56.17
-42.54
-26.14
-8.84
7.52
21.68
33.19
42.32
49.70
55.94
61.56
66.92
72.40
78.30
84.69
91.31
97.55
102.76
106.45
108.56
109.33
109.05
107.87
105.66
102.13
96.97
90.01
81.22
70.83
59.27
47.23
35.51
24.85
15.67
7.97
1.34
-4.75
-10.74
-16.81
-22.87
-28.71
-34.13
-39.11
-43.86
-48.83
-54.58
-61.59
-69.96
-79.11
-87.83
-94.41
-97.23
-95.24
-88.43
-77.87
-65.33
-52.69
-41.30
-31.63
-23.29
-15.51
-7.60
0.57
8.60
15.83
21.67
25.96
28.95
31.10
32.80
34.25
35.46
36.37
37.01
37.50
37.97
38.45
38.75
38.53
37.43
35.14
31.52
26.70
21.06
15.10
9.35
4.10
-0.67
-5.29
-10.21
-15.78
-22.03
-28.72
-35.45
-41.89
-48.01
-54.00
-60.15
-66.60
-73.17
-79.22
-83.84
-85.98
-84.78
-79.83
-71.34
-60.11
-47.32
-34.14
-21.41
-9.54
1.49
11.76
21.17
29.31
35.59
39.55
41.13
40.81
39.46
38.01
37.15
37.17
37.94
39.02
39.91
40.15
39.47
37.82
35.36
32.45
29.44
26.58
23.81
20.86
17.28
12.77
7.29
1.07
-5.48
-11.94
-18.06
-23.73
-28.93
-33.71
-38.16
-42.53
-47.20
-52.64
-59.17
-66.66
-74.39
-81.07
-85.22
-85.61
-81.70
-73.87
-63.24
-51.22
-39.05
-27.42
-16.46
-5.92
4.46
14.67
24.44
33.31
40.82
46.65
50.64
52.77
53.18
52.10
49.96
47.34
44.88
43.08
42.14
41.92
42.01
41.89
41.14
39.52
37.04
33.85
30.18
26.22
22.10
17.87
13.53
9.07
4.43
-0.49
-5.76
-11.44
-17.51
-23.86
-30.33
-36.78
-43.17
-49.59
-56.25
-63.35
-70.90
-78.63
-85.84
-91.58
-94.88
-95.08
-92.17
-86.80
-80.14
-73.35
-67.19
-61.72
-56.43
-50.60
-43.62
-35.20
-25.35
-14.23
-2.12
10.52
22.95
34.13
42.95
48.50
50.28
48.41
43.43
36.32
28.31
20.71
14.86
11.72
11.66
14.38
18.95
24.25
29.41
34.09
38.47
43.08
48.38
54.44
60.76
66.33
69.85
70.17
66.63
59.27
48.77
36.31
23.17
10.54
-0.55
-9.34
-15.28
-18.17
-18.17
-15.88
-12.13
-7.77
-3.43
0.65
4.50
8.36
12.38
16.57
20.73
24.55
27.70
29.90
31.02
31.14
30.54
29.61
28.75
28.27
28.29
28.71
29.28
29.63
29.39
28.25
26.03
22.69
18.32
13.18
7.59
1.90
-3.56
-8.61
-13.23
-17.53
-21.72
-26.00
-30.60
-35.67
-41.36
-47.74
-54.84
-62.59
-70.67
-78.53
-85.36
-90.27
-92.41
-91.27
-86.76
-79.25
-69.49
-58.30
-46.43
-34.44
-22.69
-11.45
-0.93
8.72
17.36
24.91
31.39
36.90
41.55
45.48
48.82
51.59
53.76
55.25
56.01
56.10
55.70
55.05
54.31
53.49
52.46
51.05
49.17
46.86
44.24
41.48
38.68
35.90
33.17
30.48
27.77
24.93
21.74
17.98
13.52
8.36
2.61
-3.52
-9.84
-16.16
-22.37
-28.56
-35.04
-42.40
-51.40
-62.63
-76.12
-91.09
-105.98
-118.82
-127.84
-131.91
-130.69
-124.53
-114.12
-100.25
-83.85
-66.01
-48.08
-31.54
-17.75
-7.62
-1.45
1.06
0.61
-1.91
-5.69
-10.00
-14.36
-18.45
-22.23
-25.85
-29.61
-33.73
-38.14
-42.39
-45.89
-48.15
-49.02
-48.90
-48.52
-48.73
-50.20
-53.31
-58.18
-64.69
-72.65
-81.84
-92.10
-103.29
-115.24
-127.50
-139.18
-149.00
-155.49
-157.49
-154.62
-147.42
-137.05
-124.81
-111.74
-98.43
-85.10
-71.66
-57.67
-42.16
-23.67
-0.60
27.98
61.62
98.21
134.47
166.92
193.04
211.85
223.91
230.64
233.57
233.84
232.12
228.82
224.40
219.31
213.87
208.04
201.38
193.31
183.50
172.11
159.84
147.53
135.87
124.99
114.53
103.90
92.63
80.70
68.44
56.40
44.94
34.08
23.46
12.58
1.01
-11.34
-24.12
-36.58
-47.63
-56.15
-61.21
-62.33
-59.55
-53.51
-45.21
-35.76
-26.07
-16.75
-8.05
0.06
7.67
14.88
21.69
28.01
33.67
38.51
42.33
45.03
46.60
47.17
47.05
46.64
46.36
46.49
47.18
48.31
49.60
50.74
51.42
51.50
51.00
50.15
49.24
48.55
48.16
47.92
47.53
46.57
44.85
42.44
39.66
37.00
34.94
33.67
33.11
32.89
32.34
30.71
27.22
21.31
12.84
2.31
-9.26
-20.50
-30.18
-37.63
-42.86
-46.45
-49.14
-51.48
-53.60
-55.43
-56.88
-58.17
-59.75
-62.10
-65.47
-69.71
-74.33
-78.76
-82.55
-85.55
-87.82
-89.55
-90.78
-91.45
-91.38
-90.43
-88.61
-86.13
-83.28
-80.36
-77.49
-74.64
-71.64
-68.41
-65.06
-61.94
-59.41
-57.73
-56.89
-56.59
-56.43
-56.15
-55.86
-56.02
-57.29
-60.14
-64.55
-69.81
-74.73
-77.88
-78.07
-74.62
-67.54
-57.37
-44.97
-31.30
-17.16
-3.27
9.85
21.71
32.06
40.78
47.95
53.75
58.37
61.91
64.37
65.69
65.92
65.28
64.14
62.94
61.97
61.37
61.05
60.81
60.44
59.72
58.47
56.53
53.78
50.15
45.75
40.76
35.42
29.88
24.19
18.30
12.13
5.73
-0.73
-7.03
-13.01
-18.72
-24.43
-30.58
-37.48
-45.10
-52.84
-59.60
-64.05
-64.98
-61.79
-54.57
-44.09
-31.54
-18.18
-5.12
6.83
17.16
25.72
32.64
38.22
42.83
46.71
49.97
52.58
54.53
55.92
56.97
57.98
59.16
60.58
62.14
63.69
65.04
66.03
66.50
66.30
65.35
63.64
61.19
58.03
54.03
48.80
41.74
32.22
19.94
5.16
-11.18
-27.65
-42.79
-55.52
-65.54
-73.28
-79.64
-85.54
-91.46
-97.30
-102.34
-105.62
-106.29
-103.92
-98.71
-91.33
-82.71
-73.61
-64.34
-54.69
-44.09
-32.04
-18.34
-3.28
12.49
28.19
43.23
57.24
70.05
81.67
92.27
102.23
111.95
121.53
130.29
136.79
139.28
136.85
130.27
122.11
115.72
113.44
115.29
118.77
120.18
116.51
106.84
92.44
75.58
57.98
39.89
20.30
-2.02
-27.47
-55.25
-83.73
-111.24
-136.69
-159.51
-179.22
-194.87
-204.97
-207.86
-202.54
-189.30
-169.94
-147.31
-124.51
-103.93
-86.70
-72.61
-60.59
-49.26
-37.62
-25.35
-12.77
-0.62
10.31
19.54
27.04
33.09
38.12
42.46
46.28
49.62
52.52
55.08
57.37
59.30
60.51
60.54
58.96
55.60
50.63
44.43
37.43
30.00
22.31
14.40
6.25
-2.18
-10.90
-19.87
-29.04
-38.24
-47.14
-55.27
-61.95
-66.47
-68.19
-66.82
-62.44
-55.57
-46.95
-37.41
-27.54
-17.77
-8.26
0.84
9.34
16.94
23.35
28.38
31.96
34.20
35.36
35.80
35.89
35.89
35.85
35.54
34.58
32.57
29.31
24.95
19.95
14.83
10.01
5.60
1.45
-2.67
-6.86
-10.98
-14.67
-17.55
-19.33
-19.94
-19.54
-18.49
-17.26
-16.42
-16.48
-17.90
-20.84
-25.01
-29.59
-33.18
-34.22
-31.45
-24.47
-14.12
-2.24
8.91
17.46
22.63
24.85
25.36
25.54
26.22
27.47
28.74
29.42
29.20
28.28
27.17
26.34
25.95
25.82
25.53
24.79
23.58
22.21
21.08
20.46
20.27
20.13
19.55
18.13
15.75
12.59
9.01
5.33
1.76
-1.71
-5.23
-9.04
-13.44
-18.73
-25.08
-32.40
-40.22
-47.59
-53.21
-55.78
-54.33
-48.68
-39.41
-27.65
-14.60
-1.04
12.75
26.78
40.98
54.80
67.31
77.53
84.89
89.46
91.82
92.74
92.74
92.01
90.46
87.95
84.46
80.11
75.13
69.86
64.78
60.54
57.78
56.72
56.67
55.72
51.00
39.68
20.18
-6.90
-38.54
-70.18
-97.27
-116.79
-128.11
-133.00
-134.84
-137.64
-144.91
-158.89
-179.94
-206.25
-234.07
-258.54
-275.05
-280.69
-275.08
-260.36
-240.08
-217.92
-196.62
-177.70
-161.96
-150.01
-142.86
-141.58
-146.48
-156.31
-168.18
-178.17
-182.73
-179.90
-169.70
-153.81
-134.62
-114.08
-93.20
-72.02
-50.04
-26.58
-0.64
29.03
63.00
99.75
134.86
161.58
172.98
164.69
136.79
93.97
44.48
-3.72
-45.31
-78.37
-103.14
-120.21
-129.41
-130.18
-122.00
-103.88
-76.66
-42.90
-6.04
30.86
66.26
100.19
133.24
166.85
204.81
249.78
302.56
361.91
425.30
489.54
550.51
602.58
640.84
664.77
674.86
672.51
659.40
637.72
610.72
581.59
552.14
501.40
417.73
302.47
172.55
51.60
-42.61
-103.70
-131.78
-140.60
-141.34
-138.38
-133.57
-128.07
-124.08
-126.84
-139.01
-161.71
-194.56
-233.78
-272.28
-303.87
-325.78
-339.36
-348.15
-354.69
-361.08
-374.81
-394.51
-415.22
-431.99
-441.36
-442.31
-436.69
-421.23
-397.63
-369.00
-336.48
-300.22
-259.97
-215.49
-166.94
-114.98
-60.23
-4.59
50.04
102.72
151.93
195.64
232.09
260.56
281.72
297.37
308.40
314.74
315.46
308.09
290.10
260.52
220.73
174.41
126.38
80.77
40.65
8.00
-16.67
-33.92
-45.25
-52.95
-59.62
-67.44
-77.70
-89.97
-102.36
-112.60
-118.99
-120.97
-118.98
-113.79
-105.90
-95.61
-83.27
-69.63
-55.84
-42.99
-31.51
-21.00
-10.46
1.08
13.99
27.80
41.44
53.73
63.92
71.94
78.27
83.61
88.43
92.71
96.03
97.83
97.82
96.12
93.17
89.43
85.09
80.02
73.93
66.70
58.54
49.95
41.43
33.23
25.21
16.88
7.69
-2.77
-14.51
-27.03
-39.25
-49.67
-56.63
-58.81
-55.69
-47.78
-36.59
-24.10
-12.29
-2.49
4.89
10.32
14.72
19.00
23.60
28.30
32.44
35.26
36.30
35.66
33.90
31.82
30.00
28.64
27.66
26.89
26.32
26.11
26.40
27.16
28.07
28.65
28.47
27.30
25.15
22.17
18.54
14.54
10.41
6.44
2.72
-0.99
-5.29
-10.89
-18.13
-26.79
-36.00
-44.59
-51.47
-55.94
-57.77
-57.02
-53.93
-48.70
-41.62
-33.01
-23.38
-13.40
-3.78
4.80
11.97
17.63
22.00
25.45
28.27
30.58
32.22
32.85
32.23
30.38
27.54
24.20
20.88
18.03
15.95
14.71
14.06
13.51
12.41
10.14
6.35
1.00
-5.66
-13.26
-21.41
-29.86
-38.45
-47.12
-55.89
-64.71
-73.39
-81.47
-88.14
-92.39
-93.25
-90.13
-83.08
-72.87
-60.69
-47.81
-35.17
-23.19
-11.80
-0.73
10.19
20.71
30.22
37.92
43.19
45.93
46.62
46.20
45.63
45.54
46.03
46.66
46.80
45.88
43.72
40.52
36.75
32.93
29.42
26.40
23.81
21.47
19.18
16.67
13.67
9.92
5.18
-0.69
-7.70
-15.68
-24.35
-33.28
-41.88
-49.47
-55.18
-58.20
-57.88
-53.88
-46.25
-35.40
-21.94
-6.60
9.78
26.26
41.84
55.56
66.77
75.32
81.63
86.54
90.84
95.02
99.06
102.53
104.92
105.89
105.33
103.31
99.88
95.01
88.72
81.26
73.20
65.23
57.74
50.53
42.84
33.81
23.08
11.15
-0.88
-11.93
-21.60
-30.46
-39.53
-49.67
-60.96
-72.76
-84.22
-94.80
-104.38
-112.88
-119.78
-123.96
-124.14
-119.71
-111.29
-100.54
-89.45
-79.38
-70.56
-62.31
-53.80
-44.73
-35.65
-27.52
-21.19
-16.92
-14.42
-13.10
-12.42
-12.01
-11.58
-10.83
-9.44
-7.19
-4.16
-0.68
2.73
5.63
7.70
8.81
8.88
7.87
5.81
2.91
-0.38
-3.55
-6.23
-8.56
-11.18
-15.08
-21.23
-30.16
-41.65
-54.68
-67.70
-78.89
-86.63
-89.85
-88.18
-81.95
-71.99
-59.38
-45.15
-30.11
-14.74
0.74
16.14
31.17
45.27
57.68
67.59
74.38
77.85
78.25
76.26
72.74
68.55
64.35
60.62
57.64
55.54
54.30
53.67
53.33
52.82
51.68
49.51
46.03
41.11
34.83
27.54
19.76
12.16
5.21
-0.86
-6.27
-11.57
-17.53
-24.78
-33.63
-43.85
-54.57
-64.36
-71.49
-74.31
-71.81
-63.89
-51.60
-36.84
-21.80
-8.28
2.75
11.37
18.37
24.78
31.30
38.04
44.56
50.27
54.76
57.96
60.05
61.13
61.02
59.29
55.61
50.05
43.28
36.45
30.72
26.90
25.12
24.90
25.38
25.69
25.22
23.67
21.06
17.56
13.42
8.75
3.49
-2.59
-9.80
-18.40
-28.47
-39.90
-52.48
-65.93
-80.01
-94.32
-108.05
-120.05
-129.00
-133.85
-134.23
-130.46
-123.02
-111.96
-96.52
-75.65
-48.98
-17.84
14.54
43.92
66.61
80.97
87.84
89.76
89.50
88.69
87.45
84.91
80.29
73.52
65.30
56.42
47.11
36.95
25.28
12.06
-1.74
-14.32
-23.82
-29.36
-31.46
-31.90
-32.83
-35.83
-41.34
-48.78
-57.13
-65.55
-73.81
-82.31
-91.78
-102.78
-115.32
-128.51
-140.48
-148.69
-150.39
-143.50
-127.47
-103.74
-75.62
-47.40
-23.05
-5.09
6.04
11.65
13.97
15.29
17.38
21.49
28.52
39.02
53.00
69.60
86.90
102.26
113.21
118.32
117.50
111.68
101.92
88.72
72.09
52.20
30.28
8.89
-8.65
-19.68
-23.40
-21.16
-15.82
-10.06
-5.11
-0.30
6.23
15.94
28.62
42.03
52.74
57.65
55.35
46.67
34.12
20.64
8.35
-2.08
-11.21
-19.98
-28.79
-37.11
-43.62
-46.98
-46.52
-42.72
-36.92
-30.77
-25.42
-21.07
-16.99
-12.10
-5.58
2.65
11.86
20.95
28.91
35.13
39.54
42.37
43.93
44.40
43.82
42.09
38.93
34.00
26.99
17.87
7.02
-4.78
-16.53
-27.42
-37.17
-46.07
-54.80
-63.98
-73.79
-83.76
-92.93
-100.13
-104.47
-105.56
-103.63
-99.29
-93.26
-86.03
-77.72
-68.23
-57.37
-45.09
-31.48
-16.76
-1.08
15.45
32.75
50.67
68.95
87.49
106.51
126.67
148.82
173.61
201.13
230.79
261.71
293.18
325.06
357.49
390.14
421.21
446.99
462.38
462.30
443.54
405.92
352.30
287.45
216.44
143.22
70.19
-1.52
-71.43
-139.24
-204.83
-268.23
-329.37
-387.39
-440.07
-483.89
-514.90
-530.00
-528.04
-510.15
-479.26
-439.25
-394.18
-348.10
-304.93
-268.33
-241.14
-224.60
-217.83
-218.05
-221.34
-223.81
-222.52
-215.77
-203.01
-184.45
-160.61
-132.18
-100.03
-65.29
-29.39
6.21
40.41
72.79
103.71
133.93
164.00
193.64
221.57
245.91
264.93
277.86
284.97
287.37
286.36
282.84
277.22
269.63
260.29
249.59
238.01
225.72
212.58
198.27
182.65
166.05
149.34
133.75
120.29
109.37
100.51
92.40
83.35
71.89
57.32
39.92
20.69
0.80
-18.87
-37.90
-56.14
-73.30
-88.86
-102.14
-112.71
-120.62
-126.29
-130.06
-131.76
-130.78
-126.33
-118.21
-107.08
-94.38
-81.79
-70.50
-60.86
-52.45
-44.62
-36.98
-29.74
-23.53
-19.04
-16.72
-16.61
-18.42
-21.83
-26.54
-32.22
-38.51
-44.88
-50.90
-56.35
-61.33
-66.12
-70.72
-74.63
-76.79
-76.00
-71.47
-63.19
-51.98
-39.14
-25.84
-12.78
-0.13
12.09
23.67
34.03
42.44
48.41
52.06
54.09
55.59
57.42
59.91
62.70
65.02
66.12
65.67
63.93
61.60
59.44
57.94
57.03
56.16
54.58
51.69
47.30
41.70
35.50
29.27
23.32
17.54
11.58
5.02
-2.39
-10.63
-19.38
-28.14
-36.43
-43.94
-50.65
-56.96
-63.50
-70.96
-79.65
-89.25
-98.67
-106.26
-110.26
-109.28
-102.86
-91.45
-76.28
-58.82
-40.49
-22.40
-5.24
10.56
24.81
37.51
48.76
58.73
67.59
75.36
81.90
87.03
90.58
92.55
93.07
92.38
90.78
88.56
85.94
83.11
80.13
76.96
73.43
69.34
64.57
59.12
53.08
46.67
40.13
33.71
27.63
22.03
16.83
11.67
5.97
-0.80
-8.88
-18.01
-27.46
-36.27
-43.64
-49.28
-53.51
-57.16
-61.25
-66.58
-73.39
-81.21
-88.91
-94.96
-97.77
-96.17
-89.73
-78.88
-64.78
-48.99
-33.04
-18.08
-4.64
7.27
17.94
27.61
36.23
43.49
49.05
52.75
54.77
55.54
55.51
54.94
53.87
52.27
50.32
48.45
47.18
46.86
47.39
48.32
49.06
49.34
49.27
49.21
49.46
49.94
50.21
49.67
47.92
44.94
40.97
36.31
31.08
25.23
18.66
11.46
3.79
-4.07
-12.05
-20.27
-28.96
-38.24
-47.95
-57.67
-67.05
-75.98
-84.64
-93.28
-101.83
-109.56
-115.22
-117.49
-115.48
-109.17
-99.39
-87.37
-74.22
-60.51
-46.26
-31.30
-15.67
0.07
14.94
27.85
38.03
45.22
49.80
52.46
53.96
54.89
55.57
56.03
56.24
56.12
55.69
55.04
54.30
53.66
53.24
53.09
53.02
52.67
51.55
49.24
45.62
40.89
35.53
30.07
24.88
20.02
15.29
10.32
4.86
-1.17
-7.63
-14.24
-20.75
-26.92
-32.65
-37.96
-43.05
-48.27
-54.04
-60.55
-67.49
-73.84
-78.13
-78.77
-74.74
-65.98
-53.47
-38.80
-23.59
-8.89
5.01
18.33
31.29
43.71
54.91
64.01
70.37
74.04
75.63
76.12
76.29
76.50
76.66
76.55
76.13
75.62
75.29
75.06
74.32
72.11
67.49
60.14
50.55
39.92
29.65
20.76
13.57
7.69
2.33
-3.21
-9.32
-15.98
-23.02
-30.25
-37.64
-45.26
-53.15
-61.33
-69.89
-79.05
-89.18
-100.54
-112.99
-125.69
-137.21
-145.87
-150.25
-149.68
-144.24
-134.58
-121.59
-106.13
-88.98
-71.04
-53.31
-36.96
-23.07
-12.29
-4.72
0.15
3.14
5.10
6.64
8.03
9.36
10.64
11.98
13.56
15.55
18.01
20.89
24.05
27.32
30.50
33.32
35.48
36.60
36.51
35.29
33.38
31.38
29.77
28.69
27.72
26.11
23.07
18.08
11.13
2.72
-6.35
-15.22
-23.27
-30.23
-36.30
-42.12
-48.59
-56.57
-66.35
-77.29
-87.69
-95.15
-97.31
-92.75
-81.48
-64.96
-45.40
-25.03
-5.40
12.72
29.16
43.98
57.23
68.91
79.01
87.61
94.72
100.24
103.96
105.62
105.11
102.57
98.46
93.45
88.22
83.35
79.22
75.98
73.54
71.70
70.18
68.79
67.44
66.09
64.58
62.63
59.88
56.08
51.36
46.16
41.03
36.26
31.71
26.88
21.29
14.85
7.86
0.79
-6.08
-12.99
-20.50
-29.06
-38.64
-48.67
-58.42
-67.45
-75.93
-84.40
-93.21
-101.98
-109.48
-114.09
-114.42
-109.98
-101.22
-89.30
-75.55
-61.12
-46.82
-33.20
-20.69
-9.58
-0.07
7.82
14.15
19.02
22.49
24.66
25.75
26.09
26.07
25.97
25.85
25.59
25.12
24.51
23.99
23.91
24.42
25.47
26.77
27.98
28.75
28.79
27.88
25.80
22.47
17.92
12.40
6.26
-0.18
-6.65
-13.01
-19.15
-24.93
-30.18
-34.72
-38.45
-41.36
-43.67
-45.80
-48.32
-51.81
-56.57
-62.36
-68.37
-73.29
-75.72
-74.48
-69.01
-59.37
-46.23
-30.64
-13.78
3.20
19.32
33.90
46.52
56.97
65.15
71.00
74.53
75.93
75.58
74.00
71.74
69.13
66.27
63.07
59.37
55.18
50.76
46.47
42.67
39.50
36.82
34.32
31.71
28.77
25.52
22.10
18.71
15.49
12.46
9.59
6.74
3.75
0.46
-3.21
-7.26
-11.57
-15.97
-20.32
-24.57
-28.76
-32.97
-37.31
-41.92
-46.97
-52.74
-59.40
-66.82
-74.44
-81.21
-85.75
-86.76
-83.29
-75.01
-62.34
-46.32
-28.36
-10.01
7.43
23.15
36.87
48.72
58.99
67.84
75.20
80.83
84.42
85.75
84.73
81.30
75.42
67.10
56.59
44.55
32.09
20.50
10.97
4.22
0.38
-0.90
-0.03
2.74
7.44
14.13
22.53
31.69
40.08
46.05
48.45
47.10
42.85
37.12
31.24
25.84
20.70
14.98
7.73
-1.59
-12.81
-25.08
-37.10
-47.66
-56.10
-62.52
-67.73
-72.77
-78.27
-84.01
-88.91
-91.62
-91.29
-88.03
-82.68
-76.16
-68.66
-59.41
-47.23
-31.58
-13.42
4.71
19.57
28.46
30.41
26.31
18.35
8.86
-0.40
-8.45
-14.68
-18.24
-17.96
-12.92
-3.21
9.60
22.90
34.26
42.82
49.71
57.30
67.65
81.14
96.19
110.35
121.70
129.83
135.47
139.16
140.08
135.89
123.93
102.77
73.39
38.88
3.20
-30.59
-61.20
-89.10
-115.63
-141.66
-166.74
-188.93
-205.29
-212.87
-209.80
-195.99
-173.10
-144.09
-112.17
-80.10
-49.69
-21.96
2.54
23.36
40.05
52.19
59.55
62.24
60.72
55.74
48.28
39.40
30.09
21.13
12.99
5.90
0.01
-4.55
-7.54
-8.84
-8.51
-6.89
-4.53
-1.99
0.33
2.32
4.12
6.00
8.15
10.49
12.68
14.15
14.39
13.20
10.76
7.49
3.81
-0.20
-4.87
-10.67
-17.94
-26.65
-36.50
-47.11
-58.24
-69.65
-80.83
-90.89
-98.67
-103.03
-103.41
-100.03
-93.76
-85.67
-76.60
-67.05
-57.40
-48.15
-39.85
-33.00
-27.83
-24.33
-22.22
-21.20
-21.00
-21.38
-22.22
-22.96
-22.91
-21.55
-18.87
-15.35
-11.70
-8.60
-6.71
-6.86
-8.93
-12.34
-16.39
-20.70
-25.47
-31.15
-38.33
-47.45
-59.26
-72.53
-85.04
-94.45
-99.31
-99.40
-95.02
-86.55
-73.94
-57.81
-36.35
-6.95
32.48
82.54
142.01
209.02
281.44
357.52
426.15
475.05
494.53
483.21
448.50
400.78
348.57
295.93
250.56
209.11
170.92
137.93
112.45
95.24
84.43
77.61
70.78
61.98
49.17
33.52
16.99
0.42
-16.76
-36.66
-60.61
-90.96
-124.72
-158.71
-187.64
-206.06
-209.80
-196.09
-174.07
-146.82
-118.96
-96.07
-84.60
-88.55
-105.43
-133.22
-168.45
-206.53
-240.48
-265.00
-277.37
-279.22
-274.55
-267.39
-260.05
-251.77
-240.99
-226.49
-211.08
-199.40
-194.90
-196.23
-196.96
-189.15
-167.59
-133.43
-92.25
-51.96
-17.96
8.71
30.67
51.32
72.05
91.75
107.77
119.59
129.17
141.11
160.59
191.55
235.84
293.59
363.96
436.83
498.47
533.46
530.63
487.67
411.95
317.40
220.32
134.82
68.91
24.45
-2.20
-17.02
-25.89
-32.34
-39.25
-49.18
-65.10
-89.60
-122.14
-158.27
-187.63
-200.57
-192.36
-165.73
-129.58
-95.01
-70.37
-57.38
-51.65
-46.53
-37.78
-26.51
-17.80
-17.40
-28.07
-47.84
-71.02
-91.60
-106.18
-114.82
-118.98
-118.70
-111.23
-92.57
-60.45
-16.84
31.99
77.83
113.47
136.94
151.91
164.45
179.04
196.06
212.50
224.72
231.04
232.36
231.16
229.67
228.72
228.16
227.63
226.76
224.31
217.04
199.49
165.78
112.35
40.88
-40.56
-119.49
-183.30
-224.25
-242.79
-247.58
-251.28
-264.22
-289.07
-319.80
-345.60
-356.74
-349.40
-325.95
-291.87
-251.77
-208.15
-163.65
-123.82
-97.33
-92.24
-110.63
-145.78
-184.11
-210.97
-217.30
-202.61
-173.32
-137.93
-102.54
-69.35
-37.68
-6.08
25.89
57.56
87.78
115.77
141.55
165.84
189.38
212.23
233.15
249.08
256.32
251.92
235.43
209.57
179.32
149.87
124.55
103.88
86.17
69.61
53.54
38.75
26.72
18.77
15.31
15.81
19.14
21.97
21.76
16.85
6.94
-6.74
-22.11
-37.09
-50.32
-61.28
-69.51
-74.87
-76.47
-72.80
-62.35
-44.41
-19.75
9.28
39.28
65.25
83.54
92.81
94.28
90.97
86.04
81.37
76.81
70.72
61.39
48.61
34.01
20.28
9.89
3.71
0.86
-1.03
-5.65
-14.96
-28.37
-42.68
-53.60
-57.84
-55.03
-47.74
-40.70
-38.17
-41.67
-48.92
-54.79
-53.68
-42.21
-21.53
3.16
23.58
31.90
22.84
-4.93
-48.49
-102.04
-156.28
-200.16
-221.99
-209.84
-157.57
-71.74
27.55
114.63
169.89
187.50
175.22
154.50
138.60
133.72
139.61
151.98
165.81
178.07
188.65
195.10
197.56
195.93
190.41
181.17
168.89
155.38
143.28
134.76
129.78
126.10
118.66
102.87
76.37
40.56
0.51
-36.83
-65.25
-81.55
-85.80
-81.66
-74.14
-68.14
-67.29
-73.31
-86.45
-106.04
-130.91
-159.14
-188.60
-216.50
-240.04
-256.85
-265.39
-264.96
-255.54
-237.88
-213.70
-186.34
-160.77
-142.90
-137.60
-146.70
-167.90
-195.00
-219.70
-234.02
-232.46
-212.92
-176.70
-126.89
-67.65
-3.86
59.11
116.17
163.24
198.21
220.93
232.10
233.34
226.16
211.42
189.52
161.02
126.65
87.32
44.24
-1.41
-46.45
-85.59
-112.70
-122.83
-113.97
-88.41
-52.00
-8.23
35.17
70.43
92.85
101.39
96.74
80.01
52.37
16.71
-21.53
-55.92
-79.97
-90.08
-87.35
-79.02
-71.20
-68.72
-73.41
-83.61
-95.61
-104.26
-105.63
-98.58
-84.72
-66.75
-47.35
-27.72
-7.49
13.71
36.09
58.74
80.26
100.09
119.58
141.32
167.77
199.31
232.85
263.00
282.93
287.10
273.48
244.56
206.21
165.89
130.55
100.97
78.49
62.46
50.30
39.08
27.45
16.05
6.47
-0.60
-6.46
-12.64
-21.72
-34.45
-48.99
-61.79
-69.66
-71.33
-67.96
-62.32
-56.88
-52.56
-49.32
-46.18
-42.08
-36.65
-30.51
-24.86
-20.82
-18.65
-18.15
-18.80
-19.93
-21.07
-22.19
-23.63
-25.86
-29.28
-33.87
-39.46
-45.73
-52.17
-58.23
-63.42
-67.41
-70.02
-71.24
-71.08
-69.76
-67.60
-65.00
-62.33
-59.89
-57.82
-56.15
-54.70
-53.26
-51.61
-49.58
-47.06
-43.97
-40.21
-35.68
-30.33
-24.19
-17.40
-10.13
-2.61
4.97
12.33
19.13
24.97
29.53
32.71
34.78
36.21
37.55
39.18
41.27
43.83
46.70
49.59
52.07
53.52
53.24
50.72
45.80
38.67
29.72
19.32
7.73
-4.70
-17.32
-29.11
-38.98
-46.36
-51.62
-56.05
-61.34
-68.74
-78.37
-89.00
-98.47
-104.43
-105.19
-100.21
-90.29
-77.18
-63.04
-49.76
-38.54
-29.72
-22.88
-17.25
-12.15
-7.23
-2.56
1.52
4.81
7.47
10.16
13.88
19.61
27.89
38.41
49.96
60.56
67.96
70.21
66.20
55.99
40.78
22.53
3.43
-14.69
-30.77
-44.62
-56.85
-68.62
-81.33
-96.14
-113.48
-132.41
-150.36
-163.45
-167.57
-159.91
-140.15
-110.86
-76.50
-41.73
-9.80
18.18
42.89
65.65
87.48
108.71
129.19
148.52
165.90
179.78
187.85
187.80
178.64
161.72
140.70
120.38
104.80
95.80
92.87
94.11
97.47
101.54
105.29
107.37
105.67
97.74
81.70
57.34
26.55
-6.95
-38.68
-64.55
-81.95
-90.61
-92.88
-93.22
-96.57
-106.19
-121.81
-139.19
-151.53
-152.18
-137.25
-107.23
-66.42
-20.77
24.72
67.33
106.47
142.38
175.05
204.06
228.58
247.69
260.66
267.19
267.49
262.41
253.48
243.00
233.75
227.60
224.32
221.39
215.05
201.99
180.64
151.62
117.78
83.47
53.01
29.14
12.31
0.99
-7.41
-15.34
-23.93
-38.69
-60.62
-85.63
-106.44
-117.23
-116.95
-109.00
-98.28
-88.57
-77.83
-64.97
-49.35
-31.35
-12.35
5.93
21.98
34.67
37.59
27.76
5.03
-27.57
-65.25
-103.34
-138.40
-168.20
-193.42
-214.06
-228.08
-233.44
-229.16
-216.31
-197.99
-178.34
-161.24
-146.66
-134.32
-122.29
-108.57
-91.76
-72.05
-51.45
-33.06
-19.94
-13.98
-15.49
-22.60
-32.56
-42.53
-50.29
-54.55
-54.89
-51.32
-43.88
-32.64
-17.31
2.04
24.83
49.67
74.61
97.51
116.55
130.64
139.34
142.97
142.23
138.14
132.01
125.33
119.48
115.12
111.79
107.92
101.74
92.46
81.09
70.35
63.26
61.40
63.73
66.75
66.01
58.16
42.27
19.89
-6.01
-32.37
-56.82
-77.75
-94.09
-105.10
-110.65
-111.46
-109.11
-105.36
-101.45
-97.64
-93.40
-88.10
-81.60
-74.37
-67.05
-59.91
-52.59
-44.35
-34.68
-23.76
-12.34
-1.29
8.86
18.04
26.30
33.41
38.64
41.05
40.03
35.75
29.13
21.41
13.61
6.16
-1.08
-8.52
-16.50
-25.10
-34.19
-43.57
-53.05
-62.39
-71.24
-79.17
-85.79
-90.98
-95.06
-98.74
-102.91
-108.26
-114.89
-122.18
-128.77
-132.94
-133.12
-128.39
-118.77
-105.12
-88.74
-70.86
-52.29
-33.45
-14.56
3.99
21.51
37.10
50.06
60.17
67.77
73.63
78.50
82.82
86.54
89.34
90.91
91.26
90.75
89.93
89.28
88.87
88.31
86.97
84.24
79.86
74.03
67.32
60.34
53.52
46.90
40.16
32.89
24.78
15.80
6.14
-3.87
-13.92
-23.57
-32.24
-39.06
-43.03
-43.26
-39.40
-31.89
-21.85
-10.73
0.21
10.28
19.42
27.88
35.88
43.26
49.55
54.25
57.02
57.98
57.52
56.13
54.18
51.79
48.90
45.47
41.56
37.41
33.33
29.58
26.28
23.39
20.72
18.08
15.24
12.10
8.62
4.89
1.05
-2.81
-6.60
-10.33
-14.03
-17.79
-21.70
-25.92
-30.63
-35.94
-41.85
-48.01
-53.71
-57.94
-59.54
-57.60
-51.74
-42.32
-30.37
-17.35
-4.67
6.69
16.41
24.75
32.17
39.00
45.17
50.32
54.07
56.30
57.21
57.16
56.39
54.92
52.66
49.64
46.19
42.79
39.87
37.50
35.37
32.97
29.87
25.92
21.19
15.85
10.03
3.85
-2.54
-8.89
-14.93
-20.52
-25.75
-30.92
-36.39
-42.35
-48.80
-55.66
-62.96
-70.94
-79.88
-89.80
-100.13
-109.63
-116.62
-119.56
-117.52
-110.52
-99.44
-85.64
-70.45
-54.81
-39.23
-23.92
-9.08
5.04
18.09
29.74
39.80
48.23
55.08
60.46
64.45
67.14
68.66
69.24
69.16
68.69
67.92
66.72
64.75
61.68
57.29
51.68
45.18
38.20
31.11
24.01
16.82
9.38
1.64
-6.32
-14.29
-22.06
-29.51
-36.62
-43.44
-50.10
-56.68
-63.30
-70.13
-77.29
-84.75
-92.09
-98.53
-102.90
-104.02
-100.97
-93.46
-81.95
-67.57
-51.83
-36.27
-22.09
-10.00
-0.27
7.22
12.68
16.32
18.30
18.75
17.84
15.81
12.97
9.67
6.19
2.82
-0.13
-2.39
-3.71
-4.08
-3.69
-2.91
-2.16
-1.75
-1.87
-2.67
-4.36
-7.17
-11.27
-16.56
-22.57
-28.65
-34.21
-38.97
-43.09
-47.01
-51.16
-55.85
-61.16
-66.92
-72.79
-78.14
-81.97
-83.06
-80.29
-72.99
-61.31
-46.21
-29.13
-11.53
5.58
21.74
36.92
51.19
64.50
76.56
87.00
95.53
102.02
106.62
109.54
111.02
111.24
110.30
108.31
105.42
101.88
97.93
93.69
89.20
84.32
78.95
73.04
66.67
60.04
53.33
46.67
39.98
33.12
25.89
18.20
10.12
1.85
-6.34
-14.15
-21.41
-28.06
-34.27
-40.41
-46.96
-54.36
-62.65
-71.26
-78.85
-83.61
-83.80
-78.37
-67.47
-52.34
-34.87
-16.96
0.10
15.74
29.91
42.68
54.03
63.68
71.36
77.01
80.81
83.09
84.20
84.32
83.49
81.80
79.46
76.85
74.40
72.36
70.66
68.94
66.68
63.48
59.14
53.70
47.36
40.28
32.61
24.41
15.74
6.70
-2.57
-11.92
-21.23
-30.35
-39.17
-47.58
-55.54
-63.03
-70.16
-77.07
-83.98
-91.22
-99.07
-107.68
-116.78
-125.52
-132.45
-135.92
-134.52
-127.68
-115.85
-100.27
-82.62
-64.35
-46.45
-29.34
-13.14
2.10
16.22
28.92
39.88
48.85
55.74
60.60
63.61
65.00
65.01
63.90
61.93
59.37
56.51
53.63
50.93
48.44
45.96
43.09
39.45
34.81
29.23
23.02
16.65
10.48
4.66
-0.88
-6.40
-12.17
-18.37
-24.97
-31.82
-38.67
-45.29
-51.60
-57.74
-64.05
-71.01
-78.98
-88.02
-97.64
-106.85
-114.26
-118.41
-118.26
-113.40
-104.20
-91.70
-77.21
-62.00
-47.02
-32.76
-19.41
-6.97
4.54
15.07
24.47
32.68
39.73
45.82
51.29
56.47
61.57
66.57
71.23
75.16
78.05
79.74
80.28
79.83
78.49
76.15
72.62
67.74
61.66
54.85
47.97
41.56
35.83
30.59
25.40
19.74
13.32
6.07
-1.82
-10.13
-18.66
-27.30
-36.11
-45.21
-54.73
-64.61
-74.41
-83.22
-89.79
-92.81
-91.36
-85.24
-75.05
-61.95
-47.37
-32.57
-18.42
-5.37
6.44
16.98
26.33
34.54
41.71
47.95
53.32
57.86
61.61
64.60
66.95
68.77
70.17
71.24
72.03
72.54
72.75
72.62
72.07
71.05
69.58
67.73
65.63
63.50
61.54
59.84
58.34
56.68
54.27
50.29
44.02
35.12
24.02
11.84
0.16
-9.68
-17.17
-22.99
-28.71
-36.21
-46.85
-60.79
-76.95
-93.24
-107.30
-117.09
-121.30
-119.47
-111.81
-99.03
-82.07
-62.06
-40.20
-17.60
4.77
26.26
46.45
65.06
81.72
95.96
107.32
115.56
120.79
123.28
123.28
120.83
115.84
108.35
98.80
88.03
77.05
66.64
57.06
48.11
39.38
30.57
21.69
13.00
4.75
-2.90
-10.02
-16.79
-23.52
-30.47
-37.85
-45.64
-53.60
-61.24
-68.04
-73.65
-78.07
-81.76
-85.42
-89.84
-95.49
-102.32
-109.64
-116.25
-120.65
-121.51
-118.02
-110.03
-98.12
-83.39
-67.11
-50.47
-34.40
-19.46
-5.88
6.24
16.95
26.31
34.37
41.04
46.15
49.45
50.77
50.12
47.78
44.36
40.63
37.31
34.80
33.07
31.76
30.34
28.33
25.31
21.17
16.18
10.78
5.38
0.14
-5.08
-10.61
-16.81
-24.33
-33.40
-43.65
-54.25
-64.28
-73.25
-81.17
-88.59
-96.35
-105.93
-118.13
-132.67
-148.12
-162.37
-173.52
-180.17
-181.70
-178.38
-171.86
-163.62
-154.41
-143.97
-131.43
-116.08
-97.41
-75.45
-45.67
-7.67
35.07
76.33
110.56
135.74
153.33
166.81
179.20
191.68
202.57
209.30
209.68
202.84
190.92
174.78
155.66
135.20
115.40
97.69
83.43
73.52
67.97
65.70
64.47
62.10
57.14
49.22
38.69
26.94
15.71
6.28
-0.96
-6.70
-11.75
-16.60
-21.25
-25.48
-28.83
-30.81
-30.96
-28.83
-24.24
-17.07
-7.51
3.89
16.33
29.06
41.56
53.66
65.44
76.90
88.01
98.55
108.05
115.91
121.46
124.09
123.41
119.49
112.90
104.81
96.70
90.08
86.04
84.81
85.45
85.93
83.69
76.54
63.53
45.25
23.56
0.60
-22.05
-43.66
-64.09
-83.24
-100.68
-115.83
-128.32
-138.34
-146.56
-153.68
-160.12
-165.87
-170.91
-175.50
-180.25
-185.88
-192.61
-200.03
-207.11
-212.50
-214.92
-213.36
-207.18
-196.12
-180.47
-160.95
-138.74
-115.18
-91.52
-68.75
-47.51
-28.16
-10.76
4.71
18.44
30.62
41.34
50.57
58.22
64.26
68.86
72.39
75.27
77.77
79.89
81.41
82.11
81.84
80.71
78.92
76.59
73.69
69.99
65.28
59.46
52.68
45.23
37.39
29.33
21.05
12.51
3.75
-5.03
-13.66
-22.13
-30.71
-39.84
-49.82
-60.40
-70.66
-79.16
-84.35
-85.15
-81.27
-73.20
-61.96
-48.72
-34.45
-19.81
-5.27
8.80
22.04
34.11
44.69
53.63
60.89
66.54
70.71
73.54
75.12
75.56
75.01
73.75
72.12
70.57
69.41
68.75
68.35
67.75
66.39
63.87
60.12
55.37
50.04
44.47
38.80
32.96
26.72
19.86
12.30
4.10
-4.52
-13.28
-21.94
-30.46
-38.97
-47.84
-57.42
-67.88
-78.86
-89.49
-98.41
-104.19
-105.74
-102.55
-94.84
-83.37
-69.27
-53.71
-37.76
-22.23
-7.63
5.90
18.49
30.42
42.00
53.34
64.25
74.18
82.45
88.36
91.54
92.05
90.40
87.40
83.87
80.46
77.45
74.77
72.16
69.29
65.95
62.04
57.53
52.44
46.78
40.53
33.71
26.43
18.81
10.97
3.03
-4.96
-12.99
-20.98
-28.80
-36.29
-43.36
-50.08
-56.71
-63.57
-70.79
-78.10
-84.65
-89.14
-90.22
-86.93
-79.10
-67.44
-53.29
-38.16
-23.31
-9.44
3.25
14.87
25.48
34.92
42.82
48.78
52.57
54.29
54.34
53.22
51.41
49.17
46.64
43.87
40.96
38.07
35.34
32.77
30.25
27.57
24.53
21.10
17.33
13.35
9.23
4.92
0.31
-4.70
-10.11
-15.84
-21.78
-27.83
-33.97
-40.26
-46.79
-53.60
-60.74
-68.15
-75.61
-82.62
-88.41
-91.97
-92.32
-88.79
-81.32
-70.48
-57.28
-42.86
-28.14
-13.69
0.18
13.29
25.42
36.25
45.50
53.03
58.85
63.21
66.36
68.49
69.73
70.10
69.67
68.56
67.00
65.23
63.51
61.98
60.57
59.07
57.14
54.42
50.72
46.12
40.91
35.58
30.56
26.02
21.81
17.47
12.53
6.66
-0.09
-7.38
-14.66
-21.50
-27.72
-33.47
-39.14
-45.16
-51.91
-59.53
-67.89
-76.50
-84.55
-91.00
-94.76
-95.01
-91.35
-84.02
-73.74
-61.59
-48.66
-35.83
-23.73
-12.66
-2.74
6.09
13.92
20.88
27.07
32.48
37.01
40.44
42.63
43.62
43.70
43.35
43.03
43.01
43.31
43.67
43.82
43.57
42.83
41.53
39.61
36.96
33.61
29.80
26.01
22.73
20.20
18.22
16.19
13.46
9.57
4.51
-1.36
-7.55
-13.69
-19.60
-25.18
-30.43
-35.22
-39.62
-43.90
-48.62
-54.35
-61.37
-69.30
-77.08
-83.28
-86.59
-86.25
-82.27
-75.22
-66.01
-55.49
-44.29
-32.82
-21.43
-10.39
-0.09
9.17
17.14
23.73
29.01
33.15
36.34
38.71
40.33
41.18
41.25
40.64
39.59
38.46
37.56
37.07
36.86
36.62
35.92
34.43
32.12
29.13
25.77
22.27
18.70
14.93
10.79
6.16
1.07
-4.28
-9.69
-14.99
-20.10
-25.02
-29.72
-34.20
-38.53
-42.90
-47.66
-53.18
-59.60
-66.69
-73.71
-79.58
-83.11
-83.39
-80.02
-73.20
-63.60
-52.17
-39.83
-27.38
-15.29
-3.84
6.86
16.76
25.83
33.99
41.14
47.17
51.98
55.58
58.06
59.65
60.69
61.47
62.23
63.09
64.01
64.84
65.37
65.39
64.76
63.39
61.32
58.62
55.41
51.78
47.75
43.31
38.46
33.22
27.66
21.90
16.08
10.28
4.55
-1.12
-6.73
-12.29
-17.81
-23.28
-28.65
-33.93
-39.14
-44.42
-50.02
-56.21
-63.10
-70.45
-77.53
-83.31
-86.73
-87.03
-84.06
-78.25
-70.43
-61.49
-52.21
-43.05
-34.32
-26.14
-18.56
-11.60
-5.24
0.56
5.80
10.44
14.43
17.73
20.33
22.20
23.36
23.87
23.91
23.75
23.73
24.08
24.81
25.65
26.18
25.98
24.87
23.02
20.91
19.15
18.22
18.27
18.99
19.73
19.62
17.97
14.45
9.20
2.87
-3.70
-9.67
-14.52
-18.25
-21.34
-24.53
-28.34
-32.75
-36.92
-39.39
-38.52
-33.09
-22.84
-8.72
7.32
22.85
35.69
44.50
49.17
50.60
50.24
49.38
48.75
48.51
48.49
48.64
49.30
51.10
54.78
60.77
68.93
78.37
87.52
94.38
97.01
94.22
85.95
73.36
58.35
42.82
27.97
14.09
0.82
-12.22
-24.93
-36.62
-46.32
-53.30
-57.48
-59.56
-60.75
-62.35
-65.15
-69.18
-73.72
-77.72
-80.44
-81.87
-82.85
-84.59
-88.02
-93.21
-99.24
-104.50
-107.37
-106.76
-102.47
-95.10
-85.61
-74.98
-63.86
-52.56
-41.18
-29.88
-18.96
-8.81
0.26
8.13
14.91
20.88
26.20
30.85
34.58
37.05
38.08
37.80
36.66
35.22
34.05
33.43
33.36
33.57
33.73
33.57
32.94
31.86
30.37
28.60
26.72
24.93
23.39
22.18
21.28
20.50
19.46
17.67
14.68
10.30
4.57
-2.40
-10.37
-19.08
-28.34
-38.20
-48.92
-60.75
-73.61
-86.89
-99.84
-111.25
-119.90
-124.76
-125.44
-122.41
-116.63
-109.05
-100.26
-90.75
-80.48
-69.26
-56.64
-42.26
-25.82
-6.87
15.14
42.54
74.33
106.29
132.58
149.33
156.69
157.79
156.52
155.25
154.00
150.80
145.23
136.99
127.47
118.79
112.08
107.12
102.45
96.39
87.65
76.35
63.46
50.15
37.44
24.91
11.81
-2.25
-16.63
-29.95
-40.62
-47.82
-51.69
-53.38
-55.07
-58.17
-63.31
-70.16
-77.66
-84.23
-88.28
-88.79
-83.17
-72.70
-61.53
-55.31
-57.33
-66.75
-79.62
-91.26
-98.26
-99.12
-96.46
-89.43
-76.45
-56.60
-30.82
-2.61
23.33
42.78
53.49
55.00
50.84
46.55
47.38
56.02
71.44
90.04
107.18
118.96
123.38
121.43
115.66
108.86
104.25
101.54
99.52
96.82
92.58
86.57
79.36
71.41
62.62
52.67
41.39
29.62
18.99
11.31
7.73
8.44
13.06
20.10
27.94
35.40
42.23
48.53
54.18
58.83
60.87
59.23
53.05
42.23
27.35
9.70
-9.25
-28.09
-45.69
-61.24
-74.10
-84.07
-91.28
-96.20
-99.43
-101.64
-103.30
-104.61
-105.40
-105.20
-103.67
-100.77
-96.94
-93.00
-89.93
-88.54
-89.14
-91.51
-94.91
-98.52
-101.77
-104.53
-107.09
-110.04
-113.84
-118.62
-124.11
-129.58
-134.05
-136.38
-135.39
-130.14
-120.18
-105.77
-87.87
-67.84
-46.99
-26.24
-6.02
13.51
32.19
49.67
65.46
79.19
90.75
100.33
108.21
114.54
119.27
122.22
123.26
122.55
120.40
117.23
113.29
108.62
103.13
96.78
89.70
82.18
74.56
67.12
59.94
52.96
46.06
39.12
32.05
24.74
17.10
9.03
0.56
-8.20
-16.91
-25.22
-32.96
-40.27
-47.59
-55.43
-63.95
-72.67
-80.41
-85.57
-86.67
-82.93
-74.62
-62.83
-49.09
-34.78
-20.79
-7.57
4.72
16.02
26.32
35.73
44.48
52.83
60.86
68.34
74.73
79.49
82.35
83.51
83.54
83.06
82.51
82.03
81.50
80.74
79.63
78.10
76.10
73.53
70.29
66.33
61.73
56.66
51.30
45.73
39.90
33.60
26.61
18.82
10.28
1.27
-7.87
-16.77
-25.24
-33.27
-41.07
-48.91
-56.99
-65.31
-73.49
-80.80
-86.24
-88.78
-87.70
-82.82
-74.54
-63.75
-51.51
-38.71
-26.02
-13.77
-2.15
8.67
18.54
27.27
34.74
40.79
45.33
48.28
49.69
49.92
49.47
48.91
48.61
48.62
48.72
48.60
48.00
46.90
45.30
43.24
40.61
37.22
32.96
27.86
22.11
16.03
9.85
3.65
-2.69
-9.37
-16.61
-24.43
-32.63
-40.76
-48.28
-54.76
-60.02
-64.17
-67.48
-70.25
-72.73
-75.10
-77.47
-79.87
-82.10
-83.58
-83.39
-80.50
-74.16
-64.22
-51.22
-36.15
-20.13
-4.13
11.17
25.31
38.00
49.12
58.68
66.81
73.71
79.43
83.75
86.33
86.89
85.40
82.30
78.27
73.97
69.82
65.85
61.87
57.67
53.17
48.44
43.57
38.47
32.97
26.90
20.32
13.53
6.94
0.78
-5.06
-10.94
-17.20
-23.84
-30.50
-36.57
-41.66
-45.78
-49.43
-53.26
-57.75
-63.01
-68.82
-74.71
-80.11
-84.42
-86.91
-86.86
-83.68
-77.19
-67.79
-56.39
-44.05
-31.69
-19.80
-8.44
2.48
12.97
22.78
31.48
38.67
44.16
48.09
50.79
52.66
53.96
54.73
54.89
54.37
53.20
51.60
49.83
48.08
46.41
44.73
42.85
40.68
38.20
35.49
32.60
29.51
26.07
22.11
17.58
12.55
7.29
2.07
-2.90
-7.57
-12.01
-16.38
-20.89
-25.71
-30.98
-36.74
-42.89
-49.11
-54.83
-59.29
-61.66
-61.34
-58.10
-52.19
-44.25
-35.13
-25.62
-16.34
-7.62
0.39
7.63
14.03
19.49
23.88
27.12
29.21
30.28
30.56
30.33
29.87
29.36
28.77
27.95
26.69
24.85
22.49
19.83
17.11
14.44
11.64
8.39
4.34
-0.65
-6.52
-12.98
-19.65
-26.14
-32.12
-37.43
-42.12
-46.48
-50.95
-55.97
-61.79
-68.32
-75.12
-81.54
-86.81
-90.15
-90.90
-88.53
-82.82
-74.01
-62.84
-50.40
-37.79
-25.78
-14.62
-4.21
5.67
15.05
23.71
31.23
37.22
41.55
44.38
46.15
47.28
48.10
48.67
48.89
48.61
47.83
46.70
45.46
44.26
43.02
41.47
39.32
36.39
32.78
28.76
24.57
20.30
15.79
10.80
5.17
-1.08
-7.69
-14.35
-20.81
-27.00
-33.04
-39.17
-45.69
-52.82
-60.64
-68.95
-77.16
-84.35
-89.41
-91.35
-89.62
-84.27
-75.93
-65.58
-54.16
-42.38
-30.66
-19.13
-7.92
2.83
12.89
22.04
30.15
37.18
43.12
47.99
51.77
54.46
56.13
56.91
57.03
56.69
56.13
55.55
55.10
54.84
54.68
54.37
53.57
51.99
49.51
46.24
42.43
38.35
34.06
29.43
24.19
18.22
11.57
4.52
-2.56
-9.37
-15.79
-21.85
-27.71
-33.59
-39.76
-46.41
-53.71
-61.49
-69.23
-75.98
-80.58
-81.98
-79.62
-73.67
-64.94
-54.58
-43.69
-33.00
-22.87
-13.33
-4.32
4.14
11.92
18.82
24.60
29.12
32.31
34.25
35.17
35.43
35.41
35.40
35.57
35.91
36.31
36.61
36.63
36.19
35.13
33.29
30.65
27.28
23.35
19.00
14.30
9.22
3.71
-2.20
-8.35
-14.46
-20.33
-25.90
-31.29
-36.79
-42.71
-49.21
-56.24
-63.42
-70.07
-75.26
-78.01
-77.54
-73.51
-66.12
-56.04
-44.26
-31.77
-19.33
-7.42
3.76
14.10
23.50
31.80
38.77
44.22
48.08
50.43
51.50
51.57
50.96
49.95
48.76
47.55
46.40
45.27
44.02
42.39
40.19
37.37
34.05
30.44
26.74
22.97
18.99
14.58
9.58
4.04
-1.76
-7.47
-12.76
-17.46
-21.66
-25.56
-29.47
-33.69
-38.48
-43.98
-50.12
-56.44
-62.07
-65.72
-66.17
-62.70
-55.50
-45.72
-34.97
-24.61
-15.16
-6.17
3.32
14.00
25.74
37.52
47.92
55.77
60.65
62.92
63.34
62.59
61.04
58.82
55.99
52.84
49.78
47.23
45.24
43.46
41.18
37.74
32.95
27.18
21.30
16.17
12.15
8.84
5.33
0.75
-5.12
-11.65
-17.57
-21.42
-22.14
-19.24
-12.94
-4.16
5.58
14.28
19.78
20.26
14.74
3.49
-11.96
-29.17
-45.44
-58.45
-66.80
-70.12
-69.07
-64.90
-58.92
-51.95
-44.07
-34.86
-23.96
-11.61
1.20
13.08
22.84
30.02
34.90
38.12
40.21
41.32
41.28
39.98
37.58
34.59
31.55
28.84
26.47
24.20
21.79
19.14
16.38
13.70
11.20
8.79
6.27
3.41
0.10
-3.62
-7.57
-11.55
-15.33
-18.78
-21.86
-24.63
-27.28
-30.07
-33.26
-37.07
-41.49
-46.37
-51.44
-56.36
-60.79
-64.38
-66.80
-67.70
-66.75
-63.75
-58.72
-52.09
-44.61
-37.12
-30.27
-24.48
-19.76
-15.81
-12.19
-8.62
-5.19
-2.43
-0.93
-1.05
-2.71
-5.18
-7.00
-6.40
-1.87
7.35
21.05
38.74
59.86
82.69
104.05
119.65
125.66
120.83
107.46
90.39
75.27
66.12
63.70
65.63
67.95
67.13
61.46
52.33
40.22
25.57
8.94
-8.62
-24.93
-36.94
-41.87
-38.52
-28.14
-14.24
-0.91
8.62
12.99
12.73
9.84
6.77
5.65
7.74
13.16
21.11
30.08
38.37
44.90
49.64
53.60
58.40
65.24
73.84
81.56
84.18
77.53
59.48
31.02
-4.03
-40.27
-72.57
-94.48
-101.56
-93.53
-74.83
-52.70
-34.22
-24.23
-24.62
-34.29
-51.49
-72.78
-95.12
-116.60
-136.42
-154.44
-170.59
-184.52
-195.48
-198.60
-191.28
-173.14
-145.88
-112.66
-77.50
-44.74
-18.35
-1.05
7.28
9.45
10.98
18.30
36.39
66.57
105.55
145.51
175.29
185.38
173.20
145.58
115.02
93.14
85.83
91.98
106.28
122.33
135.77
144.59
148.52
147.86
142.81
133.79
121.88
107.99
94.75
84.85
79.42
77.31
75.23
69.10
56.04
35.42
8.98
-19.85
-47.40
-70.80
-88.40
-99.70
-104.87
-104.24
-98.27
-87.53
-72.80
-55.34
-36.76
-18.89
-3.67
6.89
10.80
6.25
-7.93
-31.73
-63.77
-101.28
-140.56
-177.80
-209.87
-234.99
-252.83
-264.41
-271.57
-276.25
-279.60
-281.20
-279.10
-270.55
-253.51
-227.90
-195.96
-161.35
-127.48
-95.92
-66.11
-36.38
-5.62
25.47
54.47
78.45
95.62
106.18
112.03
115.49
118.04
119.71
119.54
116.66
110.99
103.50
95.67
88.66
82.86
77.91
73.18
68.42
64.02
60.83
59.74
61.16
64.72
69.37
73.71
76.35
76.40
73.72
69.03
63.80
59.87
58.79
61.30
67.04
74.70
82.55
89.16
93.77
96.33
97.21
96.81
95.39
93.02
89.83
86.05
82.03
78.05
74.17
70.26
66.10
61.53
56.63
51.66
46.92
42.59
38.65
34.91
31.13
27.21
23.17
19.17
15.38
11.87
8.54
5.20
1.63
-2.33
-6.75
-11.64
-16.96
-22.67
-28.65
-34.74
-40.72
-46.37
-51.55
-56.33
-60.95
-65.86
-71.49
-77.98
-84.93
-91.28
-95.56
-96.32
-92.74
-84.93
-73.93
-61.28
-48.41
-36.17
-24.73
-13.88
-3.42
6.57
15.73
23.59
29.88
34.66
38.20
40.84
42.81
44.16
44.88
44.98
44.55
43.78
42.84
41.82
40.64
39.16
37.20
34.64
31.48
27.79
23.71
19.46
15.29
11.47
8.20
5.52
3.24
0.98
-1.73
-5.19
-9.47
-14.31
-19.27
-23.90
-27.97
-31.55
-34.96
-38.69
-43.14
-48.57
-54.83
-61.32
-67.10
-71.00
-71.99
-69.51
-63.68
-55.22
-45.22
-34.72
-24.44
-14.65
-5.35
3.56
11.99
19.64
26.13
31.04
34.09
35.23
34.63
32.70
30.04
27.24
24.78
22.90
21.61
20.76
20.21
19.82
19.55
19.29
18.91
18.22
17.09
15.53
13.68
11.70
9.70
7.60
5.19
2.23
-1.43
-5.73
-10.55
-15.64
-20.84
-26.17
-31.87
-38.30
-45.88
-54.78
-64.79
-75.21
-84.92
-92.64
-97.32
-98.32
-95.71
-90.07
-82.32
-73.36
-63.88
-54.28
-44.77
-35.50
-26.63
-18.32
-10.65
-3.58
3.03
9.33
15.32
20.83
25.55
29.26
31.90
33.63
34.75
35.58
36.39
37.37
38.61
40.10
41.67
43.02
43.79
43.76
42.90
41.47
39.81
38.14
36.42
34.42
31.87
28.65
24.92
20.97
17.04
13.18
9.20
4.74
-0.61
-7.16
-15.01
-23.98
-33.50
-42.60
-50.09
-54.75
-55.76
-52.91
-46.72
-38.24
-28.72
-19.27
-10.52
-2.67
4.54
11.44
18.33
25.24
31.96
38.16
43.56
48.05
51.70
54.65
56.98
58.76
59.94
60.58
60.85
61.07
61.55
62.38
63.39
64.08
63.86
62.27
59.13
54.66
49.33
43.64
38.01
32.60
27.32
21.98
16.31
10.15
3.46
-3.69
-11.04
-18.29
-25.13
-31.36
-36.99
-42.23
-47.51
-53.30
-60.04
-67.86
-76.45
-85.00
-92.31
-97.00
-97.96
-94.65
-87.23
-76.52
-63.65
-49.80
-35.89
-22.51
-9.93
1.72
12.43
22.13
30.74
38.12
44.10
48.58
51.56
53.21
53.79
53.64
53.05
52.21
51.24
50.17
48.95
47.52
45.81
43.67
41.02
37.81
34.09
29.99
25.71
21.35
16.86
12.07
6.75
0.71
-6.05
-13.33
-20.77
-27.97
-34.66
-40.72
-46.29
-51.65
-57.12
-62.98
-69.28
-75.77
-81.82
-86.48
-88.66
-87.49
-82.58
-74.23
-63.31
-50.95
-38.17
-25.66
-13.68
-2.24
8.69
19.01
28.48
36.79
43.63
48.77
52.05
53.45
53.12
51.44
48.95
46.31
44.07
42.58
41.87
41.75
41.83
41.69
40.98
39.42
36.94
33.74
30.22
26.88
24.10
21.87
19.76
17.09
13.16
7.63
0.70
-6.99
-14.59
-21.38
-27.05
-31.76
-36.08
-40.70
-46.25
-52.94
-60.55
-68.26
-74.88
-79.10
-79.77
-76.23
-68.47
-57.13
-43.28
-28.16
-12.86
1.80
15.33
27.55
38.41
47.90
56.00
62.67
67.89
71.66
74.08
75.23
75.25
74.32
72.58
70.21
67.44
64.55
61.76
59.22
56.95
54.84
52.67
50.19
47.19
43.57
39.37
34.74
29.90
25.08
20.38
15.78
11.12
6.22
0.94
-4.74
-10.73
-16.87
-23.00
-29.00
-34.85
-40.58
-46.31
-52.28
-58.76
-65.96
-73.93
-82.31
-90.35
-96.94
-100.90
-101.26
-97.66
-90.38
-80.28
-68.46
-55.88
-43.20
-30.73
-18.59
-6.94
3.95
13.78
22.29
29.40
35.19
39.83
43.42
45.99
47.55
48.17
48.08
47.60
47.09
46.73
46.48
46.10
45.25
43.63
41.14
37.89
34.13
30.13
26.08
21.96
17.63
12.90
7.64
1.82
-4.40
-10.74
-16.91
-22.68
-28.00
-33.02
-38.11
-43.72
-50.25
-57.79
-66.01
-74.15
-81.05
-85.49
-86.47
-83.54
-76.90
-67.34
-55.94
-43.72
-31.47
-19.56
-8.13
2.72
12.86
22.07
30.11
36.85
42.31
46.56
49.76
51.99
53.32
53.85
53.76
53.29
52.62
51.87
51.00
49.91
48.45
46.57
44.28
41.64
38.68
35.43
31.85
27.94
23.71
19.21
14.48
9.49
4.26
-1.24
-6.97
-12.83
-18.71
-24.53
-30.27
-36.07
-42.15
-48.78
-56.15
-64.26
-72.76
-80.93
-87.71
-91.96
-92.68
-89.42
-82.36
-72.32
-60.46
-47.92
-35.56
-23.84
-12.87
-2.64
6.82
15.46
23.14
29.75
35.23
39.53
42.63
44.55
45.35
45.19
44.30
42.95
41.40
39.93
38.76
38.05
37.84
38.00
38.22
38.10
37.38
36.03
34.38
32.88
32.00
31.89
32.32
32.75
32.52
31.15
28.57
25.14
21.58
18.69
17.08
16.98
18.16
20.09
22.11
23.65
24.38
24.31
23.84
23.73
24.86
28.15
34.17
42.95
53.98
66.31
78.87
90.75
101.40
110.58
118.23
124.28
128.55
130.72
130.44
127.44
121.66
113.31
102.86
90.91
78.10
64.93
51.81
39.08
27.05
16.04
6.27
-2.27
-9.86
-17.06
-24.47
-32.56
-41.46
-50.97
-60.69
-70.24
-79.42
-88.31
-97.03
-105.67
-114.08
-121.88
-128.61
-134.03
-138.30
-142.07
-146.14
-151.18
-157.27
-163.73
-169.29
-172.48
-172.19
-168.09
-160.62
-150.64
-138.93
-125.87
-111.36
-95.28
-77.81
-59.64
-41.81
-25.40
-11.25
0.20
8.88
15.24
20.33
25.98
34.53
48.08
67.37
91.01
115.51
136.34
149.71
153.94
149.95
140.53
128.83
116.98
105.48
93.58
80.17
64.77
47.83
30.50
14.00
-0.97
-14.29
-26.28
-37.25
-47.26
-56.10
-63.46
-69.22
-73.70
-77.66
-82.17
-88.31
-96.77
-107.50
-119.50
-130.95
-139.71
-144.00
-143.04
-137.24
-128.01
-117.08
-105.76
-94.61
-83.47
-71.92
-59.68
-46.89
-34.02
-21.63
-10.20
0.04
9.00
16.65
22.97
27.89
31.38
33.55
34.63
35.09
35.47
36.30
37.92
40.39
43.42
46.54
49.18
50.88
51.42
50.83
49.28
47.02
44.28
41.21
38.01
34.88
31.95
29.24
26.57
23.54
19.59
14.20
6.98
-2.23
-13.35
-26.10
-39.88
-53.74
-66.49
-77.03
-84.53
-88.86
-90.40
-89.97
-88.64
-87.14
-85.71
-84.20
-82.33
-79.94
-77.41
-75.02
-73.13
-72.23
-72.23
-72.77
-73.60
-74.93
-77.10
-80.74
-84.80
-87.30
-86.32
-80.17
-68.34
-52.04
-33.68
-15.65
-0.25
12.77
24.68
36.54
50.01
67.27
90.36
120.74
158.67
201.59
247.28
293.21
329.89
348.06
342.66
315.14
272.46
231.68
197.03
169.91
151.64
143.54
143.78
150.95
161.94
172.31
177.94
175.11
163.80
145.64
122.04
94.35
64.13
32.76
1.75
-27.34
-54.15
-77.70
-97.43
-113.64
-126.59
-135.98
-141.48
-142.86
-140.24
-134.88
-127.69
-119.69
-112.11
-105.81
-100.97
-97.46
-94.92
-92.98
-91.72
-91.04
-90.83
-91.14
-91.82
-92.57
-93.13
-93.40
-93.55
-94.02
-95.01
-96.26
-97.09
-96.38
-92.92
-85.87
-75.07
-61.15
-45.38
-29.25
-14.07
-0.71
10.53
19.67
26.98
32.75
37.11
40.15
41.98
42.85
43.04
42.78
41.97
40.38
37.78
34.15
29.77
25.32
21.58
19.01
17.48
16.10
13.94
10.52
5.95
0.69
-4.48
-9.02
-12.87
-16.45
-20.71
-26.27
-33.14
-40.85
-48.86
-56.20
-61.89
-64.96
-64.48
-60.09
-51.21
-37.22
-17.59
6.12
30.81
52.79
69.85
84.73
100.09
117.83
138.47
161.27
181.84
196.90
204.79
205.81
201.52
192.99
181.01
165.66
146.21
121.41
90.89
55.35
16.63
-23.08
-62.36
-99.32
-131.26
-154.95
-167.32
-165.93
-150.24
-121.96
-82.80
-39.06
1.39
32.17
50.02
54.03
44.66
23.29
-6.70
-40.10
-70.88
-93.39
-104.47
-104.70
-97.81
-88.30
-80.79
-75.18
-69.75
-62.91
-53.72
-41.98
-28.10
-12.90
2.61
17.03
28.94
36.49
38.02
32.88
22.56
10.50
0.49
-4.88
-5.32
-2.04
2.27
5.93
7.98
8.07
6.29
3.09
-0.66
-3.74
-4.17
0.03
10.66
27.56
47.98
66.96
78.39
77.11
60.69
30.86
-7.11
-46.21
-80.17
-105.09
-119.40
-123.13
-116.95
-102.02
-79.55
-51.20
-19.39
13.18
41.74
61.23
68.29
64.58
53.45
38.70
23.61
9.61
-2.70
-13.95
-24.95
-35.83
-45.55
-52.46
-54.66
-50.84
-41.33
-28.00
-13.94
-1.93
6.75
12.63
17.34
22.97
30.87
40.73
50.66
57.85
60.20
57.43
51.18
44.05
38.40
35.39
34.67
34.93
34.76
33.47
31.38
29.44
28.64
29.96
34.53
43.66
58.60
79.48
104.42
129.25
148.32
156.36
150.70
132.69
107.49
82.06
62.26
50.49
45.15
41.94
36.56
26.96
13.94
0.27
-11.48
-20.75
-29.30
-40.32
-56.58
-79.27
-107.57
-138.97
-169.71
-195.03
-209.86
-209.93
-193.38
-162.11
-121.77
-80.32
-45.44
-21.94
-10.58
-8.80
-12.82
-20.03
-30.32
-45.69
-68.82
-101.22
-142.07
-188.01
-233.69
-272.98
-300.48
-312.45
-307.48
-286.49
-252.20
-208.60
-160.09
-110.86
-64.26
-22.20
15.09
49.22
82.91
118.90
158.33
199.39
237.19
265.03
276.89
269.92
245.83
210.16
170.15
132.12
99.78
73.88
53.05
35.12
18.03
0.44
-18.29
-37.97
-57.61
-75.45
-89.15
-96.41
-95.61
-86.37
-69.65
-47.49
-22.51
2.54
25.22
43.74
57.25
65.94
70.86
73.39
74.67
75.17
74.58
72.22
67.57
60.73
52.52
44.18
36.92
31.54
28.19
26.55
25.97
25.65
24.82
22.73
18.86
13.07
5.74
-2.37
-10.41
-17.90
-24.94
-32.09
-39.86
-48.20
-56.15
-62.17
-64.73
-63.07
-57.47
-49.09
-39.30
-29.01
-18.38
-6.94
5.83
19.91
34.49
48.16
59.40
67.24
71.58
73.05
72.71
71.40
69.52
67.00
63.48
58.72
52.80
46.10
39.12
32.34
26.02
20.14
14.55
8.97
3.19
-2.81
-8.85
-14.60
-19.85
-24.65
-29.36
-34.37
-39.69
-44.58
-47.70
-47.49
-42.91
-33.99
-21.98
-9.02
2.48
10.40
13.45
11.41
5.13
-3.59
-12.45
-19.41
-23.41
-24.85
-25.42
-27.28
-31.91
-39.34
-48.01
-55.48
-59.52
-59.03
-54.24
-46.41
-37.04
-27.51
-18.83
-11.90
-7.53
-6.46
-8.89
-14.22
-20.98
-27.31
-31.61
-33.13
-32.18
-29.83
-27.35
-25.58
-24.48
-23.04
-19.40
-11.42
2.79
24.25
52.71
86.70
123.75
161.02
195.68
225.40
248.37
263.35
269.64
267.12
256.35
238.50
215.31
188.90
161.54
135.39
112.17
92.99
78.22
67.41
59.39
52.64
45.68
37.71
28.64
18.99
9.58
1.15
-5.75
-10.70
-13.30
-13.21
-10.08
-4.41
2.33
8.15
11.48
12.03
11.03
10.24
10.89
13.37
16.22
16.87
12.94
3.16
-12.13
-31.44
-53.24
-75.90
-96.61
-112.54
-121.04
-119.93
-108.61
-88.13
-60.51
-28.47
6.22
44.17
85.77
130.08
174.99
216.98
253.05
282.33
305.30
312.48
297.07
256.42
194.97
123.82
54.40
-5.01
-46.90
-73.30
-88.22
-94.66
-96.26
-97.55
-102.91
-117.72
-146.91
-190.02
-239.96
-282.71
-301.80
-288.10
-252.81
-208.90
-170.02
-146.21
-140.73
-147.80
-158.83
-164.76
-160.53
-146.44
-125.87
-104.78
-88.26
-78.15
-73.33
-71.16
-69.03
-66.00
-62.33
-57.00
-48.60
-35.28
-15.81
8.85
34.97
57.61
72.81
79.73
81.89
84.39
91.40
104.05
119.75
133.17
138.58
132.11
113.14
84.80
52.21
20.61
-6.33
-27.33
-43.26
-55.81
-66.23
-74.65
-80.26
-82.43
-81.49
-78.66
-75.22
-71.64
-67.28
-61.03
-52.41
-42.47
-33.67
-28.94
-30.32
-37.93
-49.90
-63.08
-74.36
-81.73
-84.75
-84.18
-81.12
-76.27
-69.66
-61.13
-50.95
-40.33
-31.16
-25.25
-23.40
-24.92
-28.03
-30.73
-31.76
-30.92
-28.83
-26.20
-23.30
-19.82
-15.23
-9.35
-2.57
4.29
10.37
15.15
18.65
21.35
23.83
26.49
29.35
32.03
33.95
34.67
34.08
32.43
30.27
28.18
26.53
25.44
24.78
24.27
23.57
22.44
20.75
18.58
16.15
13.76
11.64
9.83
8.21
6.53
4.60
2.29
-0.41
-3.41
-6.54
-9.49
-11.77
-12.73
-11.80
-8.69
-3.54
3.10
10.45
17.79
24.66
30.81
36.21
40.80
44.48
47.12
48.53
48.57
47.20
44.53
40.87
36.72
32.58
28.88
25.76
23.11
20.70
18.32
15.91
13.46
10.92
8.14
4.90
1.08
-3.18
-7.51
-11.48
-14.87
-17.78
-20.60
-23.84
-27.88
-32.78
-38.25
-43.71
-48.40
-51.54
-52.53
-50.99
-46.94
-40.72
-32.96
-24.42
-15.82
-7.73
-0.47
5.87
11.37
16.24
20.68
24.83
28.63
31.93
34.49
36.11
36.72
36.40
35.36
33.85
32.09
30.16
27.99
25.33
21.94
17.72
12.78
7.46
2.13
-2.97
-7.87
-12.86
-18.30
-24.42
-31.16
-38.11
-44.68
-50.29
-54.50
-57.06
-57.79
-56.55
-53.18
-47.69
-40.35
-31.73
-22.58
-13.59
-5.22
2.41
9.36
15.70
21.31
25.88
29.04
30.56
30.49
29.19
27.21
25.10
23.26
21.90
20.96
20.21
19.30
17.91
15.81
12.92
9.37
5.37
1.28
-2.63
-6.19
-9.46
-12.73
-16.49
-21.18
-27.00
-33.68
-40.44
-46.11
-49.49
-49.70
-46.40
-39.84
-30.75
-20.08
-8.75
2.43
12.85
22.13
30.04
36.56
41.74
45.69
48.50
50.20
50.79
50.33
48.92
46.75
44.08
41.20
38.34
35.67
33.17
30.67
27.91
24.61
20.66
16.13
11.26
6.33
1.54
-3.11
-7.78
-12.71
-18.18
-24.41
-31.48
-39.22
-47.12
-54.26
-59.45
-61.55
-59.80
-54.08
-44.99
-33.60
-21.13
-8.57
3.40
14.42
24.29
32.81
39.80
45.13
48.78
50.90
51.70
51.37
50.08
47.95
45.14
41.99
38.89
36.28
34.39
33.19
32.35
31.33
29.61
26.81
22.86
17.93
12.40
6.66
0.99
-4.48
-9.85
-15.33
-21.20
-27.67
-34.78
-42.34
-49.92
-56.88
-62.41
-65.69
-66.02
-63.08
-57.03
-48.54
-38.57
-28.11
-17.97
-8.64
-0.38
6.60
12.09
15.88
17.97
18.57
18.19
17.38
16.51
15.71
14.81
13.59
11.95
10.00
8.01
6.25
4.84
3.58
2.10
-0.05
-3.18
-7.31
-12.21
-17.43
-22.52
-27.14
-31.18
-34.77
-38.24
-41.99
-46.38
-51.53
-57.19
-62.69
-67.08
-69.33
-68.62
-64.61
-57.54
-48.11
-37.30
-26.07
-15.12
-4.91
4.33
12.47
19.35
24.81
28.72
31.15
32.37
32.86
33.15
33.62
34.42
35.43
36.43
37.20
37.69
37.97
38.16
38.28
38.24
37.83
36.83
35.18
32.94
30.32
27.54
24.74
21.93
18.98
15.69
11.81
7.10
1.42
-5.13
-12.15
-18.83
-24.11
-26.86
-26.24
-21.97
-14.44
-4.52
6.64
18.01
28.83
38.61
47.01
53.80
58.78
61.87
63.22
63.11
62.00
60.26
58.18
55.87
53.37
50.69
47.87
44.97
42.07
39.20
36.40
33.71
31.16
28.75
26.34
23.67
20.47
16.54
11.83
6.54
0.96
-4.61
-9.97
-15.12
-20.14
-25.18
-30.35
-35.82
-41.68
-47.91
-54.25
-60.13
-64.65
-66.83
-65.82
-61.26
-53.42
-43.07
-31.31
-19.23
-7.69
2.79
11.98
19.84
26.38
31.67
35.81
38.92
41.20
42.84
44.02
44.81
45.18
45.08
44.48
43.44
42.09
40.59
39.10
37.65
36.21
34.65
32.80
30.48
27.52
23.77
19.15
13.71
7.58
1.05
-5.48
-11.65
-17.16
-21.89
-25.89
-29.38
-32.71
-36.24
-40.24
-44.78
-49.63
-54.25
-57.85
-59.57
-58.66
-54.77
-48.00
-38.89
-28.30
-17.16
-6.30
3.65
12.34
19.69
25.78
30.84
35.12
38.82
42.03
44.84
47.31
49.56
51.74
53.93
56.05
57.90
59.25
60.00
60.32
60.63
61.37
62.82
64.94
67.33
69.42
70.65
70.63
69.22
66.53
62.94
58.96
55.11
51.64
48.35
44.56
39.34
31.95
22.19
10.61
-1.68
-13.28
-22.89
-29.36
-31.78
-29.45
-22.01
-9.67
6.62
25.17
43.89
60.68
74.01
83.09
87.93
89.12
87.67
84.83
81.97
80.23
79.99
80.60
80.48
77.83
71.62
62.36
52.10
43.49
38.57
37.63
39.05
40.06
37.85
30.67
18.13
1.25
-17.69
-35.45
-48.66
-55.02
-54.63
-50.50
-47.65
-50.99
-62.80
-81.48
-102.27
-119.63
-129.95
-132.89
-130.90
-127.13
-123.49
-119.93
-115.10
-107.83
-98.18
-87.49
-77.59
-69.84
-64.51
-60.81
-57.63
-54.08
-49.89
-45.32
-40.93
-37.17
-34.15
-31.72
-29.51
-27.33
-25.16
-23.13
-21.39
-20.02
-18.97
-18.12
-17.36
-16.60
-16.11
-16.12
-16.77
-18.13
-20.26
-23.26
-27.28
-32.25
-37.86
-44.25
-51.44
-59.28
-67.57
-76.24
-85.47
-95.60
-106.84
-119.03
-132.88
-148.38
-164.43
-179.09
-190.47
-197.61
-201.00
-202.17
-203.04
-207.21
-216.82
-231.46
-248.45
-264.27
-276.33
-283.79
-287.24
-287.93
-289.46
-293.99
-300.63
-305.83
-304.89
-293.99
-271.08
-235.68
-172.38
-75.93
46.54
176.59
292.63
379.84
433.92
458.88
462.99
455.20
441.91
424.80
404.38
381.56
357.79
334.33
311.47
288.98
266.62
242.50
215.14
185.60
156.57
131.07
110.76
94.76
80.66
66.20
49.33
30.12
11.35
-2.96
-9.90
-6.06
5.78
17.58
20.50
9.39
-14.90
-46.94
-80.31
-110.23
-139.10
-167.69
-195.19
-219.28
-238.16
-252.41
-265.28
-280.69
-301.25
-320.43
-330.64
-324.31
-295.99
-244.41
-172.89
-87.81
4.09
96.48
182.90
254.06
297.26
303.50
274.46
223.81
170.99
132.57
117.83
122.60
138.09
155.93
171.26
182.73
190.96
193.24
188.17
175.25
155.06
129.67
101.61
73.52
47.23
23.44
1.99
-16.95
-33.09
-46.04
-54.69
-58.03
-55.38
-46.93
-33.72
-17.69
-0.62
15.61
29.46
40.64
49.38
56.09
60.69
62.72
61.19
55.32
43.95
24.84
-1.34
-31.09
-59.45
-82.69
-99.11
-110.96
-119.26
-124.29
-125.99
-124.28
-119.99
-113.17
-105.71
-99.64
-96.19
-94.81
-94.05
-92.16
-87.83
-81.15
-73.75
-68.40
-67.30
-71.18
-78.72
-87.52
-95.01
-99.27
-99.74
-96.99
-92.19
-85.70
-76.71
-63.54
-45.09
-21.81
4.12
29.36
50.71
66.24
75.89
81.01
83.29
83.73
82.38
78.82
72.74
64.37
54.34
43.42
32.12
20.58
8.78
-3.19
-14.73
-24.78
-31.98
-35.11
-33.45
-27.12
-17.09
-4.86
8.03
20.54
32.25
43.25
53.72
63.64
72.67
80.37
86.41
90.74
93.54
94.99
95.20
94.16
91.80
88.28
83.98
79.44
75.25
71.77
69.04
66.79
64.52
61.69
57.91
53.10
47.47
41.37
35.17
29.02
22.89
16.60
9.92
2.67
-5.20
-13.55
-22.13
-30.56
-38.52
-45.83
-52.59
-59.18
-66.13
-73.90
-82.62
-91.86
-100.75
-108.04
-112.46
-112.98
-109.06
-100.67
-88.35
-72.98
-55.63
-37.34
-18.92
-0.97
16.10
31.93
46.16
58.39
68.35
76.05
81.76
85.99
89.20
91.61
93.19
93.75
93.19
91.66
89.52
87.23
85.11
83.21
81.33
79.15
76.38
72.84
68.54
63.66
58.46
53.20
48.06
43.04
37.95
32.49
26.45
19.82
12.86
5.86
-0.94
-7.52
-14.17
-21.28
-29.19
-38.06
-47.85
-58.34
-69.17
-79.78
-89.27
-96.47
-100.10
-99.12
-93.07
-82.30
-67.87
-51.25
-33.93
-17.14
-1.73
11.86
23.38
32.83
40.28
45.91
49.85
52.24
53.09
52.51
50.66
47.86
44.51
40.99
37.63
34.58
31.90
29.57
27.48
25.48
23.28
20.64
17.37
13.42
8.96
4.23
-0.50
-5.12
-9.61
-14.06
-18.58
-23.26
-28.11
-33.09
-38.06
-42.88
-47.47
-51.86
-56.27
-60.96
-66.06
-71.29
-75.84
-78.55
-78.22
-74.05
-65.97
-54.62
-41.12
-26.69
-12.34
1.24
13.57
24.31
33.16
39.92
44.58
47.36
48.67
48.96
48.62
47.98
47.23
46.56
46.07
45.84
45.84
45.93
45.87
45.41
44.37
42.68
40.38
37.57
34.32
30.68
26.64
22.17
17.26
11.93
6.27
0.39
-5.58
-11.51
-17.39
-23.25
-29.30
-35.78
-42.87
-50.47
-58.01
-64.52
-68.79
-69.74
-66.72
-59.73
-49.36
-36.59
-22.54
-8.22
5.51
17.98
28.73
37.52
44.37
49.50
53.23
55.86
57.53
58.29
58.18
57.29
55.91
54.39
53.06
52.13
51.62
51.39
51.22
50.89
50.24
49.19
47.72
45.83
43.55
40.84
37.68
33.97
29.61
24.48
18.48
11.62
4.03
-3.98
-11.99
-19.63
-26.77
-33.63
-40.71
-48.58
-57.60
-67.61
-77.87
-87.20
-94.24
-97.83
-97.30
-92.61
-84.24
-73.09
-60.12
-46.28
-32.37
-19.04
-6.80
4.01
13.26
21.07
27.68
33.36
38.25
42.33
45.49
47.65
48.89
49.36
49.27
48.77
47.95
46.86
45.60
44.33
43.14
42.00
40.66
38.71
35.73
31.50
26.19
20.22
14.21
8.60
3.53
-1.18
-5.90
-10.93
-16.41
-22.23
-28.14
-33.89
-39.28
-44.23
-48.75
-53.03
-57.42
-62.44
-68.58
-76.02
-84.43
-92.80
-99.70
-103.57
-103.24
-98.29
-89.21
-77.26
-64.07
-51.13
-39.43
-29.27
-20.35
-12.15
-4.21
3.59
11.05
17.79
23.46
27.98
31.51
34.35
36.81
39.03
40.87
42.02
42.13
40.99
38.73
35.73
32.49
29.39
26.50
23.62
20.42
16.72
12.60
8.40
4.48
0.97
-2.27
-5.66
-9.58
-14.14
-19.00
-23.54
-27.14
-29.65
-31.60
-34.02
-38.06
-44.41
-52.97
-62.99
-73.25
-82.49
-89.76
-94.36
-95.80
-93.79
-88.31
-79.70
-68.76
-56.56
-44.12
-32.21
-21.15
-10.90
-1.34
7.58
15.71
22.69
28.18
31.92
33.90
34.34
33.65
32.20
30.26
27.98
25.44
22.77
20.21
18.02
16.30
15.00
13.92
12.95
12.14
11.65
11.58
11.71
11.55
10.49
8.16
4.61
0.24
-4.49
-9.36
-14.41
-19.87
-25.93
-32.55
-39.54
-46.71
-53.87
-60.66
-66.40
-70.06
-70.48
-66.87
-59.13
-47.93
-34.51
-20.10
-5.59
8.52
22.02
34.69
46.15
55.96
63.76
69.43
73.19
75.43
76.60
76.99
76.78
76.00
74.65
72.78
70.51
67.99
65.37
62.75
60.13
57.37
54.29
50.67
46.42
41.56
36.26
30.76
25.26
19.90
14.67
9.48
4.18
-1.32
-7.04
-12.96
-18.98
-25.05
-31.11
-37.16
-43.28
-49.60
-56.31
-63.57
-71.41
-79.55
-87.43
-94.13
-98.60
-99.88
-97.36
-90.99
-81.29
-69.19
-55.79
-42.09
-28.82
-16.41
-5.00
5.41
14.89
23.44
30.96
37.25
42.06
45.22
46.74
46.93
46.25
45.24
44.30
43.58
43.10
42.82
42.78
43.06
43.64
44.33
44.78
44.63
43.65
41.89
39.64
37.29
35.17
33.46
32.18
31.24
30.55
29.92
29.09
27.56
24.76
20.24
13.89
6.14
-2.21
-10.28
-17.56
-24.14
-30.69
-37.97
-46.31
-55.26
-63.56
-69.65
-72.23
-70.74
-65.44
-57.18
-46.93
-35.45
-23.29
-10.88
1.25
12.47
22.14
29.95
36.02
40.88
45.18
49.40
53.67
57.76
61.29
63.89
65.33
65.48
64.25
61.58
57.42
51.88
45.25
38.07
30.87
24.05
17.67
11.43
4.81
-2.65
-11.07
-20.18
-29.44
-38.37
-46.78
-54.85
-62.94
-71.27
-79.69
-87.57
-94.13
-98.80
-101.50
-102.73
-103.27
-103.72
-104.13
-103.90
-101.98
-97.41
-89.75
-79.25
-66.66
-52.79
-38.12
-22.68
-6.29
10.92
28.30
44.71
58.95
70.25
78.59
84.59
89.16
93.12
96.92
100.54
103.38
104.24
101.36
93.03
78.41
58.40
35.85
14.91
-0.42
-7.75
-6.97
0.03
10.54
22.23
33.69
44.16
52.86
58.47
59.31
54.08
42.55
25.93
6.48
-13.36
-31.74
-47.96
-62.30
-75.51
-88.11
-99.93
-110.00
-116.95
-119.57
-117.18
-109.93
-98.67
-84.66
-69.28
-53.75
-38.92
-25.33
-13.14
-2.30
7.34
15.92
23.45
29.91
35.33
39.86
43.73
47.15
50.16
52.57
54.10
54.61
54.28
53.63
53.29
53.80
55.36
57.84
60.89
64.15
67.37
70.44
73.35
76.21
79.20
82.57
86.52
90.89
95.21
98.65
100.39
99.92
97.28
93.03
87.87
82.42
76.88
71.11
64.91
58.19
51.05
43.70
36.48
29.81
24.14
19.50
14.94
8.15
-4.19
-25.22
-56.15
-94.92
-136.27
-173.21
-199.56
-212.03
-211.04
-199.94
-183.07
-164.04
-144.77
-125.86
-107.29
-89.34
-72.67
-58.16
-46.45
-37.44
-30.42
-24.47
-18.98
-14.08
-10.73
-10.30
-13.81
-21.42
-32.17
-44.39
-56.40
-67.12
-76.44
-85.12
-94.39
-105.48
-119.15
-135.24
-152.60
-169.15
-182.37
-190.02
-190.65
-184.00
-170.93
-153.01
-132.06
-109.82
-87.90
-67.90
-51.47
-40.19
-35.16
-36.55
-43.31
-53.67
-65.91
-79.17
-93.53
-109.34
-125.98
-140.98
-150.23
-149.35
-135.67
-109.64
-74.97
-37.16
-1.51
28.51
51.89
69.61
83.76
97.03
112.50
133.46
162.31
198.93
239.11
274.28
293.42
286.79
250.37
188.39
112.60
38.38
-20.56
-56.33
-68.25
-61.14
-42.16
-17.96
6.75
29.02
46.99
59.44
65.89
66.93
64.11
59.44
54.46
49.71
44.71
38.73
31.46
23.44
15.86
10.09
7.05
6.77
8.34
10.25
10.90
8.96
3.54
-5.90
-19.84
-38.80
-63.41
-94.21
-131.21
-173.33
-218.24
-262.53
-302.37
-334.62
-357.61
-371.40
-377.11
-375.84
-367.62
-351.15
-324.39
-285.59
-234.31
-171.65
-100.00
-22.55
57.08
134.77
205.99
266.36
312.72
344.15
362.45
371.42
375.26
376.93
377.27
375.22
369.00
357.32
340.18
318.77
294.95
270.62
247.34
226.29
208.30
193.88
183.18
176.03
172.01
170.63
171.40
173.79
176.96
179.67
180.37
177.57
170.49
159.37
145.55
130.90
116.98
104.39
92.51
79.91
65.00
46.54
23.89
-2.98
-33.42
-66.09
-98.72
-128.38
-151.97
-167.20
-173.18
-170.62
-161.33
-147.31
-130.10
-110.57
-89.37
-67.45
-46.34
-27.85
-13.47
-3.64
2.53
6.97
11.94
19.11
28.95
40.60
52.46
62.95
71.23
77.42
82.29
86.56
90.38
93.13
93.76
91.42
85.86
77.60
67.65
57.11
46.97
38.11
31.36
27.43
26.71
28.75
32.17
34.98
35.27
32.13
25.99
18.44
11.33
6.00
2.78
1.13
0.20
-0.62
-1.46
-2.19
-2.74
-3.35
-4.50
-6.69
-10.15
-14.71
-19.90
-25.09
-29.76
-33.65
-36.81
-39.51
-42.07
-44.77
-47.70
-50.77
-53.76
-56.39
-58.38
-59.58
-59.93
-59.53
-58.60
-57.38
-56.15
-55.10
-54.33
-53.78
-53.38
-53.01
-52.72
-52.73
-53.38
-55.08
-58.13
-62.50
-67.73
-72.90
-76.87
-78.51
-77.10
-72.41
-64.80
-55.02
-43.92
-32.34
-20.99
-10.51
-1.47
5.72
10.90
14.26
16.26
17.41
18.09
18.41
18.33
17.78
16.80
15.62
14.52
13.70
13.22
13.04
13.01
13.01
12.89
12.53
11.88
10.94
9.74
8.35
6.75
4.82
2.39
-0.72
-4.53
-8.93
-13.63
-18.32
-22.73
-26.78
-30.57
-34.40
-38.69
-43.86
-50.11
-57.27
-64.63
-71.03
-75.10
-75.72
-72.34
-65.27
-55.49
-44.31
-33.01
-22.49
-13.21
-5.26
1.44
7.11
11.95
16.20
20.09
23.71
26.98
29.59
31.21
31.66
31.08
29.93
28.82
28.22
28.25
28.71
29.19
29.30
28.75
27.35
24.94
21.33
16.38
10.21
3.22
-4.00
-10.88
-17.19
-23.07
-28.89
-34.94
-41.22
-47.37
-52.91
-57.49
-61.23
-64.63
-68.47
-73.36
-79.57
-86.79
-94.25
-100.88
-105.57
-107.41
-105.80
-100.52
-91.75
-79.98
-65.98
-50.66
-35.02
-19.98
-6.31
5.53
15.34
23.23
29.51
34.50
38.50
41.73
44.33
46.36
47.92
49.12
50.12
50.99
51.75
52.31
52.43
51.87
50.39
47.93
44.63
40.77
36.68
32.58
28.40
23.85
18.52
12.16
4.83
-2.99
-10.69
-17.72
-23.82
-29.23
-34.50
-40.29
-47.10
-55.06
-63.81
-72.62
-80.42
-86.00
-88.23
-86.31
-79.99
-69.64
-56.19
-40.86
-24.82
-8.99
6.03
19.93
32.49
43.48
52.67
59.90
65.14
68.53
70.38
71.01
70.74
69.84
68.57
67.19
65.90
64.83
63.98
63.16
62.04
60.25
57.51
53.74
49.08
43.79
38.09
32.06
25.59
18.54
10.83
2.57
-5.99
-14.56
-22.95
-31.19
-39.47
-48.12
-57.49
-67.81
-79.02
-90.62
-101.52
-110.18
-114.87
-114.26
-107.78
-95.86
-79.85
-61.50
-42.52
-24.26
-7.49
7.45
20.48
31.64
41.04
48.82
55.14
60.07
63.65
65.90
66.92
66.95
66.37
65.54
64.72
63.91
62.94
61.59
59.71
57.32
54.50
51.30
47.71
43.61
38.86
33.40
27.25
20.55
13.51
6.39
-0.57
-7.20
-13.47
-19.54
-25.76
-32.60
-40.51
-49.71
-59.97
-70.49
-79.85
-86.31
-88.15
-84.27
-74.50
-59.76
-41.78
-22.57
-3.82
13.47
29.05
43.21
56.38
68.79
80.30
90.45
98.68
104.60
108.13
109.63
109.76
109.32
108.94
108.91
109.03
108.79
107.47
104.44
99.40
92.56
84.72
77.19
71.45
68.67
69.17
72.08
75.44
76.74
73.84
65.67
52.55
35.87
17.39
-1.44
-19.95
-38.07
-55.96
-73.45
-89.91
-104.24
-115.24
-121.92
-123.77
-120.84
-113.65
-103.03
-90.05
-75.87
-61.59
-48.21
-36.48
-26.82
-19.35
-13.94
-10.28
-8.07
-7.05
-7.06
-7.95
-9.54
-11.55
-13.70
-15.66
-17.25
-18.45
-19.35
-20.09
-20.72
-21.22
-21.57
-21.89
-22.42
-23.56
-25.64
-28.78
-32.79
-37.31
-41.86
-46.14
-50.03
-53.61
-57.15
-60.97
-65.45
-70.88
-77.43
-84.84
-92.38
-98.83
-102.70
-102.69
-98.00
-88.65
-75.36
-59.39
-42.11
-24.73
-8.17
6.98
20.45
32.11
41.98
50.12
56.62
61.64
65.31
67.83
69.44
70.37
70.81
70.87
70.57
69.85
68.73
67.30
65.70
64.08
62.48
60.73
58.48
55.31
50.94
45.34
38.77
31.66
24.45
17.38
10.43
3.37
-4.13
-12.36
-21.46
-31.39
-41.85
-52.27
-61.74
-69.08
-73.03
-72.66
-67.55
-58.12
-45.49
-31.15
-16.59
-2.91
9.34
20.08
29.45
37.64
44.70
50.61
55.36
59.09
62.07
64.61
66.97
69.15
70.94
72.05
72.23
71.42
69.81
67.62
65.08
62.17
58.72
54.49
49.35
43.37
36.82
30.07
23.38
16.84
10.32
3.61
-3.50
-11.19
-19.64
-28.91
-38.95
-49.31
-59.03
-66.73
-70.93
-70.59
-65.47
-56.27
-44.33
-31.22
-18.17
-5.90
5.33
15.47
24.44
32.02
37.94
42.03
44.38
45.29
45.24
44.69
43.98
43.24
42.47
41.56
40.44
39.07
37.51
35.83
34.06
32.24
30.36
28.29
25.84
22.70
18.53
13.07
6.35
-1.35
-9.44
-17.31
-24.49
-30.88
-36.74
-42.60
-49.05
-56.43
-64.67
-73.17
-80.84
-86.36
-88.55
-86.69
-80.72
-71.25
-59.34
-46.16
-32.81
-20.07
-8.48
1.65
10.19
17.17
22.78
27.21
30.64
33.14
34.73
35.44
35.42
34.99
34.52
34.34
34.56
35.07
35.63
35.98
35.95
35.48
34.60
33.30
31.54
29.23
26.35
22.88
18.91
14.53
9.79
4.66
-0.96
-7.18
-14.04
-21.48
-29.33
-37.35
-45.17
-52.29
-57.99
-61.40
-61.58
-57.91
-50.27
-39.20
-25.88
-11.72
1.94
14.22
24.76
33.60
40.89
46.68
50.82
53.09
53.37
51.80
48.84
