1677741892.00
64.000000
-0.00
-0.00
-0.00
-0.00
-0.00
-0.00
-0.00
-0.00
-0.00
-0.00
0.00
0.01
0.01
-0.00
-0.03
-0.05
-0.05
0.00
0.13
0.36
0.66
1.01
1.37
1.72
2.06
2.40
2.79
3.24
3.80
4.42
5.06
5.66
6.20
6.68
7.15
7.68
8.31
9.14
10.09
11.04
11.88
12.56
13.14
13.76
14.65
15.96
17.91
20.32
22.90
25.38
27.58
29.57
31.68
34.32
37.81
42.54
48.15
54.10
59.83
64.97
69.58
74.14
79.34
85.71
93.76
103.00
112.62
121.73
129.77
136.75
143.30
150.75
157.77
166.64
177.95
191.79
206.97
220.57
228.25
225.36
208.53
176.87
132.76
80.05
23.07
-34.94
-92.44
-149.16
-205.23
-260.37
-313.74
-363.87
-409.82
-450.88
-486.45
-515.67
-537.13
-549.08
-549.78
-538.14
-513.93
-478.34
-433.48
-381.99
-326.49
-269.25
-211.97
-155.92
-102.14
-51.48
-4.92
36.65
72.59
102.62
126.89
145.89
160.35
170.96
178.35
182.93
184.97
184.71
182.42
178.45
173.20
167.09
160.47
153.58
146.56
139.50
132.42
125.37
118.42
111.64
105.09
98.84
92.91
87.32
82.08
77.20
72.69
68.55
64.80
61.43
58.47
55.90
53.72
51.92
50.48
49.35
48.47
47.72
46.98
46.09
44.86
43.13
40.74
37.59
33.61
28.85
23.35
17.26
10.79
4.21
-2.24
-8.27
-13.67
-18.25
-21.89
-24.52
-26.14
-26.81
-26.63
-25.73
-24.24
-22.32
-20.08
-17.63
-15.05
-12.39
-9.70
-7.01
-4.33
-1.67
1.00
3.69
6.42
9.22
12.13
15.09
18.10
21.13
24.19
27.28
30.44
33.69
37.09
40.72
44.52
48.45
52.52
56.75
61.15
65.74
70.55
75.60
81.00
86.58
92.30
98.12
104.01
109.95
115.91
121.85
127.76
133.67
139.33
144.55
149.18
153.03
155.83
157.19
156.59
153.26
148.53
142.89
136.71
130.25
123.68
117.04
110.26
103.19
95.70
87.78
79.23
70.11
60.61
50.98
41.37
31.86
22.43
13.12
4.14
-4.32
-11.83
-17.90
-22.24
-24.88
-26.31
-27.27
-28.54
-30.67
-33.95
-38.29
-43.40
-48.99
-54.99
-61.55
-69.01
-77.78
-88.43
-101.67
-118.06
-137.41
-158.28
-177.89
-192.85
-200.55
-200.56
-195.16
-188.63
-185.44
-188.42
-197.66
-210.80
-224.36
-235.35
-242.40
-245.81
-247.05
-247.86
-249.66
-253.19
-258.66
-266.04
-275.18
-286.25
-299.70
-316.30
-337.12
-363.54
-397.09
-438.68
-487.45
-539.43
-587.18
-621.05
-631.89
-614.37
-568.95
-501.48
-420.66
-334.51
-247.93
-162.29
-77.05
7.99
91.42
170.59
242.96
307.71
366.07
420.68
474.33
529.18
586.37
645.96
706.56
764.88
815.47
851.62
867.20
858.93
827.88
779.07
719.68
656.42
593.75
533.62
476.53
422.87
373.61
329.77
291.50
257.43
225.01
191.65
156.01
118.63
81.65
47.82
19.06
-4.46
-24.41
-43.63
-64.90
-89.70
-117.67
-146.85
-174.57
-198.74
-218.65
-235.20
-250.35
-266.40
-285.29
-308.21
-335.24
-365.02
-394.48
-418.86
-432.50
-430.19
-409.04
-369.58
-315.92
-254.67
-193.27
-138.64
-96.58
-71.80
-68.10
-88.24
-133.00
-200.09
-283.35
-372.92
-456.77
-523.15
-563.35
-573.61
-555.65
-515.35
-460.56
-398.65
-334.94
-272.45
-212.59
-156.10
-103.61
-55.61
-11.96
28.24
66.38
103.67
140.86
178.24
215.97
254.18
292.63
330.09
363.66
388.80
400.22
393.56
366.98
322.19
264.50
201.78
143.02
96.82
70.17
67.14
87.74
126.84
174.33
216.84
241.36
239.61
211.08
163.42
109.43
61.80
28.35
10.01
2.21
-1.25
-4.40
-7.60
-8.49
-4.66
4.25
16.22
28.34
38.82
47.98
57.89
70.63
86.82
105.02
122.53
136.77
146.25
150.63
149.94
143.61
130.21
108.16
77.03
38.67
-2.59
-40.88
-70.68
-88.65
-94.54
-90.93
-81.71
-70.51
-59.69
-50.35
-42.99
-38.35
-37.61
-41.98
-51.83
-66.00
-81.64
-94.81
-101.73
-99.90
-88.87
-70.35
-47.47
-23.97
-3.30
12.10
20.99
23.43
20.74
15.24
9.76
6.95
8.49
14.66
24.39
36.02
48.14
60.01
71.45
82.32
92.04
99.44
103.12
101.78
94.61
81.48
63.12
41.20
18.34
-2.37
-18.20
-27.61
-30.82
-29.65
-26.93
-25.69
-28.45
-36.74
-50.72
-68.98
-88.67
-106.16
-118.16
-122.92
-120.84
-114.00
-104.94
-95.48
-86.00
-75.96
-64.92
-53.50
-43.49
-37.14
-36.07
-40.46
-49.07
-59.86
-70.91
-80.85
-88.82
-93.99
-95.29
-91.56
-82.15
-67.70
-50.33
-33.15
-19.30
-10.82
-8.09
-9.98
-14.68
-20.61
-27.03
-34.08
-42.29
-51.99
-62.73
-73.18
-81.27
-84.72
-81.66
-71.29
-54.34
-33.00
-10.40
10.28
26.83
38.51
46.11
51.26
55.54
59.73
63.62
66.30
66.87
64.98
60.94
55.45
49.06
41.89
33.63
24.01
13.32
2.62
-6.55
-12.76
-15.32
-14.65
-12.01
-9.00
-6.94
-6.55
-8.05
-11.49
-17.11
-25.25
-35.82
-47.64
-58.04
-63.22
-59.51
-44.84
-19.94
11.47
43.70
70.75
88.03
93.43
87.44
72.68
53.14
33.37
17.68
9.26
9.44
17.23
29.67
42.88
53.42
59.44
61.05
59.99
58.76
59.52
63.38
70.08
78.23
85.81
90.88
92.20
89.36
82.58
72.26
58.55
41.32
20.65
-2.58
-26.37
-47.80
-63.89
-72.43
-72.74
-65.65
-53.06
-37.37
-20.82
-5.26
7.89
17.47
22.56
22.59
17.48
7.94
-4.63
-18.32
-31.13
-41.35
-47.72
-49.58
-46.79
-39.64
-28.86
-15.55
-1.01
13.41
26.57
37.71
46.39
52.37
55.47
55.51
52.46
46.58
38.54
29.32
19.89
10.82
1.93
-7.72
-19.37
-33.86
-50.92
-68.78
-84.54
-95.00
-97.68
-91.68
-77.83
-58.33
-35.97
-13.40
7.25
24.47
37.22
44.84
47.12
44.52
38.12
29.51
20.37
12.05
5.35
0.45
-2.89
-5.17
-6.99
-8.94
-11.60
-15.36
-20.33
-26.15
-32.09
-37.26
-41.00
-43.22
-44.43
-45.59
-47.72
-51.44
-56.72
-62.81
-68.43
-72.10
-72.55
-68.94
-61.06
-49.18
-34.00
-16.40
2.72
22.51
42.16
60.91
77.87
91.95
101.97
106.86
106.12
100.23
90.81
80.49
72.20
68.31
69.96
76.76
86.96
98.10
107.69
113.83
115.45
112.33
104.78
93.22
77.74
57.99
33.36
3.41
-31.44
-69.56
-108.06
-143.31
-171.71
-190.58
-198.64
-196.19
-184.90
-167.30
-146.29
-124.50
-103.88
-85.27
-68.40
-52.21
-35.46
-17.46
1.38
19.64
35.32
46.85
53.62
56.38
56.66
56.02
55.27
54.22
52.05
47.98
41.96
34.66
27.16
20.30
14.19
8.23
1.45
-6.99
-17.55
-30.22
-44.73
-60.52
-76.59
-91.26
-102.14
-106.51
-102.19
-88.43
-66.47
-39.29
-10.76
15.61
37.65
54.88
68.13
78.68
87.43
94.44
98.94
99.85
96.34
88.28
76.40
62.24
47.70
34.69
24.69
18.49
15.96
16.14
17.43
18.05
16.55
12.31
5.68
-2.15
-9.66
-15.74
-20.23
-24.19
-29.41
-37.60
-49.30
-63.33
-76.84
-86.24
-88.43
-81.87
-67.08
-46.27
-22.50
1.38
23.33
42.36
58.25
71.10
80.99
87.84
91.59
92.36
90.62
87.11
82.65
77.89
73.11
68.31
63.38
58.40
53.69
49.65
46.49
43.80
40.65
35.77
28.15
17.54
4.61
-9.31
-22.77
-34.76
-45.20
-54.79
-64.82
-76.56
-90.74
-107.10
-124.15
-139.24
-149.07
-150.53
-141.70
-122.62
-95.51
-64.14
-32.76
-4.93
17.26
33.35
44.09
50.89
55.16
58.07
60.32
62.21
63.71
64.47
64.01
61.87
57.87
52.20
45.52
38.78
32.98
28.76
26.18
24.52
22.52
18.75
12.19
2.51
-9.83
-23.80
-38.19
-51.95
-64.50
-75.90
-86.70
-97.54
-108.60
-119.14
-127.43
-131.15
-128.24
-117.66
-99.87
-76.70
-50.79
-24.94
-1.50
17.86
32.31
41.79
46.95
49.02
49.37
49.19
49.06
49.05
48.90
48.45
47.76
47.15
46.88
47.04
47.48
47.95
48.30
48.48
48.37
47.56
45.34
40.87
33.63
23.89
12.73
1.74
-7.66
-14.90
-20.63
-26.46
-34.37
-45.72
-60.42
-76.64
-91.17
-100.29
-101.03
-92.20
-74.84
-51.86
-26.98
-3.55
16.41
32.41
45.07
55.25
63.36
69.17
72.10
71.76
68.39
62.86
56.27
49.50
42.99
36.93
31.59
27.47
25.24
25.18
26.86
29.04
30.10
28.60
23.79
15.63
4.59
-8.60
-23.05
-37.64
-51.01
-61.72
-68.77
-72.06
-72.57
-72.04
-72.12
-73.60
-75.97
-77.64
-76.59
-71.21
-60.82
-45.82
-27.41
-7.20
13.22
32.60
50.17
65.68
79.37
91.82
103.66
115.21
126.24
135.88
142.83
145.94
144.61
139.16
130.80
121.26
112.14
104.41
98.14
92.64
86.87
79.85
70.99
60.06
47.11
32.32
16.10
-0.86
-17.63
-33.13
-46.66
-58.29
-69.04
-80.61
-94.68
-111.90
-131.07
-148.83
-160.20
-160.06
-144.97
-114.71
-72.73
-25.25
20.67
59.20
87.09
103.91
111.28
111.78
108.02
102.15
95.82
90.01
84.87
79.47
71.97
60.26
42.92
20.01
-6.69
-34.28
-59.79
-81.22
-98.06
-111.02
-121.13
-128.97
-134.15
-135.68
-132.76
-125.63
-115.83
-105.84
-98.14
-94.37
-94.87
-98.68
-103.91
-108.35
-109.80
-106.51
-97.36
-82.13
-61.53
-37.07
-10.80
15.26
39.42
60.68
78.62
93.13
104.08
111.10
113.69
111.52
104.81
94.51
82.11
69.27
57.28
46.89
38.34
31.68
26.93
24.11
22.89
22.37
21.16
17.81
11.60
3.00
-6.28
-13.99
-18.24
-18.38
-15.33
-11.23
-8.75
-10.28
-17.38
-30.48
-48.68
-69.72
-90.11
-105.68
-112.49
-108.08
-92.44
-68.16
-39.74
-12.20
10.41
25.93
34.28
36.92
36.09
33.97
32.21
31.73
32.66
34.44
35.93
35.69
32.24
24.43
11.86
-4.94
-24.37
-44.05
-61.38
-74.19
-81.43
-83.46
-81.97
-79.43
-78.37
-80.57
-86.67
-96.30
-108.54
-122.49
-137.61
-153.72
-170.59
-187.48
-202.85
-214.28
-218.64
-212.70
-194.14
-162.63
-120.77
-74.38
-31.37
0.51
16.50
16.98
7.79
-1.62
-1.62
14.09
46.24
89.97
136.58
176.22
200.44
203.73
184.26
143.91
88.08
25.19
-34.59
-81.22
-107.44
-111.00
-95.57
-69.49
-42.74
-23.44
-15.18
-16.76
-23.79
-31.36
-36.12
-36.98
-34.50
-29.67
-23.25
-15.72
-7.77
-0.43
5.36
9.82
14.92
24.15
41.16
67.84
102.94
141.84
177.72
203.47
213.85
206.58
182.38
144.08
95.46
40.36
-17.67
-75.24
-129.10
-176.38
-215.14
-244.81
-266.25
-281.16
-291.20
-297.22
-299.05
-295.89
-287.07
-272.79
-254.30
-233.68
-213.25
-195.02
-180.24
-169.32
-161.87
-156.96
-153.37
-149.88
-145.57
-140.04
-133.45
-126.25
-118.95
-111.70
-104.12
-95.44
-84.69
-70.85
-53.01
-30.60
-3.89
25.41
53.97
77.41
91.75
95.20
89.23
78.19
67.60
61.86
62.67
69.11
78.97
90.68
104.35
121.49
143.60
170.74
200.86
230.38
255.52
273.69
284.00
287.32
285.38
279.97
272.56
264.24
255.99
248.93
244.25
242.82
244.75
249.13
254.27
258.19
259.31
256.78
250.61
241.34
229.70
216.37
201.92
186.93
172.21
158.78
147.59
139.09
132.57
126.09
116.89
102.28
80.97
53.76
23.51
-5.84
-30.70
-48.98
-60.58
-66.89
-69.99
-71.92
-74.25
-78.11
-84.07
-92.00
-100.78
-108.34
-112.09
-109.88
-100.71
-85.27
-65.62
-44.49
-24.40
-7.01
6.99
17.69
25.61
31.41
35.65
38.76
41.04
42.61
43.57
44.07
44.49
45.29
46.92
49.51
52.70
55.67
57.44
57.17
54.46
49.45
42.68
34.91
26.92
19.31
12.43
6.23
0.29
-6.17
-13.89
-23.21
-33.74
-44.34
-53.34
-59.09
-60.43
-57.00
-49.27
-38.34
-25.52
-12.13
0.80
12.47
22.34
30.04
35.23
37.76
37.64
35.18
31.09
26.41
22.30
19.80
19.51
21.57
25.58
30.82
36.37
41.27
44.62
45.64
43.76
38.72
30.74
20.57
9.35
-1.62
-11.43
-19.84
-27.37
-35.00
-43.47
-52.77
-61.84
-68.85
-71.92
-69.78
-62.28
-50.40
-35.78
-20.25
-5.30
7.98
19.01
27.53
33.59
37.40
39.39
40.09
40.05
39.72
39.42
39.22
39.12
39.04
38.97
38.89
38.77
38.48
37.77
36.31
33.89
30.44
26.13
21.26
16.24
11.44
7.18
3.64
0.76
-1.85
-4.86
-8.94
-14.35
-20.54
-26.16
-29.30
-28.23
-22.05
-10.96
3.81
20.48
37.24
52.52
65.11
74.12
79.03
79.76
76.75
70.86
63.13
54.52
45.78
37.41
29.77
23.13
17.57
12.97
9.00
5.23
1.33
-2.76
-6.94
-11.05
-15.15
-19.61
-25.03
-32.02
-40.90
-51.54
-63.43
-75.80
-87.84
-98.85
-108.19
-115.19
-119.02
-118.80
-113.79
-103.82
-89.55
-72.48
-54.52
-37.53
-22.82
-10.95
-1.89
4.67
9.00
11.23
11.41
9.72
6.62
2.85
-0.64
-3.04
-3.81
-2.89
-0.66
2.22
5.08
7.53
9.55
11.40
13.38
15.51
17.46
18.66
18.59
16.98
13.84
9.24
3.17
-4.46
-13.54
-23.47
-32.93
-40.20
-43.75
-42.85
-37.85
-29.97
-20.73
-11.35
-2.48
5.74
13.36
20.28
26.21
30.82
33.93
35.75
36.72
37.40
38.19
39.23
40.35
41.25
41.67
41.46
40.63
39.20
37.04
33.97
29.79
24.58
18.77
13.02
7.95
3.69
-0.15
-4.38
-9.79
-16.64
-24.46
-32.12
-38.23
-41.53
-41.26
-37.31
-30.14
-20.69
-10.18
0.11
9.08
15.94
20.28
22.10
21.65
19.41
16.04
12.35
9.14
7.11
6.60
7.50
9.22
10.88
11.64
10.97
8.77
5.29
1.01
-3.66
-8.42
-13.25
-18.25
-23.69
-29.85
-36.88
-44.71
-52.80
-60.13
-65.34
-67.19
-64.83
-58.23
-48.15
-35.85
-22.71
-9.84
2.07
12.71
21.91
29.46
35.00
38.16
38.73
36.88
33.26
28.87
24.82
21.92
20.49
20.28
20.71
21.17
21.29
20.97
20.33
19.35
17.74
14.98
10.50
4.02
-4.27
-13.71
-23.42
-32.52
-40.24
-45.98
-49.18
-49.42
-46.48
-40.52
-32.15
-22.34
-12.16
-2.54
5.96
13.08
18.76
22.98
25.73
27.02
26.95
25.72
23.58
20.91
18.12
15.64
13.95
13.37
13.91
15.17
16.40
16.69
15.30
11.86
6.51
-0.23
-7.64
-15.06
-22.06
-28.43
-34.13
-39.19
-43.50
-46.80
-48.67
-48.57
-46.07
-41.01
-33.54
-24.17
-13.61
-2.67
7.94
17.56
25.65
31.78
35.69
37.35
36.96
35.05
32.31
29.54
27.37
26.12
25.66
25.48
24.92
23.34
20.39
16.10
10.78
4.92
-0.92
-6.33
-11.05
-15.12
-18.87
-22.91
-27.83
-33.98
-41.12
-48.39
-54.49
-58.07
-58.06
-54.09
-46.46
-36.15
-24.50
-12.91
-2.54
5.86
12.02
16.06
18.32
19.16
18.92
17.88
16.32
14.60
13.06
11.92
11.17
10.61
9.93
8.87
7.39
5.56
3.57
1.50
-0.72
-3.28
-6.43
-10.30
-14.87
-19.98
-25.40
-30.94
-36.39
-41.47
-45.68
-48.25
-48.33
-45.23
-38.79
-29.57
-18.71
-7.62
2.44
10.73
17.12
21.91
25.54
28.30
30.18
30.96
30.42
28.52
25.57
22.21
19.16
17.02
16.05
16.06
16.50
16.74
16.17
14.48
11.70
8.13
4.22
0.44
-2.86
-5.60
-8.00
-10.53
-13.77
-18.15
-23.62
-29.53
-34.63
-37.43
-36.69
-31.87
-23.37
-12.35
-0.36
11.16
21.20
29.21
35.04
38.73
40.44
40.45
39.26
37.54
35.96
34.93
34.43
33.91
32.58
29.79
25.36
19.75
13.94
9.00
5.69
4.11
3.69
3.45
2.33
-0.36
-4.85
-10.82
-17.57
-24.19
-29.69
-33.08
-33.52
-30.41
-23.69
-13.91
-2.15
10.21
21.85
31.88
39.96
46.20
50.89
54.29
56.50
57.44
57.02
55.20
52.09
47.91
42.97
37.67
32.40
27.49
23.13
19.26
15.64
11.94
7.91
3.48
-1.22
-5.98
-10.69
-15.33
-20.08
-25.17
-30.78
-36.92
-43.34
-49.52
-54.71
-58.06
-58.76
-56.30
-50.61
-42.10
-31.65
-20.32
-9.20
0.85
9.21
15.45
19.29
20.55
19.24
15.74
10.82
5.64
1.40
-0.98
-1.22
0.19
2.17
3.55
3.38
1.38
-2.15
-6.44
-10.67
-14.25
-17.00
-19.20
-21.37
-24.12
-27.91
-32.85
-38.64
-44.45
-49.10
-51.26
-49.87
-44.48
-35.53
-24.17
-12.04
-0.67
8.78
15.77
20.17
22.10
21.79
19.50
15.69
11.01
6.17
1.83
-1.67
-4.34
-6.42
-8.17
-9.65
-10.74
-11.14
-10.61
-9.17
-7.08
-4.94
-3.48
-3.47
-5.57
-10.11
-16.94
-25.32
-33.90
-41.03
-45.12
-45.11
-40.78
-32.73
-22.16
-10.40
1.34
12.17
21.56
29.07
34.44
37.47
38.26
37.20
34.97
32.33
29.91
28.02
26.64
25.51
24.28
22.72
20.72
18.34
15.65
12.71
9.51
5.97
1.97
-2.68
-8.21
-14.84
-22.68
-31.53
-40.82
-49.57
-56.59
-60.68
-61.04
-57.38
-50.09
-40.06
-28.46
-16.49
-5.17
4.89
13.42
20.45
26.16
30.67
34.01
36.09
36.81
36.26
34.68
32.51
30.17
27.97
25.98
24.09
22.15
20.06
17.78
15.36
12.80
10.03
6.91
3.22
-1.21
-6.51
-12.70
-19.72
-27.50
-35.87
-44.49
-52.70
-59.49
-63.61
-63.82
-59.39
-50.35
-37.68
-23.04
-8.31
4.95
15.81
24.12
30.23
34.78
38.34
41.25
43.61
45.33
46.21
46.13
45.09
43.25
40.87
38.22
35.48
32.71
29.80
26.61
22.99
18.87
14.27
9.23
3.86
-1.72
-7.37
-12.91
-18.29
-23.55
-28.87
-34.54
-40.68
-47.14
-53.30
-58.16
-60.54
-59.47
-54.49
-45.84
-34.41
-21.45
-8.32
3.91
14.53
23.22
29.96
34.86
38.09
39.84
40.31
39.69
38.19
35.98
33.21
30.07
26.68
23.18
19.59
15.90
12.02
7.84
3.33
-1.57
-6.87
-12.63
-18.90
-25.68
-32.83
-40.12
-47.33
-54.40
-61.56
-69.28
-78.03
-87.97
-98.66
-109.02
-117.54
-122.71
-123.41
-119.21
-110.35
-97.55
-81.72
-63.74
-44.44
-24.45
-4.42
15.02
33.20
49.37
62.75
72.56
78.27
79.80
77.77
73.45
68.64
65.13
64.23
66.34
70.83
76.32
81.08
83.66
83.34
80.22
75.09
68.97
62.71
56.74
51.11
45.65
40.23
34.85
29.50
23.98
17.89
10.84
2.75
-5.73
-13.29
-18.22
-19.05
-15.11
-6.75
4.86
18.20
31.82
44.57
55.54
64.04
69.50
71.72
71.09
68.71
66.18
65.12
66.57
70.61
76.27
81.98
86.16
87.83
86.89
83.94
79.81
75.07
69.73
63.28
54.96
44.14
30.65
14.95
-1.84
-18.06
-31.87
-41.64
-46.54
-46.86
-44.28
-41.56
-41.92
-48.18
-61.85
-82.51
-107.63
-132.91
-153.22
-163.93
-162.36
-148.61
-125.57
-98.06
-71.26
-49.24
-33.94
-25.01
-20.40
-17.29
-13.16
-6.49
2.93
14.15
25.42
34.71
40.26
41.10
37.37
30.40
22.32
15.47
11.52
10.73
11.80
12.29
9.68
2.48
-9.09
-23.22
-37.46
-49.92
-60.06
-68.70
-77.27
-86.70
-96.67
-105.63
-111.42
-112.28
-107.57
-97.92
-84.83
-70.01
-54.85
-40.21
-26.48
-13.81
-2.22
8.36
17.97
26.53
33.79
39.32
42.72
43.91
43.30
41.71
40.07
39.05
38.90
39.44
40.35
41.32
42.09
42.39
41.82
39.95
36.34
30.83
23.50
14.68
4.76
-5.94
-17.24
-29.03
-41.15
-53.23
-64.62
-74.36
-81.35
-84.46
-82.91
-76.38
-65.28
-50.55
-33.63
-16.03
0.94
16.32
29.64
40.72
49.53
56.07
60.19
61.78
60.86
57.74
52.99
47.41
41.73
36.46
31.78
27.52
23.34
18.85
13.75
7.86
1.20
-6.06
-13.57
-20.81
-27.21
-32.29
-35.85
-38.17
-39.94
-42.19
-45.90
-51.71
-59.64
-68.97
-78.37
-86.16
-90.61
-90.42
-84.98
-74.52
-60.13
-43.46
-26.31
-10.23
3.79
15.35
24.52
31.51
36.59
39.96
41.86
42.68
42.92
43.08
43.47
44.04
44.51
44.50
43.74
42.30
40.37
38.21
35.90
33.29
30.06
25.98
20.98
15.22
9.02
2.67
-3.64
-10.00
-16.67
-24.05
-32.48
-42.03
-52.28
-62.22
-70.32
-74.90
-74.57
-68.74
-57.87
-43.32
-26.98
-10.71
4.14
16.88
27.42
35.98
42.82
48.10
51.89
54.20
55.07
54.57
52.83
49.96
46.08
41.32
35.90
30.05
24.04
18.11
12.40
7.04
2.14
-2.07
-5.29
-7.25
-7.87
-7.47
-6.79
-6.78
-8.32
-11.72
-16.55
-21.61
-25.26
-25.89
-22.35
-14.15
-1.47
15.01
34.17
54.59
74.57
92.24
105.74
113.54
114.83
109.58
98.68
83.64
66.36
48.82
32.88
20.03
11.17
6.40
4.95
5.38
6.03
5.57
3.36
-0.41
-4.98
-9.55
-13.58
-17.05
-20.28
-23.69
-27.60
-32.17
-37.51
-43.90
-51.69
-61.05
-71.58
-82.00
-90.34
-94.62
-93.59
-87.46
-77.82
-67.08
-57.53
-50.63
-46.77
-45.67
-46.76
-49.50
-53.18
-56.62
-58.18
-56.11
-49.39
-38.46
-25.32
-12.92
-3.89
0.58
1.38
0.95
2.17
6.92
15.27
25.44
34.57
39.81
39.23
32.22
19.43
2.29
-17.30
-37.30
-55.48
-69.70
-78.10
-79.56
-74.01
-62.36
-46.19
-27.07
-6.23
15.53
37.59
58.98
78.11
92.88
101.18
101.56
93.85
79.35
60.62
40.84
23.07
9.58
1.39
-1.74
-0.85
2.76
8.10
14.70
22.48
31.35
40.83
49.94
57.52
62.55
64.54
63.76
61.03
57.52
54.39
52.65
53.00
55.74
60.70
67.12
73.69
78.72
80.59
78.33
71.98
62.78
52.90
44.93
41.15
43.03
50.93
64.12
81.18
100.40
120.27
139.69
157.98
174.73
189.54
201.94
211.45
217.78
221.11
222.14
221.90
221.36
221.00
220.58
219.21
215.76
209.32
199.59
186.96
172.17
155.99
138.86
120.90
102.18
83.03
64.18
46.56
30.96
17.57
5.85
-5.29
-17.02
-30.06
-44.29
-58.75
-71.89
-82.18
-88.66
-91.27
-90.99
-89.42
-88.28
-88.85
-91.55
-96.05
-101.39
-106.51
-110.59
-113.25
-114.72
-115.72
-117.30
-120.40
-125.28
-131.11
-135.99
-137.53
-133.90
-124.70
-111.32
-96.53
-83.37
-74.13
-69.60
-69.19
-71.40
-74.69
-77.89
-80.53
-82.68
-84.75
-87.26
-90.46
-94.19
-97.65
-99.59
-98.67
-93.96
-85.36
-73.65
-60.25
-46.75
-34.55
-24.57
-17.23
-12.57
-10.38
-10.26
-11.69
-14.12
-17.03
-20.05
-22.98
-25.76
-28.38
-30.82
-33.04
-34.92
-36.43
-37.51
-38.22
-38.68
-39.06
-39.63
-40.58
-42.07
-44.12
-46.75
-49.96
-53.98
-59.20
-66.03
-74.66
-84.65
-94.72
-103.00
-107.39
-106.22
-98.82
-85.74
-68.67
-49.89
-31.69
-15.87
-3.40
5.50
11.21
14.30
15.37
14.89
13.19
10.61
7.50
4.25
1.20
-1.44
-3.55
-5.17
-6.47
-7.67
-9.07
-10.97
-13.58
-16.97
-20.92
-25.18
-29.41
-33.47
-37.47
-41.74
-46.85
-53.33
-61.45
-70.96
-80.97
-89.93
-95.95
-97.25
-92.63
-81.96
-66.27
-47.51
-27.99
-9.87
5.43
17.31
25.93
31.95
36.11
38.94
40.67
41.30
40.73
38.97
36.15
32.52
28.43
24.13
19.90
15.90
12.21
8.80
5.55
2.27
-1.27
-5.18
-9.53
-14.23
-19.22
-24.44
-29.95
-35.98
-42.87
-50.90
-60.11
-70.00
-79.45
-86.78
-90.11
-87.94
-79.68
-65.88
-48.17
-28.71
-9.74
7.01
20.57
30.70
37.75
42.32
45.05
46.35
46.48
45.47
43.44
40.59
37.35
34.13
31.27
28.82
26.62
24.40
21.87
18.97
15.75
12.34
8.81
5.14
1.19
-3.21
-8.22
-13.96
-20.55
-28.11
-36.72
-46.28
-56.34
-65.93
-73.59
-77.67
-76.75
-70.20
-58.43
-42.95
-25.86
-9.30
5.16
16.73
25.45
31.68
35.86
38.20
38.74
37.51
34.64
30.59
26.04
21.76
18.34
16.05
14.72
13.84
12.74
10.88
8.03
4.33
0.17
-4.02
-7.98
-11.73
-15.55
-19.93
-25.33
-32.19
-40.65
-50.53
-61.01
-70.67
-77.46
-79.30
-74.56
-62.74
-44.80
-22.91
0.07
21.52
39.58
53.57
63.73
70.84
75.71
78.85
80.56
80.86
79.86
77.77
74.97
71.78
68.33
64.34
59.12
51.94
42.38
30.70
17.93
5.54
-5.17
-13.50
-19.66
-24.47
-28.94
-33.85
-39.67
-46.58
-54.66
-63.90
-73.86
-83.49
-91.12
-94.73
-92.74
-84.52
-70.73
-53.12
-33.96
-15.40
1.01
14.52
25.03
32.84
38.27
41.60
43.05
42.87
41.47
39.38
37.15
35.11
33.33
31.60
29.59
27.03
23.79
19.96
15.77
11.41
6.98
2.43
-2.37
-7.63
-13.53
-20.23
-27.90
-36.80
-47.19
-59.13
-72.10
-84.85
-95.38
-101.38
-100.88
-92.93
-78.00
-57.85
-35.06
-12.21
8.66
26.41
40.83
52.22
61.18
68.11
73.13
76.04
76.52
74.38
69.72
63.10
55.39
47.54
40.40
34.51
29.99
26.67
24.08
21.64
18.80
15.18
10.75
5.69
0.40
-4.82
-9.87
-14.96
-20.58
-27.34
-35.91
-46.66
-59.46
-73.35
-86.41
-96.11
-99.85
-95.94
-84.18
-66.14
-44.64
-22.76
-2.97
13.57
26.93
37.87
47.22
55.36
62.02
66.62
68.57
67.66
64.19
58.85
52.53
46.07
40.07
34.91
30.72
27.45
24.78
22.24
19.18
14.98
9.17
1.63
-7.29
-16.92
-26.37
-34.81
-41.85
-47.76
-53.45
-60.11
-68.58
-78.65
-88.70
-96.06
-97.86
-92.31
-79.40
-61.11
-40.64
-21.17
-4.89
7.59
16.97
24.55
31.52
38.44
45.22
51.39
56.35
59.71
61.36
61.53
60.59
59.01
57.18
55.28
53.24
50.77
47.42
42.69
36.19
27.76
17.49
5.74
-6.98
-20.10
-33.16
-45.96
-58.70
-71.86
-85.93
-100.89
-115.67
-128.04
-134.92
-133.52
-122.21
-101.43
-73.58
-42.27
-11.18
16.92
40.63
59.82
74.98
86.79
95.74
102.02
105.73
106.93
105.84
102.82
98.45
93.32
87.94
82.59
77.23
71.65
65.49
58.50
50.46
41.28
30.90
19.38
6.90
-6.33
-20.11
-34.53
-50.03
-67.22
-86.57
-107.70
-128.92
-147.22
-158.93
-160.74
-150.99
-130.36
-101.70
-69.16
-36.88
-7.70
17.27
38.43
56.88
73.43
88.19
100.60
109.83
115.30
116.97
115.33
111.13
105.10
97.81
89.63
80.79
71.43
61.71
51.78
41.83
32.02
22.47
13.17
3.89
-5.74
-16.25
-28.18
-42.09
-58.37
-77.06
-97.40
-117.57
-134.69
-145.30
-146.34
-136.17
-115.25
-86.04
-52.27
-17.96
13.67
40.62
62.22
78.72
90.90
99.54
105.21
108.15
108.29
105.64
100.40
93.25
85.19
77.39
70.71
65.52
61.66
58.56
55.55
51.91
47.14
40.80
32.78
23.13
12.26
0.78
-10.72
-21.83
-32.63
-43.59
-55.32
-67.99
-80.81
-91.83
-98.25
-97.26
-87.01
-67.55
-40.82
-10.22
20.51
48.29
71.30
89.01
101.65
109.72
113.55
113.39
109.48
102.33
92.74
81.62
69.85
58.06
46.64
35.86
25.90
16.99
9.18
2.35
-3.98
-10.54
-18.07
-27.05
-37.44
-48.71
-60.10
-70.89
-80.66
-89.52
-97.96
-106.82
-116.99
-129.08
-142.93
-157.15
-169.10
-175.24
-172.25
-158.25
-133.65
-101.23
-65.31
-30.44
-0.06
24.05
41.87
54.29
62.53
67.53
69.82
69.76
67.72
64.32
60.33
56.50
53.31
50.77
48.38
45.35
40.94
34.73
26.79
17.60
7.83
-1.94
-11.29
-20.03
-28.13
-35.58
-42.44
-48.88
-55.41
-62.87
-72.29
-84.39
-98.93
-114.34
-127.66
-135.29
-134.17
-122.88
-102.23
-75.02
-45.06
-15.90
10.05
31.91
49.91
64.74
76.91
86.45
93.10
96.59
97.09
95.26
92.17
88.87
86.04
83.77
81.58
78.65
74.20
67.76
59.25
49.05
37.73
25.93
14.24
3.07
-7.53
-17.92
-29.01
-42.03
-58.07
-77.43
-98.96
-119.86
-136.21
-143.98
-140.40
-124.98
-99.73
-68.50
-35.79
-5.40
20.38
40.88
56.58
68.39
77.11
83.14
86.60
87.55
86.19
82.98
78.55
73.52
68.39
63.34
58.34
53.29
48.03
42.57
37.01
31.46
25.93
20.21
13.97
6.83
-1.47
-11.13
-22.30
-35.24
-50.15
-66.82
-84.15
-99.89
-110.93
-114.15
-107.58
-91.21
-67.14
-38.86
-10.12
16.21
38.62
56.87
71.42
82.71
90.90
95.83
97.35
95.64
91.27
85.18
78.35
71.55
65.09
58.85
52.42
45.34
37.36
28.55
19.17
9.47
-0.41
-10.62
-21.38
-32.96
-45.56
-59.40
-74.88
-92.50
-112.67
-135.14
-158.74
-181.17
-199.63
-211.37
-214.36
-207.61
-190.96
-164.88
-130.19
-87.98
-39.79
12.36
65.95
118.24
166.48
208.22
241.62
265.75
280.81
287.89
288.56
284.03
274.67
260.00
239.55
213.66
183.86
152.65
122.52
95.25
71.69
52.38
38.07
29.94
28.93
34.72
45.47
58.47
71.60
84.31
97.34
111.27
124.80
134.45
136.07
127.22
108.84
85.00
60.67
39.24
21.08
4.34
-12.94
-30.96
-47.73
-60.53
-67.85
-70.66
-72.09
-75.76
-83.88
-96.12
-109.61
-120.00
-122.96
-115.57
-97.03
-68.91
-34.51
1.93
36.32
65.47
87.52
101.81
108.45
107.86
100.39
86.14
64.77
35.55
-2.22
-48.32
-100.39
-153.13
-198.66
-228.15
-234.29
-213.61
-167.92
-104.09
-32.59
34.73
87.16
117.66
124.46
111.30
85.77
56.45
29.95
9.35
-5.16
-14.41
-18.22
-15.18
-3.98
14.62
36.93
57.45
71.26
76.25
73.65
66.80
58.96
51.60
44.16
35.06
23.00
8.04
-8.37
-23.72
-35.66
-42.92
-45.74
-45.81
-45.38
-46.14
-48.47
-51.24
-52.45
-50.38
-44.45
-35.48
-25.33
-16.01
-8.88
-4.34
-1.91
-0.82
-0.42
-0.42
-0.90
-2.03
-3.86
-6.15
-8.37
-9.88
-10.12
-8.83
-6.26
-3.09
-0.24
1.47
1.57
0.04
-2.75
-6.34
-10.42
-15.02
-20.37
-26.70
-34.14
-42.50
-51.43
-60.33
-68.39
-74.71
-78.34
-78.61
-75.31
-68.83
-60.07
-50.21
-40.29
-31.04
-22.84
-15.81
-10.01
-5.48
-2.29
-0.42
0.30
0.11
-0.56
-1.34
-1.85
-1.96
-1.66
-1.17
-0.80
-0.88
-1.65
-3.19
-5.52
-8.48
-11.92
-15.67
-19.63
-23.85
-28.47
-33.71
-39.81
-46.85
-54.60
-62.47
-69.55
-74.63
-76.55
-74.47
-68.19
-58.27
-45.91
-32.69
-20.04
-8.93
0.30
7.77
13.78
18.46
21.71
23.29
23.14
21.48
18.87
16.02
13.50
11.54
10.06
8.73
7.19
5.20
2.68
-0.31
-3.69
-7.49
-11.81
-16.76
-22.37
-28.56
-35.14
-41.94
-48.97
-56.39
-64.35
-72.60
-80.30
-86.06
-88.31
-85.86
-78.42
-66.66
-51.85
-35.43
-18.46
-1.55
14.91
30.47
44.43
55.84
63.91
68.27
69.20
67.47
64.07
59.84
55.35
50.80
46.25
41.78
37.46
33.37
29.46
25.50
21.14
16.09
10.21
3.60
-3.46
-10.71
-17.93
-25.20
-32.81
-41.17
-50.53
-60.73
-70.98
-79.91
-85.84
-87.26
-83.18
-73.49
-58.94
-40.99
-21.43
-2.10
15.50
30.33
41.92
50.22
55.49
58.07
58.34
56.72
53.67
49.82
45.77
42.02
38.75
35.90
33.17
30.14
26.50
22.06
16.77
10.66
3.82
-3.59
-11.36
-19.24
-27.04
-34.61
-42.09
-49.73
-57.98
-67.12
-77.13
-87.56
-97.41
-105.36
-109.93
-109.80
-104.07
-92.53
-75.68
-54.88
-32.04
-9.23
11.75
29.77
44.45
56.05
65.04
71.78
76.40
78.79
78.90
76.94
73.43
69.09
64.63
60.53
56.89
53.48
49.81
45.38
39.83
33.10
25.46
17.32
9.15
1.22
-6.48
-14.13
-22.03
-30.53
-39.87
-50.22
-61.58
-73.65
-85.60
-96.05
-103.24
-105.39
-101.28
-90.71
-74.59
-54.66
-32.89
-10.96
10.06
29.62
47.42
63.06
75.93
85.42
91.18
93.34
92.52
89.66
85.71
81.29
76.80
72.30
67.79
63.24
58.66
54.03
49.22
43.94
37.74
30.19
21.04
10.45
-0.94
-12.23
-22.52
-31.35
-38.87
-45.86
-53.40
-62.44
-73.33
-85.68
-98.26
-109.32
-116.96
-119.47
-115.77
-105.54
-89.37
-68.64
-45.14
-20.76
3.03
25.27
45.58
63.79
79.77
93.13
103.30
109.79
112.38
111.45
107.86
102.83
97.49
92.63
88.51
84.90
81.31
77.19
72.16
66.12
59.15
51.42
43.08
34.19
24.80
15.00
4.99
-4.88
-14.20
-22.66
-30.15
-36.87
-43.25
-49.92
-57.46
-66.29
-76.46
-87.60
-98.83
-108.87
-116.14
-119.16
-116.85
-108.76
-95.25
-77.39
-56.67
-34.81
-13.33
6.60
24.34
39.69
52.72
63.60
72.38
79.00
83.36
85.51
85.73
84.53
82.47
80.04
77.56
75.10
72.64
69.96
66.78
62.73
57.46
50.84
42.90
33.95
24.44
14.88
5.71
-2.82
-10.61
-17.73
-24.35
-30.62
-36.64
-42.41
-47.92
-53.21
-58.49
-64.23
-71.03
-79.40
-89.47
-100.62
-111.44
-119.93
-124.08
-122.41
-114.45
-100.84
-83.07
-62.97
-42.11
-21.53
-1.69
17.31
35.42
52.37
67.57
80.24
89.62
95.29
97.34
96.43
93.60
90.00
86.48
83.47
80.96
78.67
76.29
73.66
70.68
67.30
63.37
58.71
53.20
46.89
40.05
33.03
26.10
19.28
12.38
5.16
-2.46
-10.32
-18.10
-25.57
-32.72
-39.85
-47.51
-56.30
-66.58
-78.22
-90.43
-101.79
-110.43
-114.48
-112.58
-104.31
-90.26
-71.91
-51.20
-29.94
-9.53
9.27
26.19
41.17
54.13
64.88
73.10
78.51
81.15
81.36
79.81
77.29
74.46
71.67
69.03
66.44
63.74
60.76
57.35
53.42
48.89
43.80
38.25
32.38
26.30
20.00
13.39
6.40
-0.90
-8.26
-15.30
-21.70
-27.39
-32.60
-37.84
-43.70
-50.66
-58.85
-67.92
-77.03
-84.94
-90.14
-91.28
-87.49
-78.60
-65.34
-49.12
-31.66
-14.63
0.80
13.98
24.78
33.31
39.78
44.35
47.22
48.59
48.79
48.19
47.09
45.73
44.13
42.21
39.92
37.31
34.57
31.92
29.53
27.28
24.87
21.79
17.67
12.33
5.96
-0.95
-7.85
-14.19
-19.74
-24.48
-28.71
-32.90
-37.63
-43.43
-50.57
-58.81
-67.26
-74.43
-78.60
-78.31
-72.88
-62.63
-48.83
-33.26
-17.62
-3.23
9.18
19.34
27.28
33.08
36.90
38.89
39.31
38.51
36.84
34.66
32.28
29.94
27.76
25.84
24.19
22.81
21.59
20.40
18.96
16.95
14.09
10.18
5.29
-0.29
-6.13
-11.75
-16.91
-21.70
-26.57
-32.13
-38.84
-46.67
-54.90
-62.20
-66.94
-67.75
-63.87
-55.43
-43.32
-28.93
-13.78
0.81
13.86
24.82
33.44
39.79
44.06
46.57
47.65
47.58
46.58
44.83
42.48
39.71
36.69
33.60
30.59
27.73
25.04
22.42
19.70
16.67
13.14
9.00
4.29
-0.85
-6.20
-11.65
-17.15
-22.82
-28.82
-35.39
-42.79
-51.08
-60.04
-68.95
-76.65
-81.66
-82.74
-79.14
-70.98
-59.17
-45.11
-30.31
-16.04
-3.27
7.47
15.83
21.73
25.24
26.64
26.35
24.74
22.09
18.35
13.34
6.83
-1.18
-10.27
-19.73
-28.75
-36.87
-44.22
-51.62
-60.24
-71.11
-84.68
-100.59
-117.93
-135.60
-152.85
-169.56
-186.12
-203.27
-222.04
-243.64
-269.17
-299.09
-332.31
-365.69
-394.38
-413.09
-418.03
-408.39
-386.69
-357.64
-326.30
-296.25
-268.96
-244.29
-221.54
-200.40
-181.10
-163.99
-148.96
-135.28
-121.87
-107.96
-93.44
-78.89
-65.33
-53.65
-44.14
-36.43
-29.67
-22.94
-15.66
-7.84
0.02
7.27
13.43
18.46
22.80
27.13
32.09
37.88
44.32
50.90
57.15
62.82
68.12
73.55
79.62
86.62
94.37
102.36
109.99
116.86
123.10
129.32
136.39
145.01
155.47
167.45
180.28
193.23
205.85
218.19
230.75
244.33
259.92
278.57
301.06
327.36
355.96
383.65
406.03
418.79
419.26
407.41
385.85
358.68
329.98
302.50
277.35
254.44
233.34
213.81
195.88
179.53
164.32
149.54
134.44
118.73
102.68
87.04
72.69
60.19
49.46
39.80
30.10
19.29
6.93
-6.54
-19.77
-30.91
-38.26
-40.81
-38.64
-32.71
-24.53
-15.62
-7.08
0.47
6.82
11.96
15.99
19.01
21.14
22.54
23.37
23.75
23.77
23.46
22.90
22.18
21.38
20.57
19.83
19.21
18.69
18.17
17.39
15.97
13.50
9.69
4.59
-1.42
-7.70
-13.53
-18.43
-22.22
-25.12
-27.59
-30.19
-33.44
-37.66
-42.94
-48.94
-54.92
-59.73
-62.12
-60.98
-55.82
-46.95
-35.41
-22.75
-10.48
0.26
8.93
15.51
20.33
23.80
26.25
27.88
28.76
28.90
28.40
27.37
25.98
24.39
22.77
21.20
19.71
18.34
17.01
15.59
13.86
11.51
8.37
4.38
-0.22
-5.02
-9.58
-13.55
-16.85
-19.66
-22.41
-25.66
-29.86
-35.20
-41.32
-47.30
-51.78
-53.40
-51.28
-45.35
-36.42
-25.82
-14.97
-4.92
3.81
11.14
17.17
22.00
25.62
28.04
29.31
29.60
29.11
27.95
26.16
23.75
20.76
17.38
13.93
10.73
8.01
5.73
3.63
1.23
-1.88
-5.94
-10.92
-16.53
-22.33
-27.91
-33.01
-37.59
-41.92
-46.44
-51.66
-57.84
-64.84
-71.91
-77.84
-81.37
-81.52
-77.98
-71.14
-61.84
-51.04
-39.51
-27.78
-16.17
-4.91
5.80
15.80
25.07
33.63
41.44
48.34
53.91
57.71
59.44
59.25
57.69
55.59
53.69
52.30
51.19
49.67
46.97
42.61
36.58
29.37
21.66
14.09
6.95
0.28
-6.13
-12.54
-19.18
-26.29
-34.06
-42.45
-51.02
-58.78
-64.32
-66.23
-63.61
-56.52
-45.97
-33.54
-20.82
-8.95
1.63
11.03
19.47
26.99
33.46
38.61
42.29
44.59
45.90
46.61
47.05
47.26
47.08
46.29
44.80
42.73
40.34
37.86
35.31
32.44
28.82
24.01
17.90
10.73
3.09
-4.35
-11.12
-17.17
-22.91
-29.03
-36.20
-44.69
-54.19
-63.68
-71.75
-76.93
-78.18
-75.18
-68.37
-58.71
-47.29
-34.98
-22.29
-9.44
3.32
15.59
26.77
36.23
43.53
48.57
51.58
53.00
53.33
52.95
52.13
50.97
49.49
47.66
45.45
42.94
40.23
37.43
34.58
31.60
28.23
24.21
19.33
13.60
7.27
0.74
-5.58
-11.46
-16.83
-21.86
-26.84
-32.04
-37.74
-44.13
-51.31
-59.10
-66.91
-73.70
-78.19
-79.20
-76.10
-69.01
-58.72
-46.39
-33.11
-19.69
-6.60
5.84
17.28
27.35
35.69
42.13
46.76
49.85
51.78
52.87
53.28
53.08
52.20
50.58
48.21
45.21
41.88
38.53
35.41
32.61
29.86
26.74
22.79
17.76
11.74
5.11
-1.53
-7.73
-13.23
-18.12
-22.70
-27.35
-32.46
-38.34
-45.12
-52.64
-60.35
-67.24
-72.08
-73.73
-71.52
-65.46
-56.21
-44.80
-32.27
-19.42
-6.81
5.17
16.13
25.65
33.27
38.75
42.13
43.78
44.27
44.24
44.17
44.24
44.35
44.19
43.45
42.02
40.00
37.64
35.21
32.80
30.29
27.42
23.91
19.56
14.37
8.53
2.37
-3.73
-9.48
-14.69
-19.36
-23.62
-27.69
-31.89
-36.57
-42.01
-48.24
-54.86
-60.96
-65.28
-66.57
-64.07
-57.74
-48.39
-37.26
-25.60
-14.23
-3.50
6.58
16.07
24.81
32.41
38.42
42.47
44.52
44.84
43.99
42.61
41.31
40.42
39.99
39.78
39.44
38.63
37.17
35.10
32.55
29.72
26.67
23.34
19.62
15.38
10.60
5.41
0.07
-5.15
-9.97
-14.24
-17.87
-20.97
-23.82
-26.86
-30.68
-35.81
-42.42
-50.13
-57.88
-64.10
-67.20
-66.11
-60.63
-51.55
-40.22
-28.22
-16.71
-6.32
2.85
10.95
18.17
24.52
29.88
34.07
36.95
38.47
38.75
38.08
36.83
35.39
34.06
32.90
31.78
30.47
28.78
26.66
24.21
21.57
18.84
15.99
12.90
9.46
5.66
1.58
-2.58
-6.63
-10.37
-13.73
-16.69
-19.30
-21.76
-24.34
-27.43
-31.40
-36.49
-42.58
-49.08
-54.96
-58.90
-59.72
-56.78
-50.23
-40.95
-30.27
-19.45
-9.43
-0.57
7.16
13.94
19.96
25.19
29.53
32.87
35.16
36.47
36.98
36.92
36.43
35.60
34.41
32.89
31.09
29.08
26.95
24.72
22.43
19.99
17.40
14.63
11.67
8.45
4.90
0.98
-3.26
-7.62
-11.88
-15.81
-19.34
-22.48
-25.35
-28.10
-30.91
-34.00
-37.61
-41.95
-46.88
-51.86
-55.87
-57.72
-56.46
-51.70
-43.90
-34.10
-23.54
-13.23
-3.76
4.65
11.98
18.10
22.75
25.74
27.04
27.02
26.28
25.47
25.04
25.09
25.41
25.66
25.54
24.93
23.89
22.62
21.32
20.09
18.91
17.60
15.96
13.78
10.94
7.49
3.59
-0.45
-4.38
-7.98
-11.25
-14.30
-17.32
-20.51
-24.00
-27.89
-32.22
-36.82
-41.28
-44.83
-46.41
-45.04
-40.21
-32.19
-22.01
-11.20
-1.22
6.98
13.11
17.49
20.62
22.87
24.33
24.89
24.39
22.89
20.73
18.42
16.47
15.18
14.51
14.14
13.67
12.86
11.76
10.64
9.81
9.41
9.23
8.74
7.28
4.41
0.12
-5.08
-10.41
-15.05
-18.54
-20.95
-22.74
-24.57
-27.03
-30.47
-34.92
-40.16
-45.64
-50.49
-53.53
-53.53
-49.58
-41.53
-30.21
-17.31
-4.85
5.48
12.82
17.32
19.90
21.66
23.35
25.07
26.38
26.66
25.58
23.36
20.68
18.37
16.93
16.37
16.24
15.99
15.24
13.96
12.37
10.63
8.75
6.44
3.45
-0.31
-4.61
-8.96
-12.85
-16.04
-18.61
-20.99
-23.72
-27.31
-32.03
-37.80
-44.11
-49.99
-54.22
-55.54
-53.08
-46.76
-37.28
-26.03
-14.56
-4.14
4.53
11.36
16.57
20.50
23.38
25.39
26.62
27.27
27.52
27.52
27.27
26.59
25.31
23.30
20.69
17.84
15.17
12.98
11.29
9.82
8.14
5.90
2.99
-0.36
-3.76
-6.77
-9.17
-11.01
-12.58
-14.27
-16.47
-19.49
-23.48
-28.36
-33.66
-38.50
-41.66
-41.88
-38.37
-31.13
-21.06
-9.69
1.35
10.85
18.27
23.66
27.39
29.85
31.27
31.72
31.29
30.09
28.32
26.22
23.97
21.72
19.60
17.71
16.07
14.68
13.42
12.13
10.67
8.88
6.57
3.63
0.01
-4.12
-8.39
-12.33
-15.58
-18.08
-20.18
-22.58
-26.04
-31.03
-37.52
-44.73
-51.31
-55.60
-56.15
-52.16
-43.90
-32.59
-20.04
-8.09
2.00
9.73
15.34
19.37
22.37
24.68
26.41
27.58
28.22
28.36
28.03
27.21
25.82
23.86
21.47
18.94
16.68
15.05
14.19
13.92
13.74
13.04
11.28
8.26
4.20
-0.43
-5.04
-9.17
-12.68
-15.67
-18.56
-21.84
-26.01
-31.36
-37.80
-44.70
-50.86
-54.82
-55.20
-51.25
-43.16
-32.05
-19.58
-7.42
3.24
11.92
18.64
23.74
27.54
30.21
31.90
32.75
32.97
32.77
32.30
31.61
30.72
29.64
28.41
27.16
25.99
24.94
24.00
23.07
21.95
20.41
18.19
15.08
11.03
6.22
1.04
-3.98
-8.40
-12.04
-15.12
-18.18
-21.94
-26.98
-33.54
-41.17
-48.79
-54.92
-57.98
-56.96
-51.62
-42.66
-31.45
-19.56
-8.22
1.85
10.48
17.82
23.99
28.99
32.74
35.23
36.72
37.62
38.33
39.02
39.54
39.50
38.55
36.58
33.82
30.73
27.81
25.33
23.27
21.36
19.21
16.48
13.00
8.85
4.31
-0.24
-4.45
-8.15
-11.42
-14.50
-17.79
-21.66
-26.35
-31.96
-38.33
-44.86
-50.59
-54.18
-54.35
-50.36
-42.33
-31.38
-19.24
-7.66
2.12
9.65
15.20
19.37
22.64
25.25
27.14
28.16
28.23
27.44
25.99
24.16
22.16
20.10
17.98
15.80
13.61
11.58
9.91
8.66
7.75
6.80
5.38
3.18
0.21
-3.20
-6.54
-9.36
-11.52
-13.22
-14.94
-17.29
-20.75
-25.57
-31.59
-38.22
-44.45
-49.05
-50.88
-49.18
-43.86
-35.52
-25.24
-14.27
-3.68
5.76
13.66
19.85
24.30
27.08
28.34
28.39
27.62
26.44
25.12
23.77
22.34
20.81
19.30
18.02
17.24
17.02
17.19
17.32
16.94
15.67
13.40
10.24
6.46
2.40
-1.64
-5.45
-8.89
-11.97
-14.89
-18.00
-21.77
-26.53
-32.29
-38.50
-44.03
-47.49
-47.53
-43.44
-35.42
-24.59
-12.69
-1.42
7.98
15.12
20.25
23.96
26.74
28.77
29.92
29.95
28.80
26.70
24.07
21.40
19.01
17.02
15.36
13.93
12.67
11.57
10.59
9.57
8.17
6.04
2.94
-1.11
-5.77
-10.51
-14.77
-18.26
-21.01
-23.48
-26.38
-30.41
-35.87
-42.43
-49.04
-54.17
-56.26
-54.32
-48.26
-38.98
-27.96
-16.79
-6.61
2.07
9.30
15.37
20.46
24.61
27.73
29.78
30.93
31.44
31.59
31.48
31.08
30.27
28.99
27.34
25.57
23.99
22.80
21.95
21.15
19.85
17.58
14.06
9.44
4.18
-1.06
-5.78
-9.75
-13.21
-16.61
-20.49
-25.27
-31.05
-37.64
-44.46
-50.62
-54.96
-56.37
-54.14
-48.15
-39.10
-28.24
-17.07
-6.83
1.77
8.63
14.05
18.45
22.16
25.24
27.63
29.22
30.05
30.37
30.51
30.77
31.20
31.61
31.57
30.75
29.03
26.67
24.17
21.98
20.22
18.61
16.57
13.54
9.31
4.16
-1.29
-6.34
-10.52
-13.74
-16.29
-18.68
-21.47
-25.13
-29.98
-36.02
-42.90
-49.72
-55.19
-57.86
-56.60
-51.06
-41.91
-30.55
-18.71
-7.80
1.43
8.96
15.15
20.45
25.06
28.91
31.84
33.69
34.50
34.46
33.78
32.73
31.52
30.31
29.19
28.17
27.12
25.91
24.41
22.65
20.69
18.62
16.45
14.04
11.21
7.77
3.73
-0.69
-5.14
-9.26
-12.89
-16.04
-18.92
-21.81
-24.97
-28.63
-32.97
-38.07
-43.75
-49.45
-54.18
-56.70
-55.86
-51.07
-42.54
-31.32
-18.98
-7.08
3.24
11.48
17.72
22.33
25.75
28.27
30.03
31.10
31.57
31.59
31.31
30.88
30.35
29.67
28.76
27.58
26.15
24.59
23.01
21.53
20.18
18.92
17.57
15.85
13.48
10.25
6.20
1.62
-3.03
-7.27
-10.87
-13.86
-16.59
-19.52
-23.07
-27.40
-32.40
-37.58
-42.17
-45.19
-45.73
-43.13
-37.30
-28.81
-18.71
-8.24
1.50
9.86
16.63
21.92
25.90
28.65
30.15
30.41
29.59
28.02
26.14
24.33
22.77
21.40
20.04
18.54
16.86
15.14
13.56
12.23
11.06
9.73
7.84
5.06
1.32
-3.12
-7.75
-12.03
-15.55
-18.26
-20.43
-22.54
-25.14
-28.62
-33.16
-38.55
-44.23
-49.23
-52.39
-52.63
-49.26
-42.32
-32.55
-21.28
-9.94
0.31
8.81
15.47
20.51
24.23
26.83
28.38
28.95
28.68
27.88
26.93
26.13
25.57
25.10
24.39
23.16
21.32
19.10
16.92
15.19
14.11
13.50
12.90
11.76
9.70
6.59
2.68
-1.58
-5.70
-9.34
-12.42
-15.13
-17.94
-21.39
-25.96
-31.81
-38.59
-45.44
-51.12
-54.30
-54.00
-49.84
-42.18
-32.00
-20.60
-9.25
1.04
9.70
16.57
21.79
25.60
28.28
29.99
30.87
30.97
30.41
29.37
28.08
26.84
25.84
25.16
24.69
24.23
23.59
22.68
21.51
20.17
18.71
17.07
15.05
12.39
8.91
4.63
-0.17
-5.03
-9.49
-13.29
-16.46
-19.34
-22.45
-26.28
-31.13
-36.94
-43.20
-48.99
-53.17
-54.64
-52.67
-47.18
-38.75
-28.45
-17.50
-6.96
2.51
10.59
17.22
22.42
26.24
28.76
30.15
30.65
30.55
30.11
29.52
28.85
28.06
27.10
25.89
24.49
23.07
21.86
21.08
20.81
20.89
20.99
20.71
19.70
17.72
14.80
11.13
7.11
3.25
0.03
-2.28
-3.74
-4.76
-6.04
-8.23
-11.82
-16.77
-22.53
-28.00
-31.74
-32.41
-29.17
-22.11
-12.34
-1.73
7.71
14.45
17.95
18.64
17.45
15.42
13.21
11.09
9.09
7.28
5.81
4.87
4.55
4.68
4.91
4.85
4.34
3.52
2.76
2.48
2.95
4.13
5.67
7.05
7.70
7.29
5.70
3.14
0.01
-3.26
-6.29
-8.93
-11.29
-13.64
-16.37
-19.81
-24.18
-29.45
-35.30
-41.09
-45.88
-48.65
-48.51
-45.05
-38.52
-29.82
-20.26
-11.13
-3.35
2.69
7.12
10.23
12.32
13.50
13.80
13.30
12.24
10.98
9.90
9.18
8.76
8.42
7.93
7.27
6.62
6.25
6.26
6.45
6.34
5.37
3.20
-0.06
-3.86
-7.48
-10.35
-12.34
-13.81
-15.47
-17.96
-21.70
-26.69
-32.57
-38.77
-44.53
-49.03
-51.43
-50.99
-47.24
-40.22
-30.58
-19.47
-8.28
1.83
10.17
16.63
21.51
25.23
28.11
30.25
31.61
32.13
31.87
31.02
29.81
28.47
27.11
25.80
24.52
23.30
22.15
21.11
20.15
19.12
17.79
15.85
13.08
9.43
5.07
0.34
-4.41
-8.92
-13.15
-17.24
-21.52
-26.35
-31.98
-38.40
-45.18
-51.43
-55.96
-57.62
-55.66
-50.11
-41.76
-31.84
-21.61
-11.95
-3.19
4.64
11.58
17.55
22.34
25.81
27.99
29.17
29.73
30.00
30.10
30.00
29.54
28.63
27.25
25.55
23.77
22.15
20.87
19.94
19.12
17.99
16.10
13.16
9.19
4.50
-0.46
-5.34
-9.92
-14.28
-18.57
-23.01
-27.79
-33.09
-39.12
-45.82
-52.83
-59.26
-63.81
-65.14
-62.31
-55.24
-44.71
-32.26
-19.50
-7.79
2.21
10.46
17.28
23.03
27.79
31.47
33.85
34.91
34.91
34.32
33.62
33.04
32.52
31.78
30.64
29.11
27.48
26.11
25.24
24.76
24.25
23.20
21.17
17.99
13.72
8.64
3.09
-2.60
-8.11
-13.22
-17.79
-21.87
-25.70
-29.68
-34.28
-39.87
-46.52
-53.76
-60.55
-65.43
-66.93
-64.05
-56.66
-45.62
-32.46
-18.93
-6.46
4.17
12.82
19.74
25.34
29.83
33.25
35.51
36.56
36.49
35.57
34.23
32.82
31.57
30.50
29.54
28.62
27.81
27.24
27.00
26.94
26.68
25.60
23.17
19.16
13.82
7.81
1.94
-3.08
-7.00
-10.03
-12.76
-15.93
-20.15
-25.71
-32.45
-39.75
-46.55
-51.61
-53.72
-52.10
-46.62
-37.86
-26.91
-15.09
-3.57
6.82
15.56
22.42
27.29
30.28
31.66
31.87
31.42
30.74
30.04
29.31
28.44
27.33
26.03
24.69
23.46
22.42
21.49
20.43
18.95
16.85
14.11
10.88
7.45
4.09
0.97
-1.92
-4.74
-7.71
-11.11
-15.20
-20.22
-26.23
-32.96
-39.65
-45.03
-47.60
-46.16
-40.34
-30.87
-19.42
-7.98
1.83
9.26
14.50
18.27
21.33
24.05
26.39
28.10
29.02
29.24
29.05
28.76
28.54
28.33
27.92
27.09
25.73
23.93
21.88
19.74
17.50
14.90
11.57
7.23
1.97
-3.80
-9.42
-14.35
-18.41
-21.94
-25.64
-30.31
-36.44
-43.88
-51.81
-58.79
-63.19
-63.75
-59.90
-52.06
-41.42
-29.52
-17.76
-7.02
2.37
10.48
17.49
23.54
28.64
32.80
36.08
38.60
40.50
41.83
42.52
42.40
41.34
39.36
36.71
33.78
31.01
28.66
26.68
24.75
22.37
19.20
15.12
10.33
5.21
0.18
-4.48
-8.70
-12.56
-16.41
-20.72
-26.02
-32.71
-40.74
-49.39
-57.24
-62.56
-63.79
-60.18
-52.06
-40.74
-27.99
-15.48
-4.25
5.44
13.79
21.22
27.97
34.00
39.16
43.24
46.16
47.93
48.67
48.44
47.33
45.41
42.81
39.80
36.70
33.84
31.47
29.61
28.12
26.67
24.84
22.22
18.61
14.03
8.77
3.26
-2.05
-6.88
-11.14
-14.97
-18.64
-22.46
-26.68
-31.53
-37.17
-43.59
-50.58
-57.48
-63.20
-66.45
-66.08
-61.48
-52.88
-41.30
-28.21
-15.08
-2.98
7.59
16.61
24.23
30.54
35.52
39.09
41.27
42.26
42.38
41.95
41.16
40.08
38.69
37.05
35.37
33.90
32.79
31.94
31.01
29.55
27.25
24.11
20.39
16.52
12.78
9.20
5.57
1.64
-2.69
-7.27
-11.76
-15.82
-19.30
-22.33
-25.29
-28.64
-32.77
-37.91
-44.06
-50.83
-57.45
-62.77
-65.49
-64.47
-59.25
-50.23
-38.62
-26.07
-14.10
-3.73
4.75
11.59
17.28
22.25
26.66
30.37
33.12
34.77
35.32
35.07
34.46
33.88
33.51
33.32
33.02
32.34
31.14
29.46
27.43
25.24
22.90
20.36
17.49
14.25
10.69
6.90
3.03
-0.86
-4.75
-8.62
-12.46
-16.20
-19.79
-23.23
-26.62
-30.21
-34.36
-39.38
-45.33
-51.82
-57.86
-62.09
-63.10
-60.00
-52.70
-42.10
-29.71
-17.15
-5.72
3.95
11.81
18.15
23.25
27.29
30.22
31.96
32.59
32.29
31.44
30.40
29.46
28.71
28.09
27.46
26.69
25.71
24.56
23.31
22.00
20.64
19.17
17.47
15.40
12.83
9.62
5.74
1.37
-3.18
-7.45
-11.08
-13.96
-16.27
-18.51
-21.24
-24.96
-29.87
-35.75
-41.94
-47.39
-50.91
-51.38
-48.14
-41.21
-31.33
-19.75
-7.89
3.07
12.40
19.88
25.59
29.74
32.47
33.81
33.88
32.89
31.29
29.60
28.22
27.32
26.68
25.89
24.59
22.65
20.28
17.89
15.81
14.07
12.37
10.18
7.08
2.94
-1.94
-7.04
-11.81
-15.91
-19.35
-22.39
-25.52
-29.26
-34.02
-40.04
-47.17
-54.74
-61.51
-65.96
-66.59
-62.59
-54.07
-42.15
-28.56
-15.01
-2.71
7.82
16.60
23.81
29.51
33.59
35.93
36.55
35.81
34.28
32.52
30.90
29.44
27.95
26.17
24.01
21.59
19.28
17.42
16.20
15.46
14.71
13.34
10.88
7.21
2.65
-2.23
-6.84
-10.89
-14.51
-18.11
-22.21
-27.22
-33.32
-40.42
-48.11
-55.62
-61.77
-65.17
-64.57
-59.28
-49.61
-36.87
-22.90
-9.53
1.98
11.20
18.33
23.80
27.92
30.82
32.46
32.91
32.44
31.49
30.53
29.85
29.51
29.29
28.90
28.06
26.76
25.25
23.87
22.90
22.23
21.42
19.81
16.82
12.28
6.54
0.32
-5.57
-10.62
-14.74
-18.29
-21.90
-26.21
-31.72
-38.48
-46.08
-53.48
-59.23
-61.75
-59.86
-53.22
-42.50
-29.27
-15.43
-2.64
8.08
16.49
22.84
27.58
31.01
33.27
34.43
34.64
34.18
33.41
32.63
31.92
31.16
30.18
28.84
27.19
25.49
24.04
23.03
22.37
21.72
20.60
18.62
15.65
11.87
7.69
3.56
-0.19
-3.44
-6.29
-9.00
-11.99
-15.73
-20.62
-26.77
-33.72
-40.37
-45.18
-46.56
-43.49
-35.99
-25.13
-12.73
-0.68
9.55
17.31
22.67
26.12
28.24
29.43
29.89
29.72
29.01
27.94
26.72
25.54
24.57
23.89
23.52
23.44
23.54
23.61
23.36
22.56
21.02
18.78
16.09
13.28
10.69
8.55
6.87
5.46
4.05
2.28
-0.18
-3.53
-7.73
-12.30
-16.25
-18.29
-17.25
-12.53
-4.48
5.67
16.25
25.69
33.05
38.10
41.11
42.43
42.17
40.10
35.86
29.22
20.34
9.79
-1.52
-12.62
-22.62
-30.93
-37.18
-41.27
-43.20
-43.15
-41.41
-38.51
-35.16
-32.18
-30.27
-29.76
-30.57
-32.22
-34.06
-35.56
-36.57
-37.26
-38.13
-39.74
-42.57
-46.77
-52.03
-57.52
-61.99
-64.02
-62.37
-56.46
-46.58
-33.90
-20.08
-6.77
4.84
14.26
21.57
27.14
31.32
34.29
36.08
36.73
36.38
35.33
33.91
32.43
30.98
29.51
27.90
26.07
24.04
21.94
19.91
18.01
16.13
14.03
11.45
8.29
4.63
0.80
-2.82
-5.92
-8.49
-10.80
-13.43
-16.98
-21.89
-28.13
-35.08
-41.52
-45.91
-46.85
-43.65
-36.51
-26.57
-15.46
-4.75
4.50
11.91
17.66
22.09
25.47
27.80
28.91
28.77
27.53
25.69
23.81
22.31
21.32
20.62
19.83
18.76
17.44
16.19
15.38
15.19
15.45
15.68
15.30
13.89
11.36
8.00
4.32
0.82
-2.27
-5.01
-7.73
-10.88
-14.84
-19.81
-25.77
-32.41
-39.12
-44.93
-48.66
-49.15
-45.68
-38.29
-27.87
-15.92
-4.08
6.38
14.88
21.45
26.38
29.98
32.29
33.31
33.06
31.87
30.22
28.67
27.53
26.78
26.13
25.22
23.78
21.81
19.52
17.24
15.24
13.56
12.01
10.17
7.62
4.18
0.04
-4.24
-7.96
-10.68
-12.42
-13.74
-15.50
-18.50
-23.13
-29.18
-35.91
-42.18
-46.72
-48.40
-46.46
-40.74
-31.71
-20.44
-8.33
3.23
13.14
20.78
26.03
29.12
30.46
30.50
29.64
28.18
26.42
24.57
22.83
21.28
19.89
18.60
17.31
15.99
14.65
13.32
11.92
10.26
8.04
5.06
1.33
-2.94
-7.33
-11.45
-15.08
-18.29
-21.36
-24.70
-28.70
-33.54
-39.10
-44.83
-49.81
-52.87
-52.90
-49.23
-41.87
-31.56
-19.58
-7.40
3.74
13.08
20.41
25.87
29.77
32.34
33.72
33.99
33.32
31.99
30.30
28.55
26.81
25.02
23.08
20.91
18.69
16.62
14.96
13.68
12.48
10.88
8.38
4.74
0.10
-5.10
-10.26
-14.92
-18.90
-22.41
-25.92
-30.02
-35.14
-41.37
-48.26
-54.85
-59.77
-61.62
-59.39
-52.88
-42.81
-30.65
-18.10
-6.61
3.05
10.82
17.07
22.21
26.49
29.85
32.16
33.37
33.65
33.32
32.69
31.93
31.06
30.03
28.79
27.42
26.03
24.74
23.60
22.59
21.59
20.48
19.03
17.01
14.21
10.62
6.39
1.91
-2.37
-6.11
-9.29
-12.14
-15.13
-18.80
-23.56
-29.66
-37.00
-45.04
-52.78
-58.77
-61.50
-59.86
-53.56
-43.34
-30.76
-17.66
-5.61
4.48
12.42
18.43
22.89
26.06
28.11
29.19
29.55
29.57
29.55
29.69
29.88
29.85
29.34
28.18
26.51
24.59
22.80
21.37
20.31
19.45
18.50
17.14
15.08
12.19
8.43
3.94
-0.97
-5.91
-10.48
-14.51
-18.06
-21.46
-25.18
-29.67
-35.16
-41.44
-47.82
-53.15
-56.06
-55.39
-50.65
-42.18
-31.12
-19.06
-7.47
2.64
10.94
17.53
22.74
26.78
29.73
31.56
32.26
32.03
31.18
30.09
29.06
28.22
27.45
26.52
25.24
23.62
21.90
20.45
19.54
19.19
19.03
18.46
16.85
13.84
9.52
4.38
-0.89
-5.61
-9.42
-12.41
-15.05
-18.00
-21.85
-26.94
-33.07
-39.59
-45.47
-49.47
-50.50
-47.85
-41.43
-31.81
-20.12
-7.78
3.85
13.79
21.52
27.08
30.86
33.29
34.65
34.99
34.26
32.45
29.85
26.96
24.39
22.48
21.24
20.34
19.37
18.13
16.63
15.11
13.69
12.22
10.33
7.65
4.06
-0.23
-4.66
-8.68
-11.96
-14.55
-16.95
-19.85
-23.94
-29.53
-36.40
-43.63
-49.83
-53.47
-53.31
-48.90
-40.60
-29.58
-17.35
-5.39
5.19
13.82
20.38
25.03
28.09
29.82
30.40
30.01
28.83
27.10
25.11
23.07
21.12
19.27
17.50
15.83
14.39
13.29
12.48
11.76
10.69
8.85
6.01
2.26
-2.03
-6.37
-10.40
-13.98
-17.27
-20.60
-24.40
-29.06
-34.80
-41.48
-48.42
-54.43
-58.05
-57.90
-53.33
-44.63
-33.02
-20.33
-8.28
1.91
9.85
15.79
20.34
24.04
27.17
29.71
31.44
32.20
31.95
30.84
29.14
27.12
24.99
22.88
20.87
19.04
17.43
16.03
14.71
13.24
11.31
8.69
5.29
1.29
-2.96
-7.00
-10.47
-13.30
-15.73
-18.34
-21.81
-26.62
-32.79
-39.66
-45.98
-50.21
-51.01
-47.61
-40.20
-29.78
-17.88
-6.08
4.42
12.99
19.57
24.43
27.97
30.46
32.11
33.05
33.34
33.10
32.31
30.99
29.07
26.61
23.81
20.97
18.45
16.46
14.95
13.68
12.29
10.45
7.93
4.70
0.92
-3.12
-7.09
-10.67
-13.73
-16.43
-19.19
-22.60
-27.21
-33.17
-40.08
-46.92
-52.18
-54.37
-52.38
-45.95
-35.77
-23.27
-10.24
1.72
11.63
19.21
24.75
28.75
31.60
33.53
34.60
34.86
34.46
33.57
32.36
30.90
29.23
27.41
25.58
23.93
22.55
21.38
20.14
18.44
16.00
12.76
8.90
4.77
0.73
-3.02
-6.41
-9.46
-12.30
-15.07
-18.03
-21.44
-25.52
-30.17
-34.83
-38.49
-39.99
-38.43
-33.54
-25.88
-16.60
-7.08
1.61
8.95
14.98
20.04
24.39
27.93
30.24
30.79
29.26
25.88
21.33
16.60
12.59
9.88
8.66
8.76
9.84
11.43
12.98
13.86
13.42
11.22
7.18
1.69
-4.50
-10.53
-15.74
-19.87
-23.12
-26.09
-29.46
-33.75
-38.98
-44.55
-49.30
-51.81
-50.91
-46.10
-37.80
-27.11
-15.48
-4.21
5.84
14.26
20.95
25.93
29.18
30.77
30.88
29.79
27.89
25.54
23.06
20.73
18.82
17.53
16.93
16.85
16.91
16.56
15.29
12.83
9.22
4.79
-0.03
-4.85
-9.40
-13.60
-17.52
-21.36
-25.42
-30.08
-35.62
-42.00
-48.69
-54.61
-58.28
-58.32
-53.90
-45.10
-32.96
-19.17
-5.55
6.40
15.92
22.94
27.92
31.49
34.16
36.16
37.46
37.93
37.48
36.19
34.28
32.08
29.86
27.83
26.06
24.53
23.10
21.52
19.53
16.86
13.39
9.12
4.24
-1.01
-6.36
-11.64
-16.71
-21.57
-26.41
-31.53
-37.30
-43.84
-50.75
-56.92
-60.78
-60.75
-55.90
-46.39
-33.53
-19.31
-5.70
5.91
15.05
21.94
27.10
30.95
33.57
34.85
34.73
33.42
31.45
29.47
27.95
27.00
26.35
25.55
24.27
22.48
20.42
18.46
16.72
15.08
13.13
10.48
6.97
2.78
-1.66
-5.91
-9.69
-13.11
-16.54
-20.57
-25.61
-31.79
-38.69
-45.36
-50.50
-52.79
-51.23
-45.51
-36.18
-24.46
-11.94
-0.11
10.07
18.19
24.40
29.04
32.42
34.68
35.85
35.98
35.25
33.96
32.39
30.75
29.09
27.44
25.84
24.40
23.21
22.19
21.04
19.33
16.68
13.04
8.67
4.07
-0.29
-4.18
-7.69
-11.17
-15.06
-19.72
-25.36
-31.93
-39.06
-46.00
-51.60
-54.56
-53.80
-48.84
-40.03
-28.58
-16.09
-4.11
6.29
14.66
21.05
25.76
29.09
31.23
32.32
32.46
31.85
30.74
29.41
28.07
26.86
25.84
24.98
24.24
23.49
22.57
21.22
19.23
16.44
12.79
8.45
3.66
-1.21
-5.81
-9.91
-13.49
-16.73
-20.02
-23.90
-28.84
-35.06
-42.27
-49.59
-55.61
-58.81
-57.99
-52.72
-43.60
-32.10
-20.10
-9.27
-0.64
5.58
9.85
12.89
15.33
17.46
19.21
20.30
20.39
19.33
17.15
14.14
10.66
7.09
3.73
0.80
-1.68
-3.77
-5.71
-7.84
-10.51
-14.01
-18.37
-23.38
-28.55
-33.42
-37.71
-41.53
-45.39
-50.01
-56.03
-63.69
-72.68
-81.99
-90.12
-95.30
-96.08
-91.85
-83.19
-71.94
-60.76
-52.45
-49.14
-51.85
-60.36
-73.53
-89.79
-107.51
-125.19
-141.51
-155.30
-165.57
-171.61
-173.02
-169.76
-162.11
-150.49
-135.41
-117.25
-96.27
-72.62
-46.49
-18.28
11.20
40.75
68.91
94.24
115.65
132.57
144.88
152.75
156.45
156.20
152.11
144.37
133.27
119.33
103.37
86.54
70.26
56.16
45.69
39.83
38.73
41.73
47.53
54.62
61.72
68.05
73.31
77.56
80.99
83.73
85.83
87.26
88.00
88.02
87.34
85.92
83.72
80.71
76.92
72.55
67.84
63.16
58.72
54.58
50.53
46.21
41.30
35.60
29.20
22.37
15.51
8.93
2.76
-3.14
-9.16
-15.80
-23.48
-32.25
-41.62
-50.53
-57.60
-61.47
-61.26
-56.85
-48.87
-38.51
-27.10
-15.79
-5.31
3.97
12.05
19.01
24.99
30.04
34.19
37.42
39.76
41.28
42.22
42.85
43.48
44.31
45.39
46.52
47.41
47.62
46.78
44.62
41.09
36.37
30.84
24.99
19.24
13.78
8.60
3.43
-2.09
-8.40
-15.74
-24.14
-33.13
-41.76
-48.67
-52.40
-51.90
-46.85
-37.92
-26.47
-14.19
-2.59
7.40
15.49
21.89
26.99
31.14
34.45
36.91
38.42
38.93
38.50
37.30
35.57
33.53
31.36
29.20
27.03
24.82
22.46
19.79
16.65
12.88
8.43
3.33
-2.23
-7.99
-13.68
-19.12
-24.32
-29.54
-35.17
-41.60
-48.96
-56.88
-64.37
-70.01
-72.28
-70.12
-63.31
-52.64
-39.64
-26.10
-13.46
-2.46
6.83
14.73
21.62
27.63
32.65
36.47
38.98
40.19
40.29
39.47
37.95
35.88
33.43
30.79
28.12
25.60
23.27
21.04
18.73
16.07
12.81
8.88
4.33
-0.55
-5.40
-9.93
-13.97
-17.66
-21.40
-25.77
-31.32
-38.26
-46.11
-53.72
-59.42
-61.58
-59.16
-52.14
-41.52
-28.96
-16.17
-4.42
5.74
14.28
21.39
27.21
31.71
34.82
36.59
37.24
37.16
36.68
35.99
35.14
34.05
32.59
30.74
28.55
26.16
23.73
21.31
18.81
16.00
12.57
8.26
3.07
-2.76
-8.78
-14.41
-19.25
-23.14
-26.28
-29.13
-32.27
-36.26
-41.35
-47.38
-53.61
-58.82
-61.55
-60.58
-55.44
-46.51
-35.03
-22.53
-10.40
0.54
9.99
18.03
24.76
30.17
34.13
36.52
37.45
37.14
36.00
34.39
32.63
30.90
29.30
27.85
26.56
25.46
24.56
23.83
23.11
22.09
20.36
17.56
13.59
8.66
3.26
-1.95
-6.50
-10.20
-13.35
-16.53
-20.52
-25.91
-32.82
-40.67
-48.19
-53.72
-55.72
-53.28
-46.41
-36.09
-23.86
-11.34
0.23
10.17
18.34
24.85
29.87
33.43
35.51
36.12
35.42
33.76
31.52
29.11
26.75
24.53
22.43
20.46
18.67
17.17
15.97
14.88
13.56
11.56
8.61
4.69
0.10
-4.67
-9.16
-13.11
-16.56
-19.88
-23.62
-28.33
-34.32
-41.36
-48.56
-54.52
-57.65
-56.75
-51.43
-42.22
-30.46
-17.81
-5.80
4.47
12.51
18.33
22.27
24.81
26.35
27.13
27.24
26.67
25.43
23.62
21.48
19.28
17.23
15.46
13.94
12.63
11.37
9.96
8.19
5.86
2.87
-0.70
-4.61
-8.58
-12.40
-16.07
-19.73
-23.71
-28.39
-34.12
-40.99
-48.65
-56.14
-62.01
-64.67
-62.95
-56.60
-46.47
-34.21
-21.67
-10.28
-0.71
7.11
13.67
19.47
24.75
29.49
33.49
36.56
38.52
39.27
38.78
37.12
34.49
31.21
27.66
24.19
20.98
18.03
15.18
12.26
9.16
5.92
2.63
-0.63
-3.82
-7.09
-10.60
-14.56
-19.14
-24.55
-30.96
-38.40
-46.56
-54.58
-61.07
-64.40
-63.20
-56.95
-46.26
-32.72
-18.40
-5.10
6.13
15.06
22.11
27.80
32.44
36.02
38.36
39.34
39.11
38.08
36.73
35.40
34.19
32.92
31.36
29.30
26.74
23.81
20.62
17.26
13.65
9.66
5.23
0.45
-4.43
-9.11
-13.34
-17.14
-20.75
-24.66
-29.41
-35.40
-42.61
-50.36
-57.35
-61.92
-62.56
-58.44
-49.76
-37.63
-23.77
-9.89
2.79
13.66
22.61
29.73
35.22
39.15
41.69
43.10
43.67
43.67
43.23
42.33
40.93
39.05
36.86
34.65
32.66
30.99
29.52
27.94
25.90
23.08
19.37
14.85
9.75
4.45
-0.75
-5.60
-10.08
-14.37
-18.90
-24.09
-30.22
-37.10
-43.95
-49.52
-52.36
-51.32
-46.02
-36.95
-25.33
-12.74
-0.61
10.04
18.68
25.25
29.91
32.95
34.61
35.10
34.54
33.00
30.68
27.84
24.88
22.21
20.08
18.49
17.21
15.90
14.18
11.84
8.78
5.02
0.67
-4.11
-9.09
-14.01
-18.64
-22.88
-26.87
-30.96
-35.60
-41.17
-47.63
-54.34
-60.10
-63.41
-62.96
-58.10
-49.17
-37.33
-24.24
-11.50
-0.20
9.15
16.62
22.49
27.03
30.32
32.36
33.10
32.63
31.25
29.34
27.33
25.56
24.17
23.18
22.44
21.79
21.00
19.87
18.16
15.68
12.31
8.09
3.21
-2.03
-7.31
-12.42
-17.31
-22.09
-27.09
-32.68
-39.16
-46.43
-53.83
-60.02
-63.38
-62.48
-56.71
-46.51
-33.30
-18.95
-5.16
6.91
16.87
24.76
30.80
35.22
38.19
39.90
40.55
40.41
39.66
38.43
36.79
34.79
32.56
30.20
27.88
25.72
23.75
21.85
19.85
17.48
14.51
10.84
6.52
1.84
-2.87
-7.33
-11.43
-15.38
-19.59
-24.57
-30.69
-37.91
-45.65
-52.73
-57.62
-58.89
-55.77
-48.44
-38.05
-26.28
-14.74
-4.47
4.27
11.73
18.28
24.03
28.78
32.22
34.19
34.82
34.54
33.76
32.69
31.36
29.66
27.55
25.18
22.81
20.75
19.13
17.88
16.69
15.11
12.74
9.28
4.75
-0.54
-6.10
-11.35
-15.87
-19.57
-22.70
-25.81
-29.56
-34.49
-40.72
-47.78
-54.58
-59.61
-61.36
-58.85
-52.01
-41.71
-29.44
-16.88
-5.34
4.48
12.50
18.98
24.31
28.70
32.19
34.74
36.32
37.01
37.01
36.58
35.97
35.29
34.51
33.51
32.17
30.47
28.48
26.31
23.93
21.20
17.91
13.97
9.43
4.63
-0.03
-4.20
-7.77
-10.92
-14.07
-17.74
-22.41
-28.30
-35.23
-42.51
-48.94
-53.08
-53.69
-50.09
-42.51
-31.98
-19.96
-7.94
3.04
12.42
20.10
26.11
30.54
33.40
34.80
35.03
34.46
33.50
32.35
31.01
29.34
27.24
24.82
22.39
20.30
18.69
17.40
15.90
13.58
9.96
4.98
-0.99
-7.30
-13.26
-18.43
-22.68
-26.30
-29.80
-33.73
-38.52
-44.27
-50.62
-56.71
-61.29
-63.02
-60.84
-54.38
-44.15
-31.43
-17.90
-5.17
5.69
14.18
20.40
24.75
27.69
29.57
30.62
30.95
30.65
29.86
28.77
27.54
26.29
25.03
23.69
22.12
20.26
18.06
15.55
12.75
9.59
5.98
1.79
-2.95
-8.08
-13.31
-18.38
-23.08
-27.46
-31.82
-36.63
-42.37
-49.16
-56.52
-63.22
-67.54
-67.89
-63.38
-54.28
-41.87
-28.02
-14.47
-2.35
7.94
16.53
23.75
29.79
34.71
38.49
41.19
42.90
43.74
43.77
43.00
41.44
39.16
36.31
33.15
29.92
26.82
23.92
21.13
18.23
14.95
11.15
6.86
2.30
-2.25
-6.59
-10.78
-15.09
-19.96
-25.77
-32.71
-40.63
-48.95
-56.64
-62.38
-64.83
-63.05
-56.80
-46.79
-34.33
-21.06
-8.35
2.92
12.41
20.19
26.47
31.46
35.21
37.74
39.03
39.15
38.32
36.85
35.11
33.35
31.66
29.96
28.12
26.12
24.10
22.27
20.75
19.35
17.61
14.98
11.13
6.16
0.58
-4.93
-9.78
-13.74
-16.99
-20.03
-23.46
-27.87
-33.64
-40.74
-48.61
-56.04
-61.42
-63.10
-60.00
-52.08
-40.37
-26.67
-12.84
-0.30
10.30
19.00
26.12
31.92
36.47
39.74
41.74
42.67
42.81
42.48
41.80
40.78
39.37
37.52
35.34
32.98
30.65
28.43
26.25
23.90
21.06
17.47
12.97
7.73
2.17
-3.14
-7.74
-11.44
-14.45
-17.33
-20.83
-25.55
-31.76
-39.10
-46.58
-52.72
-55.93
-54.99
-49.49
-39.95
-27.75
-14.55
-1.91
9.13
18.11
24.95
29.78
32.77
34.17
34.27
33.45
32.07
30.37
28.49
26.45
24.30
22.13
20.09
18.29
16.71
15.15
13.33
11.00
7.95
4.18
-0.17
-4.85
-9.56
-14.08
-18.37
-22.57
-27.04
-32.20
-38.38
-45.60
-53.37
-60.66
-66.02
-67.98
-65.44
-58.15
-46.85
-33.08
-18.67
-5.27
6.13
15.28
22.48
28.18
32.76
36.31
38.81
40.25
40.78
40.62
40.03
39.20
38.19
36.98
35.53
33.82
31.82
29.58
27.08
24.28
21.13
17.48
13.24
8.40
3.08
-2.47
-7.99
-13.30
-18.44
-23.74
-29.60
-36.33
-43.88
-51.57
-58.16
-62.14
-62.15
-57.50
-48.47
-36.26
-22.56
-8.96
3.47
14.38
23.90
32.24
39.43
45.22
49.29
51.54
52.20
51.76
50.75
49.53
48.17
46.53
44.41
41.77
38.74
35.57
32.53
29.66
26.76
23.39
19.06
13.48
6.76
-0.64
-8.06
-14.93
-20.99
-26.44
-31.80
-37.68
-44.63
-52.86
-62.14
-71.66
-80.09
-85.87
-87.55
-84.39
-76.55
-65.13
-51.75
-37.99
-25.02
-13.43
-3.35
5.26
12.45
18.21
22.57
25.64
27.59
28.60
28.83
28.40
27.44
26.13
24.65
23.15
21.71
20.33
19.00
17.65
16.23
14.58
12.49
9.71
6.05
1.52
-3.65
-9.09
-14.38
-19.31
-23.93
-28.62
-33.88
-40.10
-47.31
-54.89
-61.68
-66.20
-67.14
-63.73
-56.02
-44.85
-31.54
-17.45
-3.66
9.21
20.89
31.30
40.28
47.61
53.05
56.49
58.06
58.13
57.16
55.58
53.63
51.42
48.94
46.21
43.34
40.48
37.70
34.96
32.05
28.80
25.07
20.94
16.60
12.32
8.25
4.37
0.45
-3.95
-9.24
-15.70
-23.28
-31.44
-39.17
-45.17
-48.21
-47.42
-42.64
-34.42
-23.90
-12.51
-1.62
7.77
15.19
20.61
24.32
26.66
27.78
27.70
26.35
23.85
20.62
17.27
14.49
12.71
12.00
12.03
12.31
12.29
11.65
10.28
8.27
5.82
3.15
0.40
-2.30
-4.95
-7.58
-10.30
-13.27
-16.69
-20.65
-24.98
-29.11
-32.08
-32.72
-30.09
-23.85
-14.42
-2.88
9.37
21.04
31.25
39.54
45.73
49.74
51.49
51.00
48.55
44.75
40.41
36.38
33.18
30.97
29.50
28.39
27.29
26.00
24.52
22.90
21.16
19.23
16.92
14.01
10.31
5.83
0.71
-4.64
-9.80
-14.33
-18.05
-21.11
-23.95
-27.17
-31.31
-36.64
-43.02
-49.78
-55.83
-59.77
-60.33
-56.64
-48.72
-37.45
-24.37
-11.18
0.68
10.44
17.96
23.49
27.35
29.71
30.63
30.25
28.92
27.25
25.87
25.20
25.19
25.42
25.25
24.24
22.35
19.96
17.63
15.78
14.41
13.03
10.99
7.74
3.16
-2.42
-8.33
-13.93
-18.78
-22.81
-26.33
-29.83
-33.96
-39.29
-46.09
-54.21
-62.82
-70.55
-75.74
-76.93
-73.38
-65.36
-54.05
-41.17
-28.49
-17.32
-8.33
-1.60
3.19
6.50
8.76
10.27
11.24
11.81
12.08
12.17
12.17
12.15
12.10
11.96
11.67
11.25
10.82
10.64
10.85
11.42
11.95
11.76
10.11
6.54
1.14
-5.46
-12.27
-18.35
-23.19
-26.89
-30.10
-33.74
-38.63
-45.16
-53.21
-62.00
-70.27
-76.48
-79.16
-77.27
-70.57
-59.71
-46.03
-31.19
-16.64
-3.33
8.32
18.30
26.71
33.66
39.21
43.46
46.58
48.83
50.42
51.45
51.89
51.65
50.65
48.88
46.45
43.58
40.52
37.50
34.64
31.89
29.01
25.67
21.51
16.41
10.51
4.21
-1.89
-7.32
-11.85
-15.58
-18.98
-22.68
-27.31
-33.29
-40.67
-48.92
-56.95
-63.24
-66.27
-64.98
-59.13
-49.40
-37.09
-23.65
-10.19
2.62
14.55
25.44
35.08
43.15
49.41
53.96
57.28
60.00
62.66
65.41
67.93
69.64
70.13
69.34
67.81
66.37
65.85
66.68
68.70
71.11
72.60
71.58
66.42
56.00
40.21
20.35
-0.92
-20.31
-34.92
-43.31
-46.00
-45.10
-43.38
-43.13
-45.47
-50.15
-56.01
-61.56
-65.56
-67.23
-66.41
-63.43
-59.06
-54.34
-50.36
-48.05
-47.87
-49.72
-52.87
-56.06
-57.83
-56.88
-52.42
-44.28
-32.91
-19.17
-4.18
10.75
24.28
35.09
42.14
44.92
43.63
39.08
32.46
24.92
17.33
10.23
3.93
-1.21
-4.80
-6.35
-5.62
-2.76
1.61
6.37
10.31
12.37
12.09
9.64
5.79
1.42
-2.84
-6.94
-11.24
-16.13
-21.38
-25.92
-28.03
-25.96
-18.79
-6.91
7.98
23.46
37.17
47.44
53.63
55.91
55.08
52.36
49.26
47.50
48.68
53.77
62.63
73.70
84.38
91.79
93.77
89.65
80.45
68.39
56.15
46.01
39.23
35.81
34.69
34.15
32.36
28.00
20.71
11.17
0.93
-8.24
-14.96
-18.95
-21.13
-23.38
-27.70
-35.45
-46.73
-60.23
-73.72
-84.66
-90.98
-91.52
-86.16
-75.63
-61.30
-44.89
-28.16
-12.49
1.82
16.00
32.60
54.48
83.13
117.15
151.80
180.23
195.80
194.49
176.07
143.58
101.83
55.61
9.10
-33.93
-69.66
-94.61
-106.91
-107.84
-102.18
-96.75
-97.63
-107.41
-124.16
-142.52
-156.24
-160.88
-155.16
-140.84
-121.31
-100.16
-79.85
-61.42
-44.74
-29.17
-14.35
-0.54
11.40
20.61
26.97
31.42
35.65
40.97
47.39
53.15
55.36
51.47
40.50
23.68
3.87
-15.55
-31.98
-44.23
-52.55
-58.03
-61.99
-65.41
-68.75
-71.92
-74.39
-75.31
-73.69
-68.69
-59.90
-47.44
-32.04
-14.82
2.96
20.17
35.85
49.28
59.97
67.62
72.17
73.86
73.20
70.84
67.38
63.22
58.52
53.27
47.43
41.15
34.81
28.91
23.96
20.29
17.90
16.46
15.39
13.99
11.63
7.88
2.64
-3.87
-11.08
-18.26
-24.61
-29.47
-32.39
-33.19
-31.95
-29.00
-24.90
-20.34
-16.08
-12.74
-10.65
-9.73
-9.61
-9.77
-9.79
-9.56
-9.18
-8.91
-8.94
-9.33
-10.00
-10.84
-11.79
-12.86
-14.07
-15.39
-16.77
-18.16
-19.59
-21.17
-23.00
-25.09
-27.14
-28.69
-29.28
-28.69
-27.06
-24.81
-22.38
-19.93
-17.29
-14.08
-10.01
-5.16
0.04
5.06
9.59
13.67
17.62
21.64
25.50
28.48
29.64
28.33
24.47
18.82
12.61
7.23
3.67
2.29
2.74
4.20
5.70
6.38
5.78
3.80
0.64
-3.29
-7.53
-11.68
-15.48
-18.84
-21.88
-24.95
-28.36
-32.21
-36.18
-39.40
-40.72
-39.13
-34.21
-26.34
-16.63
-6.53
2.69
10.27
16.01
20.15
23.05
24.99
26.07
26.21
25.28
23.20
20.11
16.39
12.60
9.34
6.91
5.24
3.86
2.23
0.01
-2.74
-5.56
-7.97
-9.72
-10.93
-12.08
-13.73
-16.33
-20.19
-25.47
-32.03
-39.33
-46.25
-51.19
-52.47
-48.99
-40.89
-29.70
-18.00
-8.52
-3.20
-2.59
-5.86
-11.34
-17.21
-22.15
-25.49
-27.10
-27.05
-25.42
-22.16
-17.27
-10.92
-3.56
4.18
11.71
18.68
25.07
31.12
37.10
43.12
48.90
53.97
57.68
59.51
59.14
56.48
51.55
44.52
35.75
25.97
16.40
8.66
4.40
4.74
9.93
19.14
30.76
42.87
53.73
62.09
67.31
69.25
68.19
64.67
59.42
53.28
47.07
41.41
36.65
32.86
29.84
27.26
24.68
21.71
17.89
12.84
6.22
-2.06
-11.83
-22.62
-33.68
-44.26
-53.75
-62.02
-69.42
-76.64
-84.38
-93.00
-102.22
-111.05
-118.09
-121.86
-121.38
-116.47
-107.88
-97.02
-85.54
-74.83
-65.67
-58.20
-52.05
-46.69
-41.67
-36.76
-31.94
-27.32
-22.97
-18.93
-15.18
-11.69
-8.45
-5.56
-3.15
-1.39
-0.29
0.27
0.59
1.00
1.74
2.84
4.03
4.87
4.83
3.47
0.56
-3.82
-9.12
-14.40
-18.39
-19.76
-17.52
-11.40
-1.98
9.42
21.17
31.78
40.26
46.29
50.00
51.82
52.16
51.28
49.40
46.60
43.01
38.84
34.39
30.05
26.16
22.94
20.40
18.34
16.46
14.49
12.34
10.04
7.67
5.28
2.82
0.20
-2.72
-6.11
-10.22
-15.37
-21.83
-29.59
-38.06
-45.99
-51.69
-53.47
-50.21
-41.79
-29.16
-14.09
1.38
15.43
26.92
35.44
41.23
44.87
47.01
48.10
48.34
47.77
46.38
44.23
41.50
38.51
35.58
32.96
30.77
28.96
27.29
25.41
22.97
19.76
15.81
11.38
6.86
2.56
-1.43
-5.24
-9.18
-13.57
-18.66
-24.46
-30.61
-36.32
-40.42
-41.55
-38.68
-31.48
-20.60
-7.51
5.93
18.04
27.70
34.54
38.73
40.74
41.12
40.38
38.92
37.07
35.05
32.92
30.66
28.29
25.88
23.59
21.61
20.03
18.79
17.70
16.47
14.83
12.57
9.57
5.89
1.67
-2.85
-7.41
-11.83
-16.09
-20.39
-25.15
-30.76
-37.29
-44.22
-50.32
-53.91
-53.38
-47.86
-37.58
-23.94
-9.02
5.04
16.71
25.29
30.87
33.97
35.17
34.93
33.54
31.20
28.22
25.00
21.98
19.57
17.94
17.07
16.67
16.45
16.07
15.34
14.23
12.74
10.88
8.58
5.77
2.35
-1.63
-6.10
-10.92
-15.98
-21.27
-26.86
-32.96
-39.68
-46.86
-53.80
-59.25
-61.63
-59.54
-52.35
-40.55
-25.71
-9.98
4.55
16.48
25.29
31.23
34.85
36.70
37.18
36.45
34.69
32.13
29.10
25.95
22.97
20.31
17.99
15.98
14.26
12.81
11.62
10.54
9.34
7.67
5.31
2.19
-1.49
-5.36
-9.07
-12.41
-15.41
-18.28
-21.41
-25.22
-29.95
-35.46
-41.01
-45.29
-46.71
-44.01
-36.75
-25.67
-12.43
0.92
12.62
21.66
27.86
31.64
33.59
34.21
33.79
32.49
30.47
27.96
25.28
22.71
20.46
18.56
16.96
15.55
14.26
13.04
11.85
10.56
8.96
6.87
4.20
1.02
-2.46
-6.02
-9.49
-12.83
-16.18
-19.80
-24.02
-29.14
-35.19
-41.71
-47.64
-51.46
-51.64
-47.13
-37.92
-25.06
-10.46
3.78
15.93
25.02
30.92
34.04
35.15
34.91
33.77
31.95
29.52
26.58
23.34
20.14
17.38
15.32
13.99
13.15
12.38
11.29
9.59
7.22
4.28
0.96
-2.57
-6.12
-9.57
-12.83
-15.91
-18.88
-22.03
-25.72
-30.33
-36.00
-42.35
-48.37
-52.52
-53.23
-49.41
-40.95
-28.82
-14.84
-1.09
10.74
19.69
25.69
29.30
31.27
32.22
32.45
31.98
30.72
28.70
26.06
23.15
20.35
17.92
15.96
14.36
12.91
11.37
9.56
7.41
4.95
2.27
-0.50
-3.24
-5.91
-8.57
-11.34
-14.46
-18.21
-22.86
-28.53
-35.05
-41.71
-47.36
-50.54
-49.91
-44.72
-35.19
-22.51
-8.51
4.82
15.98
24.14
29.30
31.98
32.88
32.65
31.70
30.27
28.45
26.33
24.00
21.64
19.41
17.49
16.01
15.02
14.40
13.92
13.31
12.27
10.60
8.24
5.19
1.54
-2.60
-7.11
-11.83
-16.65
-21.58
-26.82
-32.58
-38.82
-44.90
-49.57
-51.17
-48.34
-40.57
-28.59
-14.11
0.70
13.98
24.59
32.28
37.41
40.62
42.43
43.12
42.80
41.49
39.29
36.47
33.46
30.74
28.70
27.49
26.99
26.81
26.43
25.41
23.42
20.40
16.49
11.98
7.20
2.42
-2.24
-6.84
-11.55
-16.64
-22.42
-28.99
-36.15
-43.13
-48.67
-51.23
-49.52
-43.06
-32.38
-18.95
-4.61
9.05
21.05
31.01
38.80
44.27
47.14
47.33
45.26
41.91
38.55
36.08
34.60
33.41
31.54
28.46
24.56
21.05
19.24
19.75
21.91
23.89
23.32
18.13
7.23
-9.40
-30.79
-55.34
-80.94
-104.94
-124.40
-136.45
-139.32
-132.82
-118.33
-97.98
-73.26
-43.84
-7.40
39.11
96.93
163.25
230.38
287.37
323.41
331.63
311.19
266.89
206.47
137.60
66.10
-3.92
-68.63
-123.44
-163.41
-185.09
-188.46
-177.74
-159.92
-142.07
-128.73
-120.77
-116.15
-111.64
-104.83
-95.11
-83.53
-71.94
-61.91
-54.31
-49.20
-46.31
-45.38
-46.20
-48.36
-50.98
-52.71
-52.13
-48.37
-41.42
-32.11
-21.66
-11.21
-1.50
7.00
13.87
18.65
20.83
20.28
17.39
13.01
8.23
4.02
1.04
-0.45
-0.42
0.95
3.39
6.59
10.16
13.73
16.91
19.31
20.59
20.58
19.31
17.03
14.19
11.27
8.61
6.24
3.86
1.04
-2.58
-7.00
-11.71
-15.81
-18.26
-18.23
-15.50
-10.46
-4.02
2.75
8.98
14.18
18.26
21.21
23.06
23.69
23.05
21.24
18.64
15.81
13.35
11.77
11.35
12.09
13.74
15.77
17.46
18.12
17.32
14.99
11.59
7.84
4.45
1.83
-0.04
-1.57
-3.40
-6.10
-10.02
-15.11
-20.85
-26.30
-30.34
-32.01
-30.83
-27.03
-21.32
-14.78
-8.32
-2.53
2.37
6.40
9.59
11.91
13.24
13.54
12.97
11.85
10.60
9.54
8.86
8.59
8.65
8.99
9.50
10.06
10.46
10.45
9.80
8.37
6.21
3.53
0.62
-2.25
-4.90
-7.29
-9.59
-12.14
-15.33
-19.37
-24.09
-28.78
-32.36
-33.61
-31.75
-26.73
-19.27
-10.64
-2.12
5.30
11.17
15.46
18.42
20.30
21.31
21.59
21.30
20.68
19.99
19.41
19.01
18.73
18.45
18.11
17.75
17.50
17.46
17.59
17.68
17.35
16.25
14.21
11.39
8.07
4.62
1.24
-2.06
-5.47
-9.25
-13.53
-18.28
-23.14
-27.47
-30.49
-31.41
-29.76
-25.49
-19.06
-11.31
-3.18
4.50
11.15
16.41
20.20
22.61
23.83
24.18
24.01
23.58
23.04
22.43
21.72
20.93
20.11
19.40
18.88
18.50
18.10
17.42
16.26
14.50
12.24
9.69
7.10
4.68
2.47
0.37
-1.88
-4.58
-7.94
-12.07
-16.91
-22.24
-27.66
-32.59
-36.28
-37.96
-37.01
-33.23
-26.91
-18.85
-10.14
-1.83
5.29
10.89
15.00
17.96
20.13
21.78
23.02
23.82
24.11
23.85
23.15
22.20
21.25
20.46
19.83
19.24
18.57
17.70
16.62
15.35
13.89
12.09
9.73
6.57
2.58
-2.11
-7.00
-11.60
-15.43
-18.39
-20.79
-23.21
-26.29
-30.37
-35.19
-39.88
-43.18
-43.86
-41.13
-34.97
-26.16
-15.94
-5.68
3.52
11.01
16.62
20.42
22.66
23.61
23.59
22.95
22.06
21.22
20.61
20.21
19.87
19.45
18.86
18.16
17.54
17.15
17.09
17.30
17.51
17.31
16.32
14.30
11.27
7.58
3.69
0.06
-3.10
-5.90
-8.72
-11.95
-15.91
-20.63
-25.78
-30.75
-34.71
-36.80
-36.31
-32.95
-26.93
-19.02
-10.25
-1.65
5.94
12.06
16.57
19.54
21.14
21.63
21.37
20.72
20.01
19.46
19.10
18.89
18.70
18.51
18.28
17.99
17.56
16.89
15.84
14.38
12.46
10.03
7.15
3.92
0.57
-2.62
-5.44
-7.88
-10.12
-12.45
-15.25
-18.74
-23.01
-27.86
-32.80
-37.02
-39.53
-39.40
-36.11
-29.86
-21.52
-12.41
-3.76
3.56
9.32
13.71
17.05
19.59
21.36
22.40
22.72
22.56
22.20
21.93
21.87
21.90
21.83
21.42
20.62
19.54
18.42
17.44
16.62
15.77
14.57
12.72
10.12
6.90
3.36
-0.16
-3.44
-6.50
-9.54
-12.97
-17.11
-22.17
-28.03
-34.18
-39.77
-43.74
-45.13
-43.36
-38.42
-30.91
-21.82
-12.30
-3.30
4.52
10.84
15.58
18.83
20.78
21.69
21.90
21.76
21.54
21.42
21.39
21.36
21.29
21.17
21.06
21.06
21.11
21.06
20.64
19.62
17.85
15.36
12.31
8.92
5.38
1.75
-1.91
-5.61
-9.29
-12.90
-16.46
-20.08
-23.98
-28.32
-32.98
-37.37
-40.52
-41.27
-38.74
-32.75
-23.94
-13.60
-3.21
5.98
13.28
18.57
22.05
24.06
24.90
24.81
24.02
22.83
21.56
20.49
19.75
19.32
19.04
18.72
18.22
17.50
16.68
15.83
15.05
14.26
13.28
11.82
9.64
6.64
2.94
-1.17
-5.25
-8.99
-12.32
-15.56
-19.18
-23.62
-28.91
-34.44
-39.08
-41.53
-40.83
-36.62
-29.44
-20.36
-10.70
-1.53
6.46
12.98
18.03
21.65
23.95
25.08
25.35
25.15
24.86
24.72
24.69
24.59
24.18
23.37
22.21
20.89
19.58
18.31
16.99
15.39
13.36
10.85
8.00
4.99
2.02
-0.80
-3.56
-6.36
-9.44
-12.96
-17.05
-21.66
-26.57
-31.27
-34.94
-36.67
-35.66
-31.61
-24.83
-16.30
-7.26
1.15
8.16
13.51
17.30
19.77
21.13
21.56
21.25
20.43
19.40
18.39
17.60
17.08
16.84
16.77
16.69
16.39
15.58
14.06
11.77
8.87
5.68
2.56
-0.23
-2.73
-5.12
-7.75
-10.92
-14.83
-19.51
-24.84
-30.50
-35.85
-40.11
-42.34
-41.75
-37.94
-31.14
-22.19
-12.32
-2.86
5.17
11.32
15.70
18.77
21.08
23.01
24.57
25.57
25.72
24.91
23.31
21.33
19.45
18.02
17.12
16.59
16.12
15.35
14.01
11.99
9.37
6.34
3.13
-0.06
-3.20
-6.38
-9.78
-13.56
-17.86
-22.68
-27.85
-33.06
-37.72
-41.09
-42.31
-40.74
-36.12
-28.81
-19.65
-9.89
-0.72
6.97
12.73
16.68
19.19
20.87
22.16
23.31
24.30
24.86
24.77
23.92
22.53
20.99
19.71
18.90
18.49
18.18
17.56
16.35
14.50
12.07
9.29
6.31
3.24
0.12
-3.07
-6.34
-9.79
-13.51
-17.68
-22.38
-27.51
-32.61
-36.83
-39.10
-38.44
-34.37
-27.13
-17.74
-7.70
1.53
8.92
14.13
17.43
19.44
20.74
21.66
22.25
22.45
22.16
21.42
20.43
19.42
18.57
17.94
17.41
16.81
15.98
14.85
13.50
12.04
10.56
9.02
7.27
5.12
2.39
-0.88
-4.51
-8.32
-12.22
-16.32
-20.86
-25.92
-31.18
-35.83
-38.71
-38.73
-35.30
-28.66
-19.85
-10.29
-1.30
6.29
12.24
16.76
20.15
22.54
23.90
24.15
23.36
21.79
19.86
18.01
16.48
15.33
14.37
13.36
12.11
10.50
8.59
6.50
4.45
2.57
0.92
-0.58
-2.06
-3.64
-5.37
-7.26
-9.39
-11.89
-14.99
-18.80
-23.14
-27.42
-30.67
-31.89
-30.33
-25.86
-18.99
-10.79
-2.45
4.99
11.00
15.48
18.63
20.78
22.15
22.81
22.73
21.87
20.32
18.32
16.27
14.55
13.45
13.00
12.97
12.95
12.54
11.51
9.88
7.88
5.69
3.45
1.10
-1.49
-4.43
-7.72
-11.31
-15.24
-19.66
-24.79
-30.69
-36.98
-42.77
-46.81
-47.90
-45.33
-39.29
-30.70
-21.00
-11.55
-3.32
3.37
8.63
12.76
16.04
18.60
20.48
21.71
22.40
22.72
22.79
22.70
22.44
21.97
21.30
20.47
19.60
18.77
17.97
17.06
15.81
13.92
11.19
7.65
3.54
-0.73
-4.71
-8.21
-11.36
-14.66
-18.67
-23.73
-29.66
-35.66
-40.44
-42.71
-41.57
-36.87
-29.23
-19.84
-10.06
-1.03
6.55
12.46
16.77
19.75
21.69
22.89
23.64
24.14
24.54
24.78
24.70
24.07
22.87
21.28
19.72
18.60
18.11
18.10
18.13
17.68
16.35
14.02
10.83
7.08
3.07
-1.01
-5.06
-9.10
-13.21
-17.54
-22.19
-27.24
-32.53
-37.63
-41.77
-43.99
-43.42
-39.60
-32.71
-23.61
-13.64
-4.17
3.77
9.77
13.98
16.89
19.04
20.75
22.05
22.78
22.82
22.17
21.03
19.75
18.64
17.90
17.55
17.37
17.09
16.45
15.31
13.69
11.70
9.46
6.97
4.13
0.79
-3.11
-7.48
-12.14
-16.89
-21.74
-26.83
-32.40
-38.37
-44.26
-49.05
-51.51
-50.60
-46.00
-38.28
-28.81
-19.38
-11.54
-6.27
-3.68
-3.20
-3.99
-5.21
-6.43
-7.65
-9.20
-11.55
-15.08
-19.86
-25.64
-31.86
-37.69
-42.30
-44.98
-45.31
-43.30
-39.35
-34.12
-28.28
-22.36
-16.60
-11.15
-6.31
-2.96
-2.64
-7.22
-18.05
-34.93
-55.49
-75.27
-88.97
-92.11
-82.73
-62.14
-34.43
-5.04
21.25
41.89
57.32
70.66
86.32
108.25
138.12
174.18
211.18
241.78
258.98
258.91
242.73
216.67
189.83
170.58
163.09
165.69
171.80
173.12
163.11
139.51
104.43
62.69
19.19
-22.90
-62.66
-100.67
-137.91
-175.05
-212.38
-250.11
-288.49
-327.55
-366.58
-403.74
-436.30
-461.28
-476.60
-481.96
-479.05
-471.00
-461.13
-451.82
-443.72
-435.96
-426.85
-414.89
-399.37
-380.48
-359.01
-335.62
-310.66
-283.99
-255.43
-225.05
-193.30
-160.84
-128.21
-95.59
-62.62
-28.59
7.32
45.86
87.66
133.28
182.80
235.21
287.68
335.58
373.39
396.43
402.59
393.06
371.59
342.80
310.41
276.43
241.59
206.46
172.50
142.17
118.11
101.96
93.65
91.49
92.94
95.59
97.75
98.72
98.49
97.34
95.41
92.54
88.41
82.77
75.79
68.14
60.82
54.82
50.68
48.38
47.21
46.13
43.91
39.51
32.27
22.16
9.68
-4.22
-18.31
-31.44
-42.58
-50.80
-55.22
-55.00
-49.57
-39.04
-24.45
-7.61
9.32
24.50
36.91
46.30
52.88
56.83
58.08
56.29
51.31
43.36
33.12
21.51
9.39
-2.49
-13.35
-22.14
-27.50
-28.16
-23.43
-13.70
-0.43
14.31
28.60
41.17
51.56
59.75
65.66
68.85
68.64
64.52
56.70
46.41
35.82
27.50
23.74
25.87
33.77
45.92
59.89
73.06
83.37
89.80
92.44
92.29
90.83
89.53
89.53
91.44
95.25
100.40
105.91
110.60
113.35
113.35
110.33
104.70
97.53
90.29
84.39
80.53
78.44
76.82
73.91
68.23
59.14
47.04
33.03
18.26
3.59
-10.50
-23.43
-34.17
-41.17
-42.85
-38.40
-28.32
-14.35
1.07
15.74
28.34
38.64
47.06
54.09
59.79
63.63
64.81
62.79
57.71
50.50
42.61
35.52
30.19
26.78
24.78
23.34
21.71
19.47
16.55
12.95
8.53
2.98
-3.97
-12.17
-20.88
-28.91
-35.12
-39.13
-41.62
-44.15
-48.33
-54.99
-63.41
-71.52
-76.67
-76.85
-71.52
-61.75
-49.56
-36.93
-25.30
-15.42
-7.86
-3.47
-3.31
-8.28
-18.49
-33.14
-50.73
-69.66
-88.62
-106.69
-123.20
-137.43
-148.79
-157.07
-162.81
-167.39
-172.74
-180.77
-192.65
-208.17
-225.20
-239.96
-247.69
-244.03
-226.35
-194.77
-152.16
-103.18
-52.76
-4.80
38.36
75.67
106.57
130.37
146.35
154.25
155.13
151.75
148.40
149.94
160.59
182.80
216.52
259.14
306.01
351.42
389.73
416.33
428.44
425.45
408.77
381.33
346.83
308.98
270.90
234.85
202.22
173.70
149.43
129.22
112.61
98.89
87.05
75.80
63.89
50.45
35.48
19.98
5.75
-5.18
-11.24
-11.98
-8.31
-2.33
3.27
6.10
4.82
-0.50
-8.47
-17.05
-24.32
-29.16
-31.56
-32.37
-32.80
-33.87
-36.07
-39.34
-43.14
-46.66
-49.16
-50.12
-49.64
-48.46
-47.93
-49.52
-54.35
-62.71
-73.91
-86.44
-98.28
-107.41
-112.41
-112.88
-109.73
-104.94
-100.93
-99.56
-101.38
-105.20
-108.49
-108.21
-101.95
-88.84
-69.86
-47.66
-25.75
-7.66
3.85
7.46
3.33
-7.02
-21.35
-37.34
-53.23
-68.12
-82.00
-95.49
-109.35
-123.99
-139.19
-154.09
-167.52
-178.55
-186.79
-192.38
-195.74
-197.23
-197.06
-195.30
-191.89
-186.48
-178.29
-166.29
-149.88
-129.95
-109.48
-93.10
-85.57
-89.86
-105.74
-129.67
-155.99
-178.77
-193.40
-197.23
-189.54
-171.08
-143.74
-110.49
-75.17
-41.82
-13.59
8.34
25.30
40.77
59.19
84.47
118.86
162.55
214.00
270.64
329.25
386.20
437.43
478.86
507.24
520.99
520.66
508.65
488.17
462.03
431.92
398.45
361.78
322.54
282.40
244.08
210.91
185.99
171.40
167.52
172.49
182.38
191.89
195.82
190.58
175.25
151.60
123.01
92.90
63.36
34.79
6.62
-21.58
-49.19
-74.52
-95.67
-111.52
-122.23
-128.97
-133.13
-135.57
-136.55
-136.02
-134.06
-131.04
-127.44
-123.56
-119.47
-115.34
-111.69
-109.44
-109.35
-111.41
-114.33
-115.86
-113.52
-105.59
-91.81
-73.30
-51.97
-29.76
-8.04
12.49
31.52
48.81
63.91
76.23
85.28
90.95
93.66
94.29
93.83
92.95
91.60
88.88
83.22
72.92
56.76
34.42
6.48
-26.07
-62.26
-101.33
-142.21
-183.00
-220.74
-252.11
-274.70
-288.06
-293.76
-294.24
-291.00
-283.20
-267.83
-241.35
-201.98
-151.21
-93.79
-36.31
14.84
54.90
81.26
93.08
90.82
75.95
51.12
20.47
-10.53
-35.97
-51.16
-54.38
-47.94
-37.56
-30.32
-31.72
-43.36
-62.27
-82.32
-97.14
-103.15
-101.16
-95.84
-93.49
-99.05
-113.86
-135.08
-156.86
-172.68
-177.62
-170.27
-152.90
-130.23
-107.31
-87.11
-69.02
-48.79
-20.55
20.13
73.16
132.60
187.87
227.17
241.55
227.64
188.02
129.46
60.52
-10.11
-74.03
-123.20
-150.55
-151.97
-128.52
-87.47
-40.63
-0.63
23.39
28.29
16.51
-6.41
-34.68
-64.02
-91.56
-114.81
-130.83
-136.29
-128.38
-105.94
-70.35
-25.44
22.90
67.63
101.82
119.89
119.02
100.07
67.59
28.89
-7.71
-35.00
-48.33
-46.21
-29.99
-3.22
29.14
61.28
87.27
102.07
102.59
88.65
63.00
30.47
-3.75
-35.73
-63.67
-87.60
-108.06
-124.68
-135.44
-137.04
-125.91
-99.65
-58.22
-4.90
53.79
108.99
151.71
175.31
177.58
161.31
133.04
100.60
70.49
46.54
29.97
20.54
17.79
21.29
30.22
42.60
55.07
63.59
64.79
57.20
41.82
21.75
1.24
-15.64
-26.08
-29.08
-25.55
-17.97
-9.71
-4.22
-4.09
-10.37
-22.25
-37.33
-52.35
-64.18
-70.74
-71.36
-66.64
-57.99
-46.98
-34.94
-22.82
-11.17
-0.14
10.39
20.75
31.16
41.50
51.11
58.77
63.11
63.18
58.86
51.10
41.58
32.22
24.52
19.18
15.98
14.11
12.49
10.20
6.67
1.77
-4.32
-11.29
-18.83
-26.75
-35.02
-43.68
-52.73
-61.86
-70.35
-76.99
-80.36
-79.13
-72.68
-61.36
-46.49
-30.09
-14.22
-0.54
10.14
17.81
23.02
26.55
29.00
30.71
31.78
32.36
32.87
34.05
36.61
40.89
46.49
52.27
56.71
58.44
56.82
52.00
44.80
36.17
26.92
17.54
8.43
-0.00
-7.30
-13.16
-17.69
-21.53
-25.61
-30.71
-36.94
-43.47
-48.64
-50.51
-47.47
-38.85
-25.08
-7.62
11.45
30.03
46.45
59.87
70.28
78.35
84.97
90.70
95.55
98.90
99.88
97.78
92.49
84.54
74.98
65.09
56.03
48.74
43.61
40.42
38.33
36.06
32.31
26.22
17.66
7.17
-4.39
-16.27
-28.07
-39.71
-51.15
-62.12
-71.98
-79.98
-85.47
-88.17
-88.10
-85.44
-80.19
-72.07
-60.55
-45.12
-25.72
-3.05
21.22
44.62
64.51
79.13
88.27
93.31
96.42
99.11
101.03
99.70
91.64
73.99
45.80
8.27
-35.92
-83.40
-130.29
-171.89
-202.64
-217.02
-211.57
-187.08
-149.67
-109.49
-77.47
-61.35
-62.79
-77.23
-96.15
-110.96
-116.18
-110.85
-97.63
-80.70
-63.87
-49.49
-38.66
-32.01
-30.07
-32.89
-39.33
-46.62
-50.98
-48.95
-38.88
-21.39
1.03
25.21
48.25
68.00
83.00
92.33
95.71
93.79
88.08
80.62
73.05
66.05
59.04
50.97
41.25
30.55
20.80
14.34
12.71
15.76
21.53
27.01
29.31
26.81
19.59
9.26
-1.80
-11.50
-18.68
-23.44
-26.85
-30.27
-34.65
-40.11
-45.88
-50.70
-53.29
-52.62
-48.00
-39.06
-25.80
-8.95
9.93
28.47
44.07
54.77
59.95
60.61
58.96
57.64
58.62
62.57
68.61
74.79
78.79
78.81
73.93
64.20
50.31
33.32
14.49
-4.66
-22.25
-36.23
-44.88
-47.50
-44.83
-39.05
-33.19
-30.14
-31.71
-38.06
-47.69
-57.98
-66.19
-70.39
-70.27
-67.17
-63.42
-61.16
-61.27
-62.88
-63.93
-62.30
-56.90
-48.25
-38.15
-28.70
-21.28
-16.03
-12.11
-8.38
-4.24
0.07
3.65
5.50
5.09
2.71
-0.66
-3.71
-5.27
-4.80
-2.55
0.49
2.86
3.12
0.39
-5.19
-12.15
-18.13
-20.70
-18.55
-12.30
-4.41
1.71
3.14
-1.38
-11.02
-23.23
-34.66
-42.25
-44.08
-39.90
-31.17
-20.65
-11.54
-6.27
-5.64
-8.53
-12.74
-16.19
-17.93
-18.28
-17.87
-16.66
-13.61
-7.33
2.68
15.33
28.22
38.76
45.61
49.01
50.40
51.49
53.53
57.34
63.54
72.83
85.49
100.82
116.69
130.04
138.05
139.31
134.38
125.29
114.41
103.38
92.84
82.77
73.23
64.72
58.01
53.41
50.19
46.61
40.56
30.61
16.65
0.08
-16.70
-31.11
-40.97
-44.82
-42.10
-33.04
-18.78
-1.39
16.43
31.74
42.04
45.75
42.32
32.11
16.07
-4.42
-27.49
-50.79
-71.82
-88.45
-99.61
-105.58
-107.77
-108.02
-107.73
-107.50
-107.26
-107.01
-107.44
-110.17
-117.27
-130.28
-149.27
-172.46
-196.61
-218.11
-234.32
-244.35
-249.13
-250.56
-250.32
-249.09
-246.49
-241.76
-234.52
-225.08
-214.00
-201.33
-186.04
-166.33
-140.70
-109.23
-74.25
-39.84
-10.31
11.55
25.78
35.18
44.21
57.05
75.99
100.71
128.77
156.99
183.00
206.20
227.47
247.88
267.25
283.33
292.44
291.17
278.28
255.76
228.23
201.05
178.12
160.61
147.14
135.27
123.33
111.47
101.40
95.28
94.26
97.84
104.26
111.51
118.32
124.47
130.52
136.91
143.32
148.49
150.61
147.99
139.80
126.48
109.71
92.00
76.02
63.90
56.75
54.52
56.25
60.65
66.75
74.18
82.87
92.37
100.97
105.41
101.56
85.80
56.76
16.31
-30.65
-77.59
-118.24
-148.32
-166.32
-173.33
-172.27
-166.88
-160.92
-157.37
-157.90
-162.34
-168.72
-173.79
-173.98
-166.58
-150.63
-127.27
-99.32
-70.63
-45.03
-25.59
-13.97
-10.33
-13.42
-21.08
-30.80
-40.13
-47.07
-50.25
-48.99
-43.40
-34.34
-23.26
-11.88
-1.66
6.57
12.75
17.46
21.40
24.96
27.92
29.62
29.43
27.33
24.22
21.74
21.69
25.30
32.66
42.58
52.98
61.68
67.09
68.80
67.78
66.12
66.44
71.07
81.57
98.28
120.26
145.34
170.43
191.99
206.80
212.76
209.54
198.73
183.37
166.99
152.64
142.17
136.13
134.05
134.87
137.34
140.20
142.22
142.49
140.60
136.76
131.62
125.66
118.90
110.62
99.65
84.95
66.21
44.33
20.92
-2.00
-22.82
-40.93
-56.87
-72.23
-89.49
-111.65
-141.31
-179.41
-224.01
-269.91
-309.85
-336.75
-346.13
-337.41
-313.70
-280.20
-242.49
-205.24
-172.04
-145.48
-127.25
-117.84
-116.00
-118.84
-122.68
-124.39
-122.77
-119.15
-117.08
-121.31
-136.95
-168.10
-216.31
-279.22
-349.84
-417.31
-469.51
-496.85
-495.35
-467.97
-423.22
-371.60
-321.79
-278.13
-240.53
-205.99
-171.17
-134.33
-96.31
-60.29
-31.04
-13.85
-13.05
-30.39
-63.66
-106.46
-149.63
-183.81
-202.44
-203.57
-189.87
-166.84
-140.31
-114.37
-90.65
-68.81
-47.69
-26.24
-3.81
20.18
46.93
78.29
116.39
162.79
217.79
280.38
348.83
421.59
497.49
575.10
651.29
720.31
774.16
804.67
806.37
778.77
726.68
658.44
582.70
505.60
429.59
354.39
279.19
204.79
133.87
69.73
14.10
-34.28
-79.27
-125.05
-173.36
-221.90
-265.15
-297.35
-315.50
-320.76
-317.21
-308.77
-296.54
-278.11
-249.43
-207.83
-154.42
-94.29
-34.63
17.97
59.84
90.77
113.05
129.75
143.34
155.27
166.35
177.50
190.06
205.60
225.04
247.75
271.08
290.95
303.17
305.04
296.24
278.70
255.45
229.14
201.16
171.61
140.02
106.39
71.61
37.09
3.89
-28.24
-60.92
-96.33
-135.64
-177.91
-219.77
-256.64
-284.46
-301.64
-309.83
-313.29
-317.14
-325.02
-337.64
-352.54
-365.55
-372.70
-372.01
-364.01
-351.09
-336.13
-321.07
-306.42
-291.32
-274.30
-253.78
-228.43
-197.42
-160.67
-119.34
-76.17
-35.34
-1.57
21.30
31.83
31.70
25.25
18.02
14.68
17.47
25.69
36.42
46.29
53.03
56.41
57.98
59.88
63.64
69.49
76.55
83.64
90.06
95.80
101.10
105.85
109.30
110.15
107.29
100.46
90.51
79.19
68.46
59.80
53.74
49.86
47.10
44.25
40.53
35.67
29.95
23.73
17.23
10.48
3.47
-3.44
-9.39
-13.13
-13.46
-9.77
-2.36
7.67
18.84
29.80
39.67
48.10
54.99
60.22
63.57
64.75
63.67
60.56
55.93
50.52
45.00
39.82
35.18
31.03
27.22
23.49
19.63
15.41
10.65
5.23
-0.91
-7.78
-15.51
-24.34
-34.57
-46.32
-59.21
-72.11
-83.26
-90.67
-92.76
-88.89
-79.57
-66.23
-50.66
-34.46
-18.71
-4.00
9.37
21.16
31.03
38.63
43.77
46.55
47.38
46.93
45.88
44.72
43.73
42.83
41.73
40.10
37.67
34.37
30.38
26.00
21.52
17.15
12.85
8.33
3.09
-3.38
-11.45
-21.19
-32.19
-43.50
-53.72
-61.24
-64.58
-62.76
-55.67
-44.09
-29.51
-13.74
1.60
15.43
27.28
37.26
45.67
52.75
58.54
62.87
65.47
66.26
65.38
63.30
60.62
57.90
55.44
53.16
50.72
47.74
43.98
39.52
34.66
29.71
24.80
19.80
14.35
8.14
0.96
-7.17
-16.19
-26.00
-36.41
-46.91
-56.50
-63.67
-66.69
-64.25
-55.97
-42.66
-26.16
-8.70
7.75
21.99
33.65
43.01
50.50
56.42
60.81
63.61
64.77
64.44
62.96
60.74
58.16
55.41
52.61
49.75
46.87
43.99
41.07
37.97
34.45
30.22
25.12
19.18
12.67
5.99
-0.47
-6.57
-12.46
-18.57
-25.42
-33.43
-42.50
-51.92
-60.29
-65.89
-67.18
-63.27
-54.37
-41.68
-27.06
-12.41
0.81
11.83
20.56
27.26
32.34
36.05
38.52
39.75
39.76
38.68
36.82
34.59
32.44
30.74
29.63
29.00
28.52
27.79
26.48
24.36
21.39
17.64
13.27
8.45
3.43
-1.64
-6.69
-11.86
-17.48
-23.99
-31.73
-40.65
-50.17
-59.01
-65.58
-68.27
-66.04
-58.74
-47.26
-33.21
-18.53
-4.91
6.59
15.71
22.75
28.29
32.80
36.45
39.16
40.71
40.99
40.10
38.40
36.35
34.35
32.66
31.23
29.85
28.20
25.99
23.02
19.28
14.89
10.05
4.92
-0.36
-5.70
-11.07
-16.46
-21.96
-27.81
-34.32
-41.74
-49.87
-57.90
-64.42
-67.74
-66.50
-60.24
-49.64
-36.32
-22.31
-9.37
1.47
10.05
16.82
22.57
27.96
33.32
38.60
43.38
47.11
49.27
49.63
48.35
46.00
43.40
41.29
40.18
40.10
40.71
41.44
41.69
41.06
39.42
36.89
33.72
30.14
26.25
22.05
17.40
12.13
6.09
-0.85
-8.69
-17.26
-26.10
-34.48
-41.60
-46.93
-50.49
-52.91
-55.29
-58.64
-63.47
-69.49
-75.81
-81.42
-85.67
-88.54
-90.52
-92.19
-93.68
-94.54
-93.89
-90.93
-85.38
-77.73
-69.01
-60.33
-52.48
-45.81
-40.34
-36.01
-32.65
-29.81
-26.61
-21.77
-14.10
-3.08
10.80
26.09
40.86
53.30
62.02
66.12
65.18
59.27
49.11
36.18
22.51
10.26
1.06
-4.21
-5.42
-2.64
4.26
15.70
32.01
52.94
77.29
102.91
127.32
148.20
164.10
174.53
179.92
181.30
180.01
177.37
174.47
171.83
169.30
166.07
160.98
153.06
141.95
127.88
111.32
92.39
70.60
45.10
15.48
-17.61
-52.25
-85.89
-116.30
-142.25
-163.57
-180.59
-193.35
-201.28
-203.59
-199.87
-190.70
-177.69
-162.88
-148.00
-133.98
-120.83
-108.03
-95.01
-81.54
-67.77
-54.08
-40.88
-28.45
-16.89
-6.22
3.56
12.36
19.98
26.19
30.79
33.69
34.89
34.51
32.75
29.91
26.35
22.46
18.57
14.78
10.98
6.82
1.87
-4.26
-11.72
-20.42
-29.97
-39.66
-48.58
-55.68
-60.02
-60.97
-58.38
-52.70
-44.76
-35.67
-26.42
-17.81
-10.29
-4.03
0.98
4.93
8.10
10.76
13.16
15.41
17.48
19.19
20.38
20.93
20.83
20.22
19.35
18.45
17.72
17.22
16.89
16.52
15.86
14.68
12.82
10.25
7.10
3.57
-0.13
-3.88
-7.71
-11.71
-15.93
-20.22
-24.13
-27.03
-28.27
-27.42
-24.40
-19.55
-13.41
-6.59
0.40
7.12
13.22
18.32
22.10
24.25
24.67
23.43
20.87
17.50
13.98
10.88
8.62
7.35
6.89
6.88
6.90
6.66
6.06
5.17
4.14
3.02
1.81
0.40
-1.27
-3.18
-5.28
-7.47
-9.78
-12.37
-15.49
-19.31
-23.72
-28.21
-31.95
-34.01
-33.73
-30.97
-26.21
-20.38
-14.50
-9.38
-5.38
-2.41
-0.08
2.07
4.36
6.96
9.85
12.88
15.92
18.79
21.42
23.75
25.76
27.37
28.42
28.72
28.06
26.35
23.58
19.91
15.53
10.68
5.56
0.36
-4.77
-9.68
-14.31
-18.68
-22.90
-27.07
-31.14
-34.80
-37.45
-38.34
-36.82
-32.62
-25.98
-17.67
-8.76
-0.38
6.55
11.48
14.27
15.08
14.34
12.55
10.23
7.84
5.70
4.06
3.05
2.70
2.97
3.81
5.08
6.63
8.23
9.62
10.59
10.96
10.75
10.01
8.89
7.42
5.52
3.06
-0.11
-4.04
-8.61
-13.53
-18.44
-22.87
-26.28
-28.07
-27.72
-24.98
-19.98
-13.34
-5.97
1.15
7.27
11.96
15.14
16.93
17.48
16.96
15.54
13.47
11.10
8.77
6.82
5.45
4.77
4.69
5.03
5.55
6.02
6.30
6.38
6.38
6.39
6.46
6.50
6.27
5.49
3.85
1.06
-3.04
-8.44
-14.80
-21.39
-27.20
-31.28
-32.99
-32.28
-29.61
-25.66
-21.04
-16.05
-10.80
-5.40
-0.21
4.24
7.34
8.76
8.57
7.25
5.50
3.95
3.05
2.91
3.52
4.68
6.21
7.92
9.55
10.88
11.63
11.60
10.69
8.99
6.75
4.32
1.99
-0.13
-2.19
-4.52
-7.30
-10.42
-13.23
-14.78
-14.13
-10.82
-5.06
2.28
10.00
17.06
22.75
26.90
29.62
31.18
31.78
31.49
30.40
28.61
26.28
23.64
20.93
18.33
15.96
13.80
11.81
9.88
7.99
6.14
4.37
2.59
0.61
-1.87
-5.13
-9.30
-14.32
-19.88
-25.66
-31.29
-36.44
-40.73
-43.71
-44.87
-43.78
-40.35
-34.84
-27.93
-20.41
-12.96
-5.99
0.39
6.24
11.52
16.03
19.44
21.41
21.91
21.24
20.00
18.86
18.26
18.25
18.45
18.40
17.66
16.18
14.16
11.95
9.82
7.77
5.60
3.04
-0.04
-3.56
-7.27
-10.86
-14.08
-16.69
-18.45
-19.12
-18.49
-16.49
-13.35
-9.55
-5.71
-2.40
0.12
1.83
2.91
3.52
3.63
3.07
1.69
-0.48
-3.07
-5.54
-7.32
-8.08
-7.85
-6.95
-5.83
-4.89
-4.37
-4.38
-4.97
-6.16
-7.97
-10.38
-13.29
-16.54
-20.07
-23.91
-28.22
-33.07
-38.30
-43.36
-47.34
-49.21
-48.16
-43.86
-36.58
-27.15
-16.58
-5.91
4.11
13.02
20.72
27.39
33.51
39.69
46.52
54.35
62.99
71.71
79.40
84.87
87.30
86.48
82.91
77.50
71.27
64.99
58.93
52.99
46.85
40.23
33.01
25.28
17.21
9.07
1.13
-6.24
-12.52
-17.12
-19.62
-19.91
-18.39
-15.80
-12.98
-10.51
-8.58
-7.03
-5.57
-4.04
-2.61
-1.62
-1.44
-2.19
-3.61
-5.20
-6.39
-6.83
-6.53
-5.86
-5.37
-5.59
-6.75
-8.79
-11.36
-14.03
-16.49
-18.66
-20.69
-22.92
-25.62
-28.90
-32.51
-35.93
-38.45
-39.44
-38.58
-35.89
-31.78
-26.81
-21.53
-16.29
-11.31
-6.69
-2.60
0.71
2.99
4.05
3.93
2.89
1.39
-0.10
-1.21
-1.81
-2.01
-2.01
-2.05
-2.22
-2.42
-2.51
-2.39
-2.07
-1.81
-1.96
-2.88
-4.84
-7.91
-11.90
-16.39
-20.69
-23.99
-25.49
-24.64
-21.30
-15.86
-9.17
-2.25
3.98
8.96
12.56
15.00
16.59
17.60
18.11
18.15
17.76
17.08
16.34
15.74
15.35
15.02
14.44
13.33
11.52
9.12
6.42
3.78
1.45
-0.55
-2.41
-4.46
-6.98
-10.08
-13.68
-17.51
-21.20
-24.28
-26.26
-26.64
-25.04
-21.35
-15.81
-8.97
-1.60
5.54
11.88
17.07
20.92
23.34
24.29
23.86
22.32
20.17
18.01
16.37
15.46
15.14
14.89
14.03
12.03
8.69
4.22
-0.87
-6.01
-10.86
-15.46
-20.27
-25.99
-33.16
-41.98
-51.99
-62.22
-71.35
-78.20
-82.00
-82.66
-80.68
-76.92
-72.28
-67.33
-62.15
-56.15
-48.26
-37.30
-22.51
-4.07
16.76
37.94
57.39
73.63
86.30
95.90
103.31
109.03
112.80
113.73
110.76
103.26
91.44
76.32
59.41
42.25
26.12
11.79
-0.30
-9.91
-16.78
-20.65
-21.41
-19.30
-15.02
-9.51
-3.63
2.14
7.74
13.34
19.00
24.54
29.59
33.80
37.04
39.35
40.78
41.15
40.10
37.27
32.56
26.33
19.27
12.12
5.47
-0.39
-5.39
-9.49
-12.65
-14.81
-16.03
-16.54
-16.77
-17.21
-18.28
-20.13
-22.63
-25.45
-28.21
-30.65
-32.60
-33.92
-34.36
-33.48
-30.77
-25.89
-18.83
-10.09
-0.57
8.67
16.59
22.41
25.58
25.75
22.82
16.99
8.86
-0.63
-10.32
-19.31
-27.17
-33.99
-40.09
-45.62
-50.25
-53.09
-53.02
-49.14
-41.19
-29.69
-15.83
-1.30
12.13
22.80
29.49
31.60
29.29
23.49
15.70
7.65
0.88
-3.67
-5.79
-5.98
-5.11
-4.11
-3.62
-3.86
-4.71
-5.97
-7.51
-9.35
-11.58
-14.13
-16.57
-18.09
-17.76
-14.88
-9.42
-2.18
5.42
11.73
15.39
15.79
13.12
8.18
2.09
-4.13
-9.67
-14.09
-17.32
-19.60
-21.43
-23.35
-25.80
-28.89
-32.30
-35.33
-37.05
-36.60
-33.43
-27.55
-19.49
-10.27
-1.11
6.84
12.73
16.27
17.65
17.47
16.48
15.40
14.69
14.44
14.47
14.48
14.26
13.85
13.54
13.75
14.76
16.61
18.99
21.33
22.89
22.98
20.98
16.58
9.88
1.45
-7.68
-16.24
-23.00
-27.17
-28.62
-27.97
-26.34
-24.99
-24.82
-26.02
-28.00
-29.69
-30.06
-28.47
-24.88
-19.76
-13.71
-7.29
-0.92
4.95
9.78
13.00
14.21
13.55
11.69
9.69
8.53
8.66
9.84
11.27
11.98
11.27
8.92
5.20
0.64
-4.19
-8.79
-12.64
-15.19
-15.80
-13.99
-9.56
-2.81
5.52
14.41
22.85
29.94
35.06
37.76
37.85
35.42
30.96
25.31
19.54
14.58
10.96
8.63
7.11
5.81
4.37
2.81
1.41
0.43
-0.17
-0.81
-2.09
-4.51
-8.33
-13.54
-19.96
-27.18
-34.43
-40.39
-43.32
-41.46
-33.83
-20.82
-4.31
12.85
27.77
38.36
43.85
44.57
41.58
36.15
29.39
22.12
14.89
7.96
1.34
-5.13
-11.62
-18.15
-24.61
-30.87
-36.89
-42.92
-49.33
-56.44
-64.30
-72.60
-80.61
-87.23
-90.86
-89.37
-80.19
-60.88
-29.89
12.59
64.19
120.62
176.63
227.27
269.02
300.34
321.53
334.07
339.80
340.38
336.89
329.88
319.35
304.96
286.38
263.67
237.66
210.01
182.82
158.07
136.98
119.69
105.33
92.33
78.70
62.14
40.42
12.14
-22.04
-58.57
-91.30
-113.40
-120.21
-111.42
-91.48
-67.58
-46.61
-32.42
-25.05
-22.01
-20.56
-19.48
-19.47
-22.15
-28.53
-38.10
-48.78
-57.85
-63.16
-64.03
-61.63
-58.38
-56.90
-58.82
-64.16
-71.53
-79.02
-85.13
-89.26
-91.75
-93.35
-94.84
-96.78
-99.52
-103.20
-107.73
-112.76
-117.74
-122.28
-126.48
-131.06
-137.05
-145.14
-155.25
-166.39
-177.11
-186.11
-192.75
-197.04
-199.41
-200.34
-200.08
-198.69
-196.19
-192.74
-188.63
-184.14
-179.31
-173.91
-167.37
-159.14
-148.84
-136.48
-122.44
-107.48
-92.56
-78.72
-66.73
-56.92
-49.00
-42.13
-35.29
-27.76
-19.40
-10.63
-2.20
5.19
11.18
15.82
19.45
22.53
25.58
29.02
33.17
38.12
43.77
49.77
55.64
60.91
65.24
68.51
70.81
72.39
73.50
74.15
74.00
72.29
67.98
60.07
47.94
31.72
12.49
-7.87
-26.93
-42.35
-52.50
-56.83
-55.96
-51.32
-44.57
-37.10
-29.69
-22.56
-15.71
-9.11
-2.93
2.60
7.29
11.08
14.07
16.35
17.88
18.48
17.94
16.15
13.22
9.51
5.46
1.50
-2.13
-5.41
-8.53
-11.88
-15.86
-20.85
-27.04
-34.27
-41.89
-48.81
-53.68
-55.25
-52.68
-45.91
-35.63
-23.04
-9.46
4.00
16.61
28.07
38.30
47.24
54.74
60.51
64.36
66.24
66.49
65.73
64.75
64.20
64.32
64.76
64.76
63.43
60.22
55.13
48.78
42.00
35.49
29.46
23.52
16.93
8.92
-0.99
-12.72
-25.68
-38.81
-50.69
-59.76
-64.61
-64.30
-58.73
-48.78
-36.08
-22.52
-9.61
1.85
11.93
21.12
29.91
38.35
46.01
52.20
56.36
58.38
58.63
57.80
56.50
55.05
53.36
51.11
47.94
43.71
38.58
32.91
27.05
21.20
15.31
9.17
2.56
-4.63
-12.39
-20.56
-28.87
-36.82
-43.65
-48.33
-49.76
-47.11
-40.14
-29.45
-16.25
-2.12
11.50
23.65
33.98
42.54
49.56
55.18
59.33
61.84
62.58
61.65
59.38
56.29
52.93
49.66
46.56
43.51
40.25
36.53
32.25
27.49
22.46
17.46
12.67
8.09
3.50
-1.47
-7.24
-14.09
-22.04
-30.82
-39.87
-48.37
-55.26
-59.35
-59.58
-55.29
-46.51
-34.16
-19.78
-5.15
8.27
19.63
28.79
36.05
41.76
46.15
49.22
50.91
51.29
50.64
49.38
47.91
46.44
44.93
43.17
41.01
38.46
35.69
32.98
30.51
28.22
25.85
22.96
19.17
14.38
8.81
3.02
-2.38
-6.98
-10.74
-14.07
-17.68
-22.33
-28.53
-36.32
-45.17
-53.99
-61.36
-65.74
-65.92
-61.33
-52.25
-39.73
-25.35
-10.66
3.22
15.71
26.79
36.61
45.30
52.76
58.74
63.05
65.65
66.75
66.67
65.81
64.47
62.80
60.85
58.61
56.04
53.13
49.97
46.63
43.15
39.50
35.47
30.85
25.45
19.31
12.74
6.22
0.22
-4.92
-9.22
-12.93
-16.47
-20.30
-24.77
-30.12
-36.36
-43.26
-50.24
-56.39
-60.58
-61.74
-59.24
-53.10
-44.02
-33.17
-21.85
-11.09
-1.50
6.77
13.90
20.14
25.68
30.54
34.58
37.62
39.55
40.45
40.60
40.34
39.94
39.51
38.93
37.98
36.52
34.57
32.33
30.02
27.76
25.45
22.87
19.77
16.00
11.59
6.75
1.84
-2.78
-6.89
-10.45
-13.68
-16.95
-20.67
-25.12
-30.38
-36.32
-42.71
-49.12
-55.00
-59.63
-62.18
-61.93
-58.58
-52.40
-44.27
-35.41
-26.93
-19.53
-13.29
-7.88
-2.84
2.05
6.72
10.79
13.85
15.69
16.46
16.50
16.27
16.07
15.94
15.75
15.31
14.56
13.57
12.57
11.70
10.96
10.15
8.94
7.08
4.46
1.24
-2.21
-5.43
-8.12
-10.18
-11.90
-13.72
-16.22
-19.82
-24.61
-30.30
-36.22
-41.38
-44.72
-45.29
-42.57
-36.64
-28.23
-18.53
-8.85
-0.20
6.91
12.55
17.08
20.92
24.31
27.23
29.56
31.21
32.14
32.48
32.36
31.89
31.09
30.01
28.65
27.09
25.38
23.61
21.85
20.10
18.30
16.28
13.80
10.59
6.56
1.83
-3.18
-7.96
-12.11
-15.56
-18.60
-21.76
-25.59
-30.41
-36.13
-42.20
-47.82
-52.01
-53.94
-53.06
-49.34
-43.25
-35.65
-27.55
-19.85
-13.07
-7.35
-2.50
1.76
5.61
9.11
12.17
14.71
16.68
18.16
19.24
20.00
20.46
20.57
20.29
19.60
18.62
17.52
16.48
15.60
14.82
13.93
12.65
10.70
7.97
4.53
0.61
-3.42
-7.21
-10.53
-13.38
-15.99
-18.80
-22.29
-26.85
-32.55
-39.05
-45.62
-51.25
-54.91
-55.87
-53.89
-49.37
-43.18
-36.33
-29.71
-23.79
-18.57
-13.75
-8.96
-3.94
1.34
6.70
11.91
16.77
21.18
25.17
28.84
32.30
35.61
38.69
41.38
43.49
44.86
45.45
45.31
44.54
43.20
41.25
38.59
35.10
30.77
25.73
20.24
14.66
9.28
4.28
-0.38
-4.91
-9.61
-14.74
-20.49
-26.92
-33.88
-41.06
-47.87
-53.57
-57.30
-58.33
-56.30
-51.44
-44.50
-36.55
-28.61
-21.43
-15.30
-10.14
-5.75
-1.94
1.34
4.06
6.16
7.68
8.70
9.38
9.84
10.14
10.32
10.36
10.29
10.16
10.04
9.94
9.79
9.37
8.42
6.68
4.11
0.85
-2.77
-6.39
-9.78
-12.96
-16.15
-19.72
-23.94
-28.96
-34.63
-40.59
-46.25
-50.85
-53.59
-53.77
-51.00
-45.33
-37.33
-27.93
-18.22
-9.17
-1.35
5.09
10.36
14.80
18.67
22.00
24.68
26.49
27.38
27.53
27.25
26.87
26.62
26.48
26.34
26.01
25.44
24.66
23.73
22.61
21.13
18.99
15.99
12.08
7.48
2.57
-2.23
-6.69
-10.85
-15.05
-19.78
-25.40
-31.95
-38.93
-45.36
-50.02
-51.76
-49.92
-44.50
-36.20
-26.21
-15.78
-5.97
2.61
9.77
15.61
20.42
24.39
27.68
30.32
32.34
33.81
34.79
35.37
35.57
35.40
34.83
33.87
32.57
31.09
29.56
28.03
26.42
24.43
21.77
18.22
13.80
8.82
3.71
-1.14
-5.58
-9.76
-14.09
-19.01
-24.86
-31.65
-39.01
-46.20
-52.20
-55.94
-56.52
-53.50
-47.04
-37.94
-27.40
-16.68
-6.76
1.83
9.06
15.19
20.51
25.21
29.27
32.54
34.89
36.29
36.88
36.91
36.61
36.14
35.50
34.64
33.52
32.20
30.79
29.41
28.02
26.44
24.31
21.31
17.30
12.44
7.19
2.09
-2.40
-6.17
-9.53
-13.05
-17.39
-22.97
-29.82
-37.40
-44.71
-50.52
-53.66
-53.41
-49.65
-42.89
-34.07
-24.30
-14.53
-5.43
2.64
9.57
15.34
20.05
23.82
26.79
29.15
30.99
32.38
33.29
33.74
33.75
33.44
32.89
32.18
31.34
30.33
29.15
27.77
26.16
24.19
21.68
18.41
14.28
9.40
4.09
-1.18
-6.02
-10.26
-14.05
-17.79
-21.93
-26.86
-32.70
-39.24
-45.97
-52.03
-56.37
-57.97
-56.15
-50.81
-42.62
-32.74
-22.56
-13.16
-5.08
1.69
7.44
12.49
16.95
20.74
23.65
25.64
26.80
27.35
27.52
27.49
27.28
26.90
26.39
25.86
25.50
25.36
25.35
25.20
24.52
23.07
20.77
17.84
14.62
11.44
8.47
5.67
2.85
-0.21
-3.72
-7.82
-12.45
-17.41
-22.20
-26.14
-28.50
-28.68
-26.41
-21.84
-15.39
-7.66
0.79
9.49
18.07
26.19
33.52
39.67
44.32
47.21
48.30
47.77
45.93
43.15
39.60
35.14
29.27
21.45
11.28
-1.13
-15.18
-29.95
-44.48
-58.04
-70.27
-81.02
-90.21
-97.67
-103.14
-106.38
-107.35
-106.35
-103.92
-100.77
-97.33
-93.60
-89.03
-82.71
-73.74
-61.59
-46.42
-28.97
-10.42
8.02
25.39
41.04
54.70
66.34
76.04
83.89
89.95
94.18
96.52
96.92
95.49
92.56
88.68
84.55
80.82
77.92
75.99
74.83
74.13
73.60
73.06
72.52
72.07
71.69
71.28
70.57
69.18
66.54
61.86
54.16
42.52
26.39
6.06
-17.30
-41.75
-65.07
-85.30
-101.10
-111.90
-117.75
-119.13
-116.78
-111.56
-104.41
-96.28
-87.98
-80.10
-72.93
-66.54
-60.85
-55.80
-51.34
-47.53
-44.41
-41.96
-40.06
-38.43
-36.74
-34.68
-32.03
-28.74
-24.89
-20.64
-16.14
-11.46
-6.59
-1.38
4.37
10.91
18.35
26.57
35.18
43.49
50.68
55.90
58.57
58.45
55.78
51.23
45.73
40.21
35.47
32.00
30.02
29.48
30.14
31.54
33.16
34.47
35.12
35.00
34.25
33.14
31.86
30.39
28.49
25.88
22.40
18.10
13.23
8.13
3.05
-1.91
-6.78
-11.67
-16.68
-21.90
-27.28
-32.70
-37.89
-42.48
-46.07
-48.22
-48.54
-46.75
-42.79
-37.03
-30.25
-23.55
-17.98
-14.17
-12.12
-11.18
-10.46
-9.12
-6.71
-3.09
1.61
7.36
14.26
22.57
32.60
44.53
58.33
73.60
89.65
105.56
120.37
133.30
143.87
151.96
157.72
161.40
163.31
163.74
162.96
161.19
158.60
155.20
150.87
145.32
138.23
129.26
118.14
104.65
88.60
69.80
48.01
22.93
-5.69
-37.79
-72.69
-108.86
-143.95
-175.24
-200.25
-217.41
-226.44
-228.28
-224.64
-217.47
-208.52
-199.03
-189.76
-181.03
-172.90
-165.19
-157.64
-150.00
-142.04
-133.65
-124.80
-115.57
-106.05
-96.39
-86.79
-77.46
-68.62
-60.44
-53.07
-46.59
-41.05
-36.47
-32.81
-29.99
-27.86
-26.30
-25.16
-24.38
-24.00
-24.15
-24.90
-26.18
-27.60
-28.42
-27.74
-24.73
-18.99
-10.70
-0.64
10.10
20.45
29.62
37.27
43.36
48.08
51.62
54.10
55.60
56.15
55.84
54.79
53.24
51.37
49.36
47.32
45.32
43.41
41.62
39.95
38.34
36.61
34.53
31.85
28.50
24.55
20.26
15.95
11.79
7.78
3.73
-0.72
-5.86
-11.86
-18.56
-25.45
-31.67
-36.20
-38.07
-36.69
-32.02
-24.67
-15.64
-6.09
3.03
11.09
17.87
23.39
27.83
31.38
34.17
36.30
37.74
38.47
38.47
37.81
36.65
35.22
33.72
32.23
30.75
29.14
27.32
25.21
22.83
20.25
17.49
14.55
11.42
8.07
4.47
0.62
-3.51
-7.95
-12.78
-18.08
-23.84
-29.82
-35.43
-39.77
-41.78
-40.64
-36.10
-28.69
-19.60
-10.27
-1.90
4.91
10.13
14.19
17.50
20.29
22.50
23.96
24.56
24.35
23.56
22.49
21.42
20.53
19.86
19.36
18.84
18.12
16.98
15.33
13.19
10.69
8.01
5.28
2.57
-0.15
-2.97
-5.99
-9.34
-13.18
-17.67
-22.79
-28.28
-33.48
-37.43
-39.14
-37.86
-33.47
-26.53
-18.07
-9.29
-1.14
5.94
11.90
16.97
21.30
24.87
27.49
28.97
29.30
28.76
27.80
26.89
26.30
26.07
25.99
25.79
25.17
23.92
21.87
18.97
15.25
10.87
6.09
1.22
-3.45
-7.70
-11.47
-14.80
-17.91
-21.08
-24.66
-28.91
-33.89
-39.22
-44.10
-47.43
-48.15
-45.65
-40.02
-32.04
-22.92
-13.84
-5.61
1.48
7.52
12.78
17.43
21.55
25.07
27.92
30.07
31.53
32.32
32.46
32.03
31.19
30.17
29.23
28.50
27.93
27.31
26.36
24.80
22.49
19.44
15.83
11.87
7.82
3.83
-0.08
-4.02
-8.22
-12.92
-18.26
-24.10
-30.00
-35.19
-38.77
-39.91
-38.13
-33.47
-26.45
-17.96
-8.99
-0.37
7.32
13.83
19.16
23.43
26.83
29.47
31.44
32.74
33.39
33.42
32.98
32.27
31.46
30.66
29.89
29.02
27.94
26.50
24.64
22.29
19.48
16.26
12.76
9.12
5.50
1.95
-1.59
-5.31
-9.48
-14.31
-19.93
-26.23
-32.84
-39.10
-44.15
-47.15
-47.47
-44.96
-39.95
-33.18
-25.60
-18.05
-11.12
-5.11
-0.00
4.30
7.90
10.79
12.88
14.04
14.27
13.76
12.86
12.02
11.54
11.52
11.85
12.32
12.77
13.14
13.39
13.43
13.12
12.26
10.77
8.74
6.39
4.03
1.90
0.00
-1.85
-4.06
-7.06
-11.19
-16.43
-22.35
-28.08
-32.48
-34.53
-33.65
-29.89
-23.95
-16.88
-9.76
-3.37
1.91
6.08
9.35
11.95
14.01
15.53
16.45
16.72
16.40
15.66
14.72
13.74
12.84
12.02
11.25
10.50
9.79
9.11
8.43
7.67
6.69
5.40
3.75
1.75
-0.52
-3.05
-5.84
-8.97
-12.51
-16.52
-20.92
-25.41
-29.44
-32.27
-33.16
-31.62
-27.60
-21.57
-14.36
-6.87
0.14
6.20
11.15
14.98
17.81
19.74
20.93
21.56
21.78
21.71
21.36
20.67
19.61
18.18
16.49
14.67
12.82
10.97
9.05
6.97
4.62
1.97
-0.93
-3.99
-7.11
-10.18
-13.18
-16.12
-19.12
-22.36
-26.05
-30.29
-34.91
-39.38
-42.86
-44.40
-43.24
-39.05
-32.13
-23.27
-13.58
-4.14
4.18
10.98
16.23
20.26
23.53
26.50
29.45
32.40
35.16
37.42
38.89
39.40
38.90
37.47
35.32
32.71
29.93
27.26
24.92
22.95
21.24
19.52
17.43
14.70
11.19
6.95
2.20
-2.86
-8.09
-13.59
-19.59
-26.29
-33.62
-41.02
-47.53
-51.96
-53.29
-51.02
-45.36
-37.14
-27.55
-17.75
-8.64
-0.79
5.56
10.36
13.68
15.65
16.50
16.55
16.18
15.73
15.48
15.56
15.90
16.29
16.48
16.24
15.47
14.23
12.64
10.84
8.85
6.63
4.10
1.24
-1.85
-4.96
-7.92
-10.70
-13.47
-16.60
-20.45
-25.22
-30.73
-36.44
-41.45
-44.78
-45.60
-43.49
-38.56
-31.41
-22.95
-14.11
-5.60
2.15
9.02
15.03
20.23
24.60
28.12
30.74
32.50
33.49
33.86
33.77
33.32
32.59
31.59
30.31
28.73
26.84
24.67
22.22
19.47
16.37
12.88
8.98
4.80
0.51
-3.69
-7.67
-11.53
-15.52
-19.97
-25.07
-30.72
-36.35
-41.03
-43.68
-43.47
-40.07
-33.83
-25.70
-16.85
-8.31
-0.73
5.66
10.89
15.10
18.33
20.62
22.01
22.62
22.66
22.32
21.72
20.94
20.02
19.06
18.17
17.46
16.86
16.21
15.25
13.78
11.78
9.36
6.75
4.13
1.60
-0.94
-3.68
-6.90
-10.84
-15.66
-21.37
-27.70
-34.11
-39.70
-43.54
-44.76
-42.91
-38.09
-30.93
-22.43
-13.66
-5.54
1.41
7.04
11.51
15.15
18.29
21.18
23.88
26.31
28.31
29.69
30.37
30.42
30.06
29.55
29.12
28.84
28.62
28.19
27.21
25.41
22.67
19.06
14.80
10.15
5.35
0.48
-4.44
-9.52
-14.88
-20.58
-26.57
-32.59
-38.11
-42.40
-44.63
-44.16
-40.75
-34.67
-26.70
-17.87
-9.21
-1.45
5.05
10.24
14.27
17.30
19.49
20.94
21.78
22.13
22.14
21.93
21.58
21.08
20.39
19.48
18.33
16.97
15.47
13.89
12.33
10.78
9.20
7.48
5.47
3.03
0.14
-3.13
-6.63
-10.26
-14.04
-18.12
-22.67
-27.69
-32.78
-37.20
-40.01
-40.43
-38.13
-33.36
-26.83
-19.46
-12.03
-5.02
1.37
7.15
12.31
16.75
20.31
22.82
24.25
24.73
24.54
23.99
23.33
22.65
21.95
21.14
20.15
19.00
17.69
16.26
14.67
12.89
10.81
8.40
5.64
2.60
-0.62
-3.96
-7.39
-10.96
-14.77
-18.96
-23.64
-28.73
-33.94
-38.67
-42.15
-43.61
-42.49
-38.69
-32.65
-25.15
-17.16
-9.52
-2.73
3.02
7.77
11.61
14.62
16.86
18.40
19.35
19.82
19.87
19.50
18.74
17.63
16.33
15.03
13.89
12.89
11.88
10.60
8.86
6.61
3.95
1.05
-1.91
-4.89
-7.94
-11.17
-14.73
-18.73
-23.14
-27.74
-32.10
-35.62
-37.59
-37.41
-34.73
-29.58
-22.46
-14.23
-5.87
1.73
8.05
12.97
16.71
19.59
21.88
23.65
24.79
25.16
24.75
23.71
22.37
21.06
20.02
19.30
18.73
18.11
17.20
15.91
14.23
12.25
10.01
7.54
4.78
1.62
-2.01
-6.17
-10.94
-16.34
-22.33
-28.76
-35.20
-41.00
-45.32
-47.37
-46.64
-43.10
-37.24
-29.94
-22.22
-14.95
-8.68
-3.56
0.52
3.85
6.70
9.19
11.28
12.81
13.66
13.80
13.43
12.89
12.53
12.56
12.96
13.50
13.82
13.63
12.79
11.29
9.27
6.87
4.23
1.48
-1.30
-4.11
-6.99
-10.09
-13.64
-17.78
-22.49
-27.42
-31.94
-35.17
-36.29
-34.78
-30.56
-24.11
-16.23
-7.84
0.28
7.66
14.15
19.79
24.67
28.80
32.04
34.28
35.40
35.45
34.58
33.07
31.18
29.14
27.10
25.13
23.25
21.43
19.61
17.72
15.67
13.35
10.71
7.71
4.35
0.73
-3.04
-6.86
-10.72
-14.78
-19.28
-24.49
-30.41
-36.60
-42.16
-45.93
-46.88
-44.53
-39.12
-31.53
-22.95
-14.47
-6.78
-0.08
5.72
10.79
15.18
18.79
21.41
22.92
23.33
22.83
21.76
20.47
19.22
18.13
17.20
16.33
15.42
14.41
13.24
11.88
10.27
8.31
5.98
3.28
0.31
-2.81
-6.03
-9.41
-13.12
-17.37
-22.20
-27.29
-31.92
-35.09
-35.90
-33.85
-29.07
-22.27
-14.44
-6.55
0.74
7.12
12.50
16.95
20.54
23.33
25.40
26.89
27.88
28.44
28.57
28.27
27.56
26.58
25.46
24.28
23.05
21.67
20.02
18.00
15.59
12.86
9.90
6.81
3.61
0.27
-3.27
-7.11
-11.32
-15.98
-21.09
-26.53
-31.93
-36.65
-39.86
-40.73
-38.67
-33.63
-26.08
-16.95
-7.32
1.84
9.96
16.87
22.72
27.79
32.30
36.33
39.80
42.55
44.45
45.41
45.42
44.55
42.92
40.77
38.33
35.83
33.35
30.73
27.61
23.54
18.19
11.49
3.74
-4.53
-12.75
-20.45
-27.42
-33.68
-39.45
-44.91
-50.17
-55.10
-59.35
-62.39
-63.62
-62.53
-58.82
-52.55
-44.11
-34.21
-23.71
-13.41
-3.96
4.33
11.35
17.19
21.95
25.74
28.64
30.68
31.95
32.50
32.40
31.68
30.41
28.71
26.80
24.89
23.10
21.44
19.77
17.89
15.65
12.95
9.83
6.39
2.81
-0.73
-4.05
-7.11
-10.02
-13.09
-16.68
-21.04
-26.13
-31.47
-36.22
-39.40
-40.24
-38.37
-33.95
-27.65
-20.37
-13.04
-6.36
-0.68
3.98
7.82
11.13
14.06
16.59
18.56
19.79
20.18
19.80
18.89
17.76
16.66
15.72
14.86
13.95
12.85
11.50
9.92
8.16
6.24
4.14
1.84
-0.62
-3.18
-5.73
-8.25
-10.82
-13.70
-17.15
-21.31
-25.99
-30.62
-34.36
-36.30
-35.82
-32.76
-27.55
-20.98
-14.01
-7.40
-1.55
3.48
7.84
11.62
14.83
17.29
18.86
19.52
19.45
18.90
18.18
17.46
16.80
16.18
15.51
14.76
13.91
12.90
11.66
10.11
8.18
5.90
3.36
0.69
-1.99
-4.69
-7.55
-10.77
-14.53
-18.82
-23.39
-27.71
-31.08
-32.81
-32.38
-29.68
-24.91
-18.67
-11.68
-4.68
1.76
7.31
11.90
15.59
18.48
20.61
21.93
22.44
22.18
21.32
20.15
18.95
17.94
17.12
16.42
15.67
14.75
13.63
12.31
10.81
9.10
7.16
5.01
2.73
0.41
-1.93
-4.39
-7.25
-10.79
-15.11
-19.97
-24.72
-28.46
-30.37
-29.94
-27.18
-22.53
-16.70
-10.37
-4.06
1.92
7.40
12.30
16.54
20.09
22.94
25.14
26.75
27.80
28.31
28.26
27.69
26.68
25.34
23.80
22.14
20.32
18.26
15.79
12.75
9.09
4.91
0.49
-3.77
-7.54
-10.61
-13.06
-15.12
-17.25
-19.86
-23.27
-27.50
-32.23
-36.87
-40.66
-42.93
-43.27
-41.66
-38.42
-33.99
-28.92
-23.58
-18.27
-13.20
-8.51
-4.28
-0.54
2.73
5.51
7.70
9.17
9.84
9.77
9.28
8.78
8.66
9.04
9.81
10.62
11.12
11.03
10.27
8.81
6.68
3.93
0.61
-3.11
-7.04
-10.94
-14.78
-18.67
-22.80
-27.29
-31.91
-36.06
-38.82
-39.38
-37.28
-32.70
-26.37
-19.32
-12.58
-6.78
-2.12
1.61
4.75
7.63
10.30
12.59
14.16
14.70
14.16
12.77
11.03
9.48
8.50
8.16
8.25
8.38
8.20
7.55
6.45
5.09
3.60
2.03
0.32
-1.67
-4.05
-6.93
-10.39
-14.48
-19.20
-24.34
-29.38
-33.47
-35.62
-34.96
-31.14
-24.45
-15.84
-6.52
2.37
10.10
16.46
21.60
25.81
29.30
32.11
34.13
35.29
35.57
35.14
34.27
33.21
32.12
31.08
30.04
28.92
27.62
26.05
24.13
21.80
19.03
15.84
12.28
8.48
4.50
0.36
-4.02
-8.78
-13.99
-19.57
-25.15
-30.11
-33.71
-35.21
-34.13
-30.36
-24.29
-16.71
-8.63
-1.02
5.42
10.44
14.21
17.13
19.64
21.95
24.00
25.52
26.20
25.88
24.65
22.83
20.79
18.87
17.20
15.74
14.33
12.76
10.96
8.94
6.79
4.55
2.21
-0.30
-3.04
-6.07
-9.40
-13.08
-17.20
-21.84
-26.99
-32.37
-37.35
-41.11
-42.75
-41.62
-37.55
-30.89
-22.48
-13.33
-4.48
3.27
9.52
14.28
17.84
20.57
22.74
24.46
25.62
26.04
25.66
24.56
23.05
21.49
20.18
19.21
18.47
17.70
16.64
15.17
13.29
11.09
8.62
5.84
2.65
-1.06
-5.34
-10.05
-15.03
-20.12
-25.27
-30.47
-35.63
-40.39
-44.08
-45.87
-45.02
-41.22
-34.75
-26.48
-17.55
-9.06
-1.71
4.32
9.20
13.27
16.69
19.41
21.17
21.77
21.20
19.74
17.89
16.08
14.62
13.46
12.44
11.35
10.10
8.77
7.56
6.70
6.30
6.36
6.76
7.29
7.73
7.85
7.44
6.25
4.09
0.87
-3.28
-7.95
-12.45
-15.98
-17.87
-17.76
-15.75
-12.28
-8.01
-3.50
0.81
4.77
8.31
11.40
13.95
15.83
16.86
16.96
16.18
14.76
13.10
11.63
10.66
10.32
10.45
10.69
10.64
9.96
8.54
6.45
3.90
1.15
-1.57
-4.17
-6.65
-9.05
-11.50
-14.14
-17.14
-20.68
-24.78
-29.20
-33.39
-36.49
-37.56
-35.94
-31.49
-24.72
-16.62
-8.39
-0.97
5.16
10.07
14.12
17.69
20.96
23.82
25.97
27.17
27.35
26.68
25.56
24.39
23.46
22.85
22.42
21.91
21.02
19.58
17.49
14.79
11.58
7.99
4.16
0.24
-3.62
-7.29
-10.74
-14.10
-17.60
-21.55
-26.08
-31.01
-35.80
-39.63
-41.59
-41.02
-37.71
-32.02
-24.73
-16.82
-9.19
-2.41
3.35
8.18
12.30
15.87
18.92
21.40
23.22
24.38
24.94
24.96
24.55
23.70
22.48
21.00
19.46
18.10
17.09
16.41
15.82
14.94
13.39
10.98
7.76
4.03
0.21
-3.31
-6.29
-8.77
-11.00
-13.46
-16.63
-20.79
-25.84
-31.20
-35.93
-39.01
-39.67
-37.58
-33.02
-26.67
-19.39
-11.98
-5.01
1.15
6.35
10.60
13.94
16.50
18.47
20.01
21.24
22.24
22.98
23.41
23.43
22.99
22.10
20.85
19.38
17.84
16.33
14.84
13.29
11.52
9.43
6.96
4.16
1.15
-1.90
-4.86
-7.71
-10.51
-13.48
-16.90
-21.02
-25.95
-31.47
-37.05
-41.84
-44.91
-45.50
-43.29
-38.48
-31.79
-24.19
-16.60
-9.70
-3.74
1.33
5.70
9.57
12.91
15.53
17.18
17.72
17.25
16.09
14.65
13.34
12.36
11.69
11.22
10.79
10.33
9.77
9.02
7.92
6.31
4.10
1.42
-1.46
-4.21
-6.64
-8.81
-11.05
-13.76
-17.26
-21.59
-26.41
-31.04
-34.63
-36.34
-35.65
-32.45
-27.15
-20.52
-13.46
-6.76
-0.90
3.98
7.98
11.34
14.28
16.89
19.17
21.04
22.34
22.97
22.93
22.32
21.37
20.34
19.36
18.45
17.49
16.28
14.65
12.52
9.93
6.98
3.76
0.39
-3.07
-6.61
-10.27
-14.17
-18.49
-23.41
-28.96
-34.87
-40.57
-45.23
-48.04
-48.37
-46.09
-41.49
-35.19
-27.93
-20.36
-12.92
-5.89
0.58
6.38
11.40
15.57
18.86
21.30
23.00
24.11
24.73
24.96
24.83
24.33
23.51
22.44
21.20
19.84
18.37
16.70
14.77
12.50
9.90
7.03
3.98
0.77
-2.60
-6.20
-10.10
-14.39
-19.16
-24.41
-29.98
-35.41
-39.97
-42.70
-42.83
-39.94
-34.24
-26.50
-17.77
-9.06
-1.08
5.87
11.82
16.90
21.26
24.89
27.74
29.73
30.88
31.25
31.02
30.39
29.56
28.69
27.85
27.04
26.20
25.21
23.95
22.26
20.03
17.15
13.65
9.66
5.38
1.09
-3.01
-6.90
-10.70
-14.73
-19.31
-24.58
-30.35
-35.98
-40.53
-43.01
-42.67
-39.30
-33.31
-25.54
-17.02
-8.65
-1.01
5.66
11.36
16.19
20.26
23.62
26.24
28.07
29.10
29.34
28.94
28.12
27.11
26.08
25.08
24.06
22.90
21.51
19.83
17.86
15.60
12.98
9.94
6.46
2.60
-1.48
-5.63
-9.81
-14.14
-18.83
-24.02
-29.53
-34.79
-38.89
-40.82
-39.87
-35.86
-29.23
-20.94
-12.12
-3.74
3.57
9.61
14.44
18.21
20.99
22.74
23.43
23.14
22.16
20.91
19.79
19.06
18.74
18.63
18.38
17.72
16.49
14.76
12.72
10.64
8.71
6.96
5.27
3.39
1.09
-1.83
-5.47
-9.84
-14.87
-20.33
-25.78
-30.51
-33.68
-34.50
-32.53
-27.91
-21.31
-13.72
-6.15
0.69
6.49
11.28
15.27
18.64
21.46
23.71
25.27
26.07
26.12
25.55
24.59
23.48
22.40
21.39
20.37
19.17
17.66
15.80
13.60
11.12
8.40
5.46
2.28
-1.10
-4.66
-8.41
-12.41
-16.83
-21.78
-27.20
-32.66
-37.39
-40.45
-41.03
-38.75
-33.78
-26.79
-18.72
-10.53
-2.96
3.55
8.84
12.96
16.07
18.45
20.32
21.87
23.12
24.02
24.48
24.44
24.00
23.30
22.52
21.71
20.89
19.91
18.67
17.11
15.19
12.94
10.41
7.68
4.78
1.77
-1.39
-4.78
-8.57
-12.92
-17.88
-23.23
-28.45
-32.77
-35.37
-35.66
-33.46
-29.09
-23.25
-16.77
-10.37
-4.51
0.68
5.21
9.17
12.56
15.30
17.29
18.48
18.96
18.91
18.57
18.14
17.71
17.27
16.77
16.14
15.35
14.37
13.18
11.75
9.99
7.86
5.31
2.42
-0.72
-3.94
-7.10
-10.16
-13.22
-16.55
-20.41
-24.92
-29.82
-34.46
-37.85
-39.03
-37.45
-33.13
-26.75
-19.35
-11.98
-5.38
0.13
4.58
8.17
11.01
13.15
14.51
15.08
14.97
14.38
13.61
12.87
12.29
11.80
11.32
10.68
9.79
8.62
7.21
5.59
3.76
1.71
-0.56
-3.02
-5.56
-8.09
-10.62
-13.29
-16.32
-19.90
-24.00
-28.22
-31.86
-34.04
-34.03
-31.51
-26.70
-20.32
-13.35
-6.68
-0.86
4.02
8.16
11.87
15.28
18.25
20.50
21.77
22.05
21.58
20.70
19.75
18.83
17.91
16.84
15.54
14.03
12.36
10.58
8.63
6.46
4.03
1.39
-1.36
-4.14
-6.96
-9.94
-13.24
-17.04
-21.35
-25.98
-30.49
-34.22
-36.47
-36.68
-34.60
-30.44
-24.77
-18.35
-11.88
-5.81
-0.34
4.52
8.82
12.54
15.66
18.15
20.01
21.32
22.14
22.54
22.55
22.22
21.64
20.94
20.26
19.65
19.07
18.36
17.30
15.73
13.59
10.93
7.91
4.71
1.47
-1.76
-5.03
-8.48
-12.32
-16.69
-21.63
-26.89
-31.91
-35.92
-38.09
-37.81
-34.94
-29.78
-23.01
-15.45
-7.84
-0.74
5.49
10.64
14.63
17.55
19.55
20.91
21.85
22.53
22.98
23.11
22.84
22.13
21.05
19.76
18.46
17.29
16.28
15.34
14.26
12.82
10.86
8.35
5.42
2.28
-0.84
-3.78
-6.51
-9.23
-12.23
-15.84
-20.25
-25.36
-30.71
-35.51
-38.81
-39.80
-38.05
-33.65
-27.24
-19.76
-12.23
-5.46
0.10
4.42
7.75
10.46
12.86
15.02
16.84
18.07
18.52
18.13
17.12
15.84
14.64
13.74
13.13
12.59
11.86
10.76
9.28
7.55
5.70
3.80
1.72
-0.67
-3.51
-6.79
-10.40
-14.24
-18.28
-22.57
-27.12
-31.69
-35.71
-38.35
-38.78
-36.51
-31.61
-24.70
-16.74
-8.73
-1.41
4.84
9.99
14.17
17.58
20.31
22.41
23.88
24.68
24.88
24.57
23.91
23.09
22.29
21.58
20.92
20.19
19.18
17.76
15.87
13.60
11.07
8.40
5.59
2.55
-0.79
-4.49
-8.58
-13.06
-17.95
-23.22
-28.65
-33.79
-38.01
-40.58
-40.97
-39.01
-34.92
-29.21
-22.52
-15.38
-8.23
-1.34
5.04
10.72
15.51
19.28
22.04
23.83
24.80
25.19
25.20
25.03
24.78
24.52
24.25
23.93
23.52
22.94
22.09
20.83
19.06
16.74
13.90
10.68
7.27
3.81
0.38
-3.09
-6.72
-10.68
-15.10
-20.00
-25.23
-30.43
-35.04
-38.40
-39.89
-39.10
-35.91
-30.58
-23.70
-15.97
-8.14
-0.74
5.86
11.52
16.22
19.98
22.83
24.87
26.21
27.01
27.44
27.61
27.59
27.37
26.93
26.24
25.31
24.19
22.93
21.63
20.30
18.94
17.44
15.64
13.39
10.59
7.35
3.87
0.45
-2.71
-5.62
-8.51
-11.79
-15.86
-20.90
-26.62
-32.27
-36.81
-39.22
-38.81
-35.48
-29.72
-22.44
-14.60
-7.05
-0.34
5.31
9.82
13.28
15.81
17.57
18.79
19.67
20.37
20.91
21.21
21.11
20.46
19.21
17.45
15.36
13.18
11.07
9.05
7.07
5.02
2.82
0.46
-2.04
-4.62
-7.28
-10.02
-12.87
-15.88
-19.10
-22.59
-26.32
-30.15
-33.74
-36.50
-37.77
-36.96
-33.84
-28.62
-21.99
-14.88
-8.14
-2.30
2.55
6.59
10.13
13.34
16.15
18.38
19.90
20.73
21.09
21.25
21.41
21.57
21.62
21.39
20.82
19.98
18.99
17.94
16.83
15.49
13.78
11.60
8.98
6.10
3.17
0.32
-2.45
-5.31
-8.55
-12.38
-16.89
-21.89
-26.93
-31.35
-34.42
-35.54
-34.39
-30.99
-25.78
-19.44
-12.73
-6.29
-0.52
4.45
8.68
12.31
15.47
18.20
20.50
22.37
23.77
24.66
25.02
24.84
24.14
23.06
21.79
20.51
19.35
18.28
17.15
15.76
13.95
11.62
8.79
5.56
2.11
-1.36
-4.69
-7.82
-10.84
-14.01
-17.70
-22.12
-27.26
-32.63
-37.37
-40.52
-41.28
-39.31
-34.92
-28.81
-21.88
-14.95
-8.49
-2.73
2.31
6.67
10.35
13.34
15.64
17.33
18.47
19.18
19.50
19.47
19.13
18.47
17.57
16.55
15.53
14.64
13.97
13.45
12.93
12.12
10.77
8.74
6.08
2.98
-0.31
-3.65
-6.99
-10.47
-14.23
-18.38
-22.91
-27.57
-31.94
-35.39
-37.30
-37.16
-34.84
-30.53
-24.83
-18.45
-12.09
-6.24
-1.12
3.18
6.72
9.54
11.68
13.14
13.97
14.24
14.05
13.55
12.89
12.24
11.67
11.23
10.88
10.52
10.02
9.29
8.23
6.78
4.91
2.62
-0.01
-2.86
-5.81
-8.76
-11.75
-14.93
-18.49
-22.50
-26.78
-30.81
-33.81
-34.99
-33.83
-30.32
-24.89
-18.36
-11.56
-5.11
0.72
6.00
10.93
15.59
19.89
23.61
26.46
28.28
29.10
29.06
28.45
27.59
26.70
25.97
25.41
24.97
24.51
23.85
22.82
21.30
19.29
16.83
14.08
11.19
8.20
5.02
1.34
-3.33
-9.42
-17.15
-26.24
-35.95
-45.15
-52.58
-57.18
-58.40
-56.27
-51.33
-44.53
-36.86
-29.13
-21.90
-15.40
-9.64
-4.45
0.32
4.84
9.17
13.22
16.82
19.67
21.50
22.20
21.85
20.70
19.10
17.32
15.47
13.54
11.48
9.23
6.77
4.08
1.07
-2.40
-6.45
-11.11
-16.29
-21.83
-27.64
-33.76
-40.33
-47.46
-54.97
-62.29
-68.51
-72.70
-74.17
-72.83
-69.21
-64.35
-59.47
-55.64
-53.51
-53.27
-54.64
-57.13
-60.23
-63.64
-67.35
-71.63
-76.90
-83.60
-91.80
-100.83
-108.93
-113.35
-110.86
-98.76
-75.83
-42.84
-2.55
41.14
84.12
122.91
155.13
179.61
196.25
205.98
210.51
212.09
212.97
214.80
218.26
223.10
228.57
233.89
238.57
242.42
245.28
246.85
246.66
244.29
239.63
232.91
224.62
215.26
205.10
194.18
182.34
169.34
155.02
139.25
122.05
103.61
84.36
64.89
45.71
26.95
8.18
-11.47
-32.91
-56.56
-82.06
-108.32
-133.89
-157.48
-178.22
-195.78
-210.09
-221.04
-228.45
-232.11
-232.10
-228.95
-223.46
-216.43
-208.26
-198.73
-187.10
-172.51
-154.42
-133.04
-109.28
-84.61
-60.51
-38.05
-17.66
0.83
17.94
34.25
50.15
65.86
81.39
96.54
110.79
123.23
132.57
137.52
137.33
132.26
123.63
113.37
103.24
94.24
86.35
78.93
71.30
63.21
54.97
47.23
40.62
35.44
31.59
28.62
25.81
22.31
17.51
11.32
4.44
-1.77
-5.90
-7.11
-5.69
-2.90
-0.42
0.33
-1.36
-5.51
-11.72
-19.55
-28.42
-37.48
-45.44
-50.66
-51.61
-47.29
-37.58
-23.24
-5.52
14.32
35.33
56.99
78.86
100.06
118.93
133.04
139.80
137.40
125.63
105.93
80.70
52.14
21.25
-12.24
-48.87
-87.93
-126.28
-158.59
-178.93
-183.12
-170.71
-145.50
-114.45
-85.38
-64.63
-55.59
-58.58
-71.71
-91.97
-116.01
-140.42
-161.69
-176.58
-182.60
-178.99
-167.15
-150.54
-133.61
-120.47
-113.53
-112.87
-116.42
-120.92
-123.05
-120.61
-113.11
-101.72
-88.67
-76.41
-66.78
-60.51
-57.32
-56.24
-56.26
-56.70
-57.36
-58.42
-60.03
-62.07
-64.07
-65.30
-64.95
-62.35
-57.17
-49.47
-39.72
-28.69
-17.31
-6.47
3.12
11.14
17.64
23.05
28.00
33.04
38.47
44.14
49.61
54.27
57.68
59.67
60.35
59.99
58.81
56.92
54.26
50.79
46.57
41.86
37.06
32.56
28.58
25.03
21.60
17.89
13.61
8.69
3.19
-2.71
-8.87
-15.07
-20.91
-25.67
-28.34
-27.97
-24.01
-16.69
-7.03
3.49
13.42
21.79
28.37
33.47
37.69
41.50
45.05
48.18
50.54
51.87
52.11
51.43
50.10
48.35
46.25
43.71
40.62
36.92
32.72
28.24
23.73
19.36
15.15
11.06
6.96
2.85
-1.28
-5.39
-9.49
-13.73
-18.32
-23.51
-29.38
-35.67
-41.72
-46.57
-49.15
-48.68
-44.89
-38.16
-29.41
-19.72
-10.12
-1.24
6.67
13.66
19.86
25.26
29.73
33.00
34.95
35.64
35.41
34.72
33.99
33.39
32.79
31.95
30.59
28.66
26.30
23.74
21.13
18.44
15.51
12.23
8.62
4.84
1.11
-2.48
-6.01
-9.68
-13.67
-18.03
-22.66
-27.37
-31.93
-36.13
-39.75
-42.49
-43.97
-43.79
-41.70
-37.65
-31.85
-24.67
-16.52
-7.75
1.32
10.31
18.83
26.36
32.46
36.88
39.65
41.07
41.57
41.58
41.30
40.70
39.60
37.79
35.13
31.56
27.11
21.89
16.04
9.79
3.45
-2.67
-8.32
-13.48
-18.29
-22.95
-27.61
-32.24
-36.63
-40.53
-43.68
-45.82
-46.65
-45.82
-42.97
-37.95
-30.96
-22.68
-14.07
-6.11
0.55
5.72
9.63
12.70
15.29
17.51
19.21
20.17
20.22
19.47
18.34
17.51
17.59
18.87
21.19
23.90
26.24
27.60
27.75
26.90
25.43
23.69
21.82
19.72
17.19
14.11
10.50
6.47
2.09
-2.73
-8.15
-14.25
-20.83
-27.28
-32.67
-36.02
-36.65
-34.39
-29.78
-23.82
-17.63
-12.03
-7.34
-3.35
0.44
4.55
9.21
14.32
19.42
23.96
27.46
29.65
30.54
30.34
29.35
27.88
26.13
24.23
22.23
20.09
17.74
15.03
11.78
7.94
3.62
-0.85
-4.99
-8.35
-10.68
-12.10
-13.02
-13.98
-15.46
-17.63
-20.21
-22.57
-23.96
-23.76
-21.71
-17.99
-13.12
-7.79
-2.58
2.11
6.18
9.66
12.64
15.14
17.14
18.62
19.58
20.20
20.66
21.22
21.99
22.96
24.01
24.90
25.34
24.97
23.48
20.71
16.84
12.43
8.28
5.07
3.03
1.74
0.37
-1.87
-5.38
-9.92
-14.91
-19.73
-24.11
-28.12
-32.02
-35.93
-39.76
-43.20
-45.85
-47.39
-47.62
-46.42
-43.80
-39.89
-34.98
-29.58
-24.27
-19.61
-15.99
-13.50
-11.92
-10.90
-10.04
-9.17
-8.39
-8.10
-8.95
-11.60
-16.49
-23.53
-32.00
-40.53
-47.29
-50.47
-48.79
-42.06
-31.51
-19.66
-9.67
-4.40
-5.33
-12.07
-22.50
-33.69
-43.12
-49.63
-53.59
-56.42
-59.65
-64.24
-70.42
-77.89
-86.06
-94.02
-100.22
-102.21
-97.05
-82.33
-57.39
-24.20
12.87
48.24
76.90
95.91
105.07
106.38
103.00
97.83
92.69
88.10
83.66
78.59
72.26
64.48
55.49
45.95
36.81
29.22
24.32
23.08
25.91
32.44
41.41
50.88
58.75
63.28
63.57
59.62
52.24
42.63
32.07
21.72
12.50
5.11
-0.00
-2.78
-3.44
-2.57
-0.80
1.37
3.64
5.92
8.21
10.45
12.48
14.11
15.13
15.41
14.93
13.80
12.23
10.55
9.18
8.45
8.51
9.21
10.10
10.54
9.88
7.64
3.70
-1.67
-7.88
-14.18
-19.90
-24.65
-28.35
-31.30
-33.96
-36.81
-40.13
-43.90
-47.74
-51.02
-52.94
-52.79
-50.10
-44.76
-37.13
-27.96
-18.20
-8.82
-0.50
6.46
12.18
17.02
21.43
25.72
29.92
33.88
37.32
40.02
41.94
43.15
43.77
43.85
43.28
41.83
39.28
35.50
30.62
24.98
19.06
13.33
8.10
3.47
-0.66
-4.48
-8.18
-11.87
-15.75
-20.02
-24.99
-30.85
-37.50
-44.36
-50.36
-54.22
-54.93
-52.06
-46.00
-37.71
-28.40
-19.12
-10.46
-2.61
4.55
11.18
17.34
22.92
27.70
31.48
34.20
35.97
37.06
37.80
38.43
39.00
39.39
39.29
38.39
36.43
33.37
29.32
24.57
19.49
14.40
9.60
5.27
1.50
-1.66
-4.32
-6.67
-9.00
-11.66
-14.94
-18.98
-23.71
-28.83
-33.79
-37.87
-40.27
-40.26
-37.42
-31.62
-23.14
-12.55
-0.65
11.64
23.35
33.48
41.16
45.86
47.58
46.86
44.72
42.27
40.38
39.34
38.89
38.39
37.17
34.84
31.39
27.09
22.34
17.45
12.57
7.73
2.93
-1.78
-6.30
-10.55
-14.49
-18.14
-21.56
-24.81
-28.01
-31.33
-35.08
-39.62
-45.19
-51.72
-58.63
-64.97
-69.64
-71.76
-70.91
-67.30
-61.58
-54.70
-47.56
-40.92
-35.31
-30.99
-27.92
-25.66
-23.45
-20.43
-16.02
-10.20
-3.65
2.56
7.51
10.96
13.54
16.52
21.16
28.19
37.46
48.02
58.54
67.59
73.92
76.41
74.15
66.58
53.80
36.74
17.09
-3.19
-22.40
-39.65
-54.84
-68.30
-80.21
-90.10
-96.69
-98.36
-93.84
-82.91
-66.76
-47.68
-28.44
-11.37
2.18
12.02
18.71
23.06
25.70
26.96
26.99
25.91
23.98
21.52
18.86
16.18
13.63
11.30
9.15
6.84
3.59
-1.95
-11.35
-25.77
-45.00
-66.75
-86.72
-99.60
-100.97
-89.05
-65.64
-35.72
-5.71
18.62
33.82
39.29
36.74
29.13
19.77
11.72
7.47
8.83
16.64
30.56
49.11
70.09
91.17
110.56
127.30
141.24
152.85
162.77
171.53
179.29
185.71
189.99
191.14
188.38
181.45
170.82
157.53
142.86
127.98
113.65
100.23
87.74
75.90
64.34
52.55
40.03
26.45
11.84
-3.32
-18.23
-32.00
-44.01
-54.09
-62.47
-69.55
-75.52
-80.07
-82.48
-81.87
-77.75
-70.35
-60.74
-50.51
-41.10
-33.33
-27.11
-21.73
-16.43
-10.99
-5.97
-2.60
-2.16
-5.37
-11.98
-20.69
-29.66
-37.08
-41.79
-43.54
-42.83
-40.56
-37.54
-34.28
-30.96
-27.80
-25.31
-24.36
-25.93
-30.53
-37.74
-46.18
-53.88
-59.09
-61.04
-60.14
-57.67
-55.08
-53.35
-52.73
-52.92
-53.50
-54.25
-55.14
-56.19
-57.14
-57.53
-56.79
-54.58
-50.96
-46.45
-41.91
-38.45
-37.10
-38.63
-43.37
-51.09
-61.24
-73.09
-85.87
-98.73
-110.48
-119.65
-124.75
-124.90
-120.36
-112.70
-104.22
-97.15
-92.71
-90.82
-90.48
-90.42
-89.69
-87.56
-83.16
-74.99
-61.03
-39.42
-9.61
26.97
66.90
105.67
139.10
164.56
181.44
190.91
194.97
195.53
193.68
189.76
183.65
175.27
164.90
153.13
140.39
126.50
110.45
90.66
65.94
36.49
4.59
-25.54
-48.71
-60.33
-57.80
-41.17
-12.92
23.03
62.53
102.03
138.91
171.41
198.40
219.25
233.95
243.12
247.82
249.20
248.01
244.26
237.36
226.41
210.72
190.10
164.86
135.71
103.50
69.13
33.58
-2.18
-37.25
-70.90
-102.66
-132.15
-159.00
-182.67
-202.44
-217.61
-227.74
-232.86
-233.49
-230.57
-225.29
-218.99
-213.06
-208.84
-207.42
-209.33
-214.26
-220.88
-227.06
-230.33
-228.35
-219.34
-202.32
-177.12
-144.52
-106.16
-64.52
-22.60
16.65
50.87
78.85
100.69
117.56
131.20
143.41
155.51
168.16
181.23
193.97
205.31
214.30
220.44
223.91
225.33
225.47
224.76
223.02
219.60
213.52
203.87
190.05
171.87
149.60
123.77
94.97
63.74
30.54
-4.00
-38.86
-72.42
-102.62
-127.49
-145.75
-157.27
-163.11
-165.07
-165.06
-164.45
-163.89
-163.30
-162.17
-159.95
-156.21
-150.90
-144.29
-136.95
-129.49
-122.38
-115.79
-109.55
-103.31
-96.78
-89.83
-82.51
-74.96
-67.26
-59.52
-51.95
-44.91
-38.92
-34.44
-31.71
-30.61
-30.72
-31.56
-32.73
-34.20
-36.21
-39.20
-43.50
-49.08
-55.31
-60.94
-64.44
-64.38
-59.98
-51.41
-39.78
-26.73
-13.85
-2.26
7.61
15.85
22.70
28.22
32.31
34.76
35.54
34.98
33.68
32.35
31.56
31.53
32.14
33.00
33.66
33.74
33.06
31.61
29.50
26.91
23.97
20.76
17.27
13.42
9.02
3.81
-2.38
-9.54
-17.22
-24.47
-30.01
-32.62
-31.48
-26.54
-18.46
-8.40
2.36
12.79
22.20
30.28
36.90
42.02
45.59
47.67
48.40
48.15
47.37
46.52
45.90
45.52
45.08
44.17
42.38
39.57
35.89
31.68
27.29
22.92
18.51
13.88
8.79
3.09
-3.29
-10.37
-18.14
-26.52
-35.15
-43.25
-49.66
-53.06
-52.42
-47.42
-38.62
-27.30
-15.05
-3.23
7.33
16.38
24.01
30.37
35.47
39.15
41.27
41.88
41.31
40.04
38.63
37.42
36.47
35.58
34.46
32.86
30.70
28.10
25.19
22.07
18.75
15.11
11.13
6.81
2.22
-2.64
-7.88
-13.72
-20.30
-27.50
-34.77
-41.08
-45.21
-46.04
-42.99
-36.14
-26.30
-14.69
-2.64
8.72
18.67
26.87
33.34
38.26
41.84
44.27
45.65
46.03
45.51
44.27
42.60
40.79
39.07
37.50
35.92
34.08
31.75
28.85
25.52
22.02
18.58
15.29
12.03
8.60
4.79
0.49
-4.32
-9.69
-15.70
-22.42
-29.64
-36.74
-42.59
-45.91
-45.60
-41.24
-33.27
-22.85
-11.50
-0.53
9.20
17.37
24.01
29.30
33.37
36.28
38.05
38.65
38.15
36.73
34.70
32.40
30.16
28.16
26.35
24.54
22.43
19.77
16.45
12.51
8.07
3.31
-1.64
-6.67
-11.61
-16.32
-20.63
-24.57
-28.28
-32.14
-36.52
-41.55
-46.91
-51.68
-54.61
-54.40
-50.27
-42.21
-31.10
-18.47
-5.97
5.04
13.84
20.39
25.09
28.51
31.07
32.94
34.12
34.56
34.35
33.77
33.19
32.92
33.14
33.73
34.44
34.91
34.84
34.00
32.32
29.84
26.64
22.89
18.73
14.30
9.66
4.82
-0.28
-5.80
-11.91
-18.76
-26.27
-33.98
-41.01
-46.18
-48.33
-46.75
-41.47
-33.33
-23.72
-14.09
-5.54
1.49
7.10
11.59
15.24
18.05
19.83
20.43
19.94
18.71
17.23
15.96
15.08
14.54
14.14
13.71
13.18
12.58
11.95
11.23
10.35
9.18
7.66
5.80
3.64
1.22
-1.50
-4.64
-8.41
-13.02
-18.59
-25.00
-31.75
-37.92
-42.34
-43.92
-42.03
-36.77
-28.95
-19.84
-10.73
-2.59
4.12
9.44
13.70
17.30
20.53
23.47
26.02
27.95
29.10
29.39
28.96
28.08
27.04
26.10
25.35
24.78
24.27
23.62
22.59
20.92
18.41
14.98
10.70
5.81
0.57
-4.76
-10.07
-15.43
-21.04
-27.11
-33.75
-40.76
-47.55
-53.16
-56.52
-56.78
-53.66
-47.63
-39.80
-31.58
-24.12
-18.09
-13.48
-9.90
-6.85
-4.05
-1.52
0.54
1.92
2.51
2.32
1.51
0.25
-1.19
-2.52
-3.47
-3.85
-3.79
-3.74
-4.37
-6.26
-9.74
-14.65
-20.43
-26.44
-32.19
-37.58
-42.87
-48.50
-54.80
-61.76
-68.87
-75.13
-79.09
-79.10
-73.49
-61.07
-41.44
-15.38
15.12
47.27
78.09
105.11
126.95
143.35
154.76
161.79
164.77
163.66
158.29
148.75
135.59
119.86
102.78
85.45
68.67
52.93
38.48
25.54
14.29
4.79
-3.12
-9.88
-16.05
-22.11
-28.26
-34.35
-40.00
-44.82
-48.57
-51.32
-53.46
-55.48
-57.78
-60.46
-63.14
-65.04
-65.22
-62.94
-57.96
-50.64
-41.88
-32.76
-24.22
-16.81
-10.66
-5.62
-1.44
2.07
4.96
7.14
8.54
9.13
8.99
8.40
7.64
7.03
6.69
6.60
6.57
6.36
5.78
4.73
3.19
1.21
-1.19
-3.98
-7.12
-10.59
-14.32
-18.36
-22.75
-27.64
-33.11
-39.05
-44.99
-50.15
-53.48
-54.06
-51.39
-45.56
-37.29
-27.72
-18.04
-9.21
-1.74
4.31
9.17
13.21
16.72
19.84
22.51
24.55
25.74
25.98
25.33
24.03
22.43
20.84
19.45
18.30
17.32
16.39
15.34
14.01
12.24
9.85
6.77
3.04
-1.11
-5.35
-9.43
-13.24
-16.94
-20.91
-25.55
-31.09
-37.30
-43.50
-48.57
-51.36
-51.01
-47.32
-40.77
-32.35
-23.18
-14.23
-6.04
1.16
7.35
12.56
16.77
19.96
22.18
23.50
24.06
23.95
23.27
22.07
20.48
18.72
17.05
15.73
14.87
14.43
14.20
13.86
13.12
11.76
9.73
7.13
4.23
1.38
-1.05
-2.80
-3.83
-4.45
-5.24
-6.94
-10.10
-14.80
-20.47
-25.94
-29.78
-30.77
-28.37
-22.87
-15.22
-6.68
1.72
9.35
16.04
21.82
26.73
30.70
33.63
35.46
36.26
36.22
35.56
34.41
32.84
30.90
28.65
26.18
23.63
21.16
18.90
16.96
15.39
14.04
12.61
10.67
7.81
3.86
-1.05
-6.43
-11.66
-16.19
-19.75
-22.51
-25.00
-27.95
-32.00
-37.42
-43.92
-50.62
-56.22
-59.35
-58.98
-54.71
-46.94
-36.72
-25.44
-14.46
-4.75
3.30
9.74
14.90
19.09
22.45
24.98
26.56
27.18
26.94
26.13
25.09
24.10
23.29
22.62
21.98
21.24
20.35
19.32
18.13
16.75
15.01
12.76
9.80
6.10
1.81
-2.80
-7.39
-11.76
-15.96
-20.28
-25.15
-30.88
-37.29
-43.67
-48.75
-51.23
-50.06
-45.00
-36.59
-26.08
-14.94
-4.45
4.62
12.04
17.97
22.67
26.38
29.11
30.81
31.45
31.13
30.10
28.67
27.12
25.64
24.30
23.11
22.08
21.18
20.30
19.26
17.81
15.71
12.86
9.36
5.43
1.37
-2.60
-6.41
-10.20
-14.29
-19.10
-24.94
-31.80
-39.17
-46.06
-51.13
-53.16
-51.40
-45.93
-37.55
-27.55
-17.24
-7.54
1.02
8.34
14.45
19.40
23.21
25.93
27.73
28.87
29.64
30.21
30.59
30.67
30.26
29.25
27.72
25.84
23.89
22.06
20.42
18.81
16.99
14.66
11.65
8.01
3.99
-0.09
-3.95
-7.53
-10.95
-14.55
-18.68
-23.61
-29.41
-35.80
