1675588125.00
64.000000
-0.00
-0.00
-0.00
-0.00
-0.00
-0.00
-0.00
-0.00
-0.00
-0.00
0.00
0.01
0.01
-0.00
-0.03
-0.05
-0.05
0.00
0.13
0.36
0.66
1.01
1.37
1.72
2.06
2.40
2.79
3.24
3.80
4.42
5.06
5.66
6.20
6.68
7.15
7.68
8.31
9.14
10.09
11.04
11.88
12.56
13.14
13.76
14.65
15.96
17.91
20.32
22.90
25.38
27.58
29.57
31.68
34.32
37.81
42.54
48.15
54.10
59.83
64.97
69.58
74.14
79.34
85.71
93.76
103.00
112.62
121.73
129.77
136.75
143.30
150.75
157.77
166.64
177.95
191.79
206.97
220.57
228.25
225.36
208.53
176.87
132.76
80.05
23.07
-34.94
-92.44
-149.16
-205.23
-260.37
-313.74
-363.87
-409.83
-450.91
-486.50
-515.74
-537.23
-549.22
-549.96
-538.37
-514.21
-478.67
-433.88
-382.45
-327.02
-269.84
-212.63
-156.66
-102.95
-52.37
-5.90
35.58
71.43
101.35
125.50
144.38
158.69
169.15
176.37
180.75
182.57
182.07
179.51
175.23
169.65
163.18
156.15
148.81
141.30
133.69
126.02
118.33
110.69
103.16
95.80
88.68
81.83
75.25
68.95
62.95
57.25
51.86
46.78
42.03
37.59
33.45
29.61
26.07
22.81
19.83
17.11
14.67
12.48
10.54
8.83
7.35
6.07
4.97
4.05
3.27
2.62
2.09
1.65
1.30
1.01
0.79
0.61
0.47
0.37
0.29
0.23
0.19
0.16
0.14
0.14
0.15
0.16
0.18
0.21
0.24
0.28
0.32
0.36
0.41
0.46
0.50
0.55
0.60
0.66
0.71
0.77
0.83
0.90
0.98
1.06
1.15
1.26
1.38
1.51
1.66
1.83
2.02
2.23
2.46
2.72
3.02
3.36
3.71
4.07
4.43
4.78
5.14
5.54
6.00
6.55
7.18
7.88
8.62
9.36
10.09
10.84
11.63
12.49
13.46
14.53
15.68
16.85
17.97
19.04
20.03
20.97
21.84
22.60
23.07
23.02
22.19
20.37
17.49
13.66
9.16
4.28
-0.64
-5.43
-10.10
-14.72
-19.38
-24.01
-28.31
-31.86
-34.25
-35.26
-35.04
-34.06
-32.99
-32.42
-32.58
-33.36
-34.28
-34.86
-34.80
-34.17
-33.36
-32.85
-33.14
-34.58
-37.46
-41.82
-47.14
-51.93
-53.96
-50.83
-41.11
-25.32
-6.07
12.81
27.68
36.50
39.33
37.81
34.07
29.71
25.41
21.30
17.50
14.53
13.17
13.89
16.40
19.57
21.86
21.85
18.93
13.55
6.91
0.55
-4.30
-7.19
-8.27
-8.14
-7.51
-7.04
-7.41
-9.39
-13.74
-20.42
-28.87
-37.44
-43.53
-44.34
-37.85
-23.69
-3.38
20.15
43.51
63.81
79.34
89.58
94.86
95.89
93.49
88.52
81.87
74.42
66.86
59.62
52.85
46.39
39.98
33.37
26.43
19.27
12.23
5.97
1.32
-1.08
-1.10
0.58
2.58
3.29
1.46
-3.14
-9.72
-16.73
-22.42
-25.63
-26.15
-24.81
-23.20
-23.20
-26.54
-34.21
-46.12
-60.66
-74.87
-84.97
-87.46
-80.34
-64.03
-41.37
-16.77
5.29
21.74
31.64
35.93
36.57
35.46
33.77
31.96
30.07
28.12
26.19
24.32
22.27
19.50
15.38
9.64
2.69
-4.41
-10.25
-13.71
-14.46
-13.15
-11.26
-10.61
-12.69
-18.19
-26.74
-37.02
-47.18
-55.32
-60.08
-60.95
-58.35
-53.62
-48.65
-45.55
-46.01
-50.74
-58.91
-68.07
-74.59
-74.82
-66.45
-49.37
-25.89
0.31
25.55
47.36
65.02
79.07
90.44
99.64
106.38
109.90
109.45
104.72
96.06
84.40
70.94
56.93
43.39
31.18
20.85
12.91
7.74
5.54
6.06
8.49
11.35
12.93
11.83
7.52
0.60
-7.45
-15.00
-20.88
-24.87
-27.76
-30.99
-36.11
-44.27
-55.88
-70.32
-85.90
-100.09
-109.93
-112.76
-107.02
-92.75
-71.66
-46.72
-21.37
1.34
19.44
32.25
40.16
44.24
45.70
45.49
44.18
42.08
39.44
36.58
33.82
31.40
29.21
26.86
23.87
20.03
15.75
11.97
9.79
9.92
12.18
15.46
18.03
18.21
14.92
8.08
-1.42
-11.98
-21.83
-29.57
-34.60
-37.30
-38.92
-41.13
-45.48
-52.83
-62.95
-74.40
-84.72
-90.94
-90.30
-81.05
-63.14
-38.40
-10.24
17.34
40.82
58.13
68.93
74.24
75.62
74.49
71.73
67.77
62.92
57.53
52.03
46.73
41.68
36.65
31.30
25.45
19.23
13.05
7.50
3.16
0.33
-1.09
-1.64
-2.19
-3.62
-6.64
-11.47
-17.74
-24.66
-31.10
-36.03
-38.81
-39.51
-39.00
-38.73
-40.31
-45.02
-53.26
-64.43
-76.83
-88.05
-95.38
-96.41
-89.64
-74.99
-54.05
-29.93
-6.51
12.69
25.51
31.69
32.61
30.44
27.08
23.63
20.28
16.75
12.69
7.91
2.36
-4.06
-11.44
-19.77
-28.61
-37.04
-43.79
-47.63
-47.83
-44.54
-38.78
-32.21
-26.49
-22.70
-20.83
-19.82
-17.97
-13.72
-6.47
3.05
12.90
20.66
24.17
22.30
15.11
3.77
-9.82
-23.45
-35.01
-42.87
-46.06
-44.46
-38.79
-30.48
-21.28
-13.16
-7.94
-7.13
-11.69
-21.77
-36.68
-55.03
-75.17
-95.67
-115.73
-135.36
-154.99
-175.10
-195.84
-216.99
-238.03
-258.06
-275.73
-288.98
-295.07
-291.21
-275.30
-246.87
-207.22
-158.85
-104.11
-44.02
22.07
95.35
175.53
259.19
339.55
408.06
457.32
483.57
487.73
474.50
450.29
420.95
390.68
361.95
336.23
314.45
296.88
282.78
270.13
256.11
238.05
214.55
186.07
154.74
123.60
95.71
73.19
56.82
46.07
39.57
35.77
33.48
32.12
31.56
31.84
32.81
34.01
34.86
34.86
33.86
31.92
29.30
26.18
22.56
18.25
12.90
6.21
-1.97
-11.60
-22.54
-34.56
-47.33
-60.41
-73.28
-85.56
-97.15
-108.56
-120.62
-133.86
-147.93
-161.11
-170.60
-173.77
-169.32
-157.98
-142.11
-124.47
-106.89
-89.94
-73.22
-56.32
-39.67
-24.73
-13.25
-6.16
-3.07
-2.35
-2.30
-1.67
-0.09
2.09
3.98
4.81
4.59
4.13
4.90
7.53
12.14
18.64
26.62
35.14
43.22
50.63
57.99
67.10
78.37
91.71
106.86
122.64
136.34
144.81
146.14
140.64
131.41
120.20
108.20
96.16
83.40
67.14
44.00
12.16
-27.56
-71.08
-116.24
-161.28
-204.42
-235.07
-243.02
-227.10
-196.95
-175.08
-163.61
-160.44
-163.37
-165.27
-163.52
-158.91
-153.74
-149.61
-145.98
-139.74
-130.20
-117.22
-100.90
-82.91
-66.51
-55.01
-49.61
-48.70
-47.99
-45.21
-38.46
-26.75
-11.59
2.92
12.01
12.78
5.57
-5.69
-16.68
-21.43
-14.18
8.22
45.07
92.67
146.06
200.51
252.22
288.31
296.06
271.86
225.25
171.51
122.55
83.59
55.40
36.70
25.40
21.28
24.12
33.19
46.64
60.98
71.91
76.74
75.02
68.31
59.87
50.75
41.68
32.69
22.12
6.73
-16.17
-47.76
-87.31
-132.33
-179.86
-226.82
-270.49
-298.99
-304.36
-288.07
-260.12
-230.22
-201.97
-174.16
-149.49
-123.26
-94.55
-66.70
-43.71
-27.91
-18.56
-12.58
-7.85
-2.69
4.58
13.70
22.74
30.18
36.12
42.17
50.00
59.98
71.44
83.59
94.74
102.87
106.94
107.25
105.21
102.37
99.77
98.15
98.42
100.91
105.53
112.18
120.80
131.34
143.15
155.03
165.65
173.97
179.20
180.92
179.13
174.00
165.79
154.80
141.56
126.94
112.10
98.06
85.45
74.42
64.69
55.72
46.81
37.20
26.12
12.96
-2.39
-19.28
-36.30
-51.60
-63.62
-71.66
-76.19
-78.47
-80.01
-81.89
-84.62
-88.23
-92.40
-96.83
-101.21
-105.25
-108.66
-111.22
-112.92
-114.01
-114.86
-115.75
-116.74
-117.52
-117.65
-116.70
-114.64
-111.82
-109.00
-107.03
-106.50
-107.31
-108.47
-108.24
-104.62
-95.99
-81.82
-62.86
-40.97
-18.49
2.43
20.25
34.32
44.60
51.48
55.38
56.48
54.66
49.50
40.54
27.62
11.14
-7.89
-27.92
-47.29
-64.57
-78.80
-89.56
-97.04
-101.84
-104.89
-107.23
-109.90
-113.69
-118.86
-125.03
-131.07
-135.29
-135.86
-131.39
-121.46
-106.67
-88.42
-68.37
-47.91
-27.85
-8.52
9.91
27.16
42.85
56.60
68.25
77.96
86.23
93.54
100.35
106.85
112.98
118.33
122.26
124.06
123.19
119.60
113.77
106.71
99.53
93.16
87.99
83.79
79.88
75.42
69.75
62.60
54.01
44.26
33.72
22.79
11.95
1.88
-6.75
-13.44
-18.20
-21.72
-25.32
-30.56
-38.70
-50.34
-65.23
-82.32
-99.91
-115.70
-127.11
-131.75
-127.98
-115.47
-95.31
-69.65
-40.94
-11.24
17.97
45.49
69.83
88.95
100.55
102.90
95.80
80.91
61.35
40.61
21.35
4.71
-9.92
-23.96
-39.15
-56.79
-77.04
-98.16
-116.48
-127.20
-126.06
-111.16
-83.97
-49.54
-15.33
11.07
24.37
22.94
8.89
-13.15
-37.54
-58.21
-70.53
-72.53
-65.16
-51.67
-36.25
-22.73
-13.40
-8.28
-3.30
6.07
21.93
42.75
64.92
84.80
100.04
109.88
114.78
119.91
129.48
143.44
157.57
167.37
171.09
169.54
164.17
155.41
149.12
149.68
156.25
163.28
165.87
163.57
159.78
159.25
166.29
192.45
246.71
329.14
430.66
539.97
649.26
754.12
851.14
879.16
796.51
610.05
374.18
148.45
-33.75
-165.26
-253.97
-313.66
-356.60
-385.71
-397.08
-389.32
-367.59
-339.90
-313.04
-291.87
-279.92
-276.39
-273.88
-264.23
-244.64
-219.16
-194.55
-175.86
-165.27
-162.56
-165.77
-168.30
-163.87
-151.03
-133.75
-117.78
-107.13
-102.99
-104.24
-108.42
-110.99
-107.82
-97.77
-83.01
-67.28
-53.74
-44.23
-39.27
-38.36
-39.95
-42.25
-44.14
-45.06
-44.45
-41.39
-35.14
-25.63
-13.58
-0.34
12.91
25.45
36.78
46.35
53.20
56.17
54.62
49.13
41.53
34.26
29.18
26.77
25.97
24.95
22.06
16.84
10.21
3.79
-0.95
-3.27
-3.23
-1.21
2.39
6.95
11.84
16.16
18.67
18.17
14.22
7.90
1.75
-1.13
0.52
6.27
13.89
20.09
21.42
15.35
1.02
-20.69
-47.64
-78.60
-111.72
-144.67
-174.68
-199.25
-216.79
-226.60
-228.86
-224.41
-216.15
-205.99
-194.33
-180.19
-163.10
-144.42
-127.11
-114.42
-96.35
-67.56
-27.56
19.22
67.08
110.57
144.72
166.31
175.24
174.65
167.37
157.83
147.16
136.07
125.01
114.47
105.29
98.39
94.27
91.04
86.68
79.72
69.64
57.70
46.04
37.00
32.42
32.83
36.36
40.42
42.61
41.93
38.60
33.57
27.88
22.27
16.82
10.72
3.25
-5.86
-16.02
-26.25
-35.73
-43.92
-50.55
-55.41
-58.39
-59.30
-58.00
-54.61
-49.72
-44.45
-40.01
-37.15
-35.82
-35.18
-33.94
-30.94
-25.54
-17.89
-8.88
0.15
7.80
13.06
15.58
16.00
15.74
16.74
20.81
28.92
40.86
55.21
69.87
82.72
92.20
97.61
99.09
97.24
92.86
86.69
79.31
71.18
62.70
54.25
46.19
38.94
32.92
28.47
25.74
24.57
24.33
24.01
22.40
18.43
11.53
1.74
-10.39
-24.05
-38.49
-53.31
-68.26
-83.16
-97.65
-111.11
-122.70
-131.56
-136.94
-138.45
-136.09
-130.36
-122.21
-112.87
-103.53
-95.03
-87.59
-80.73
-73.71
-65.85
-56.97
-47.53
-38.34
-30.15
-23.31
-17.66
-12.77
-8.30
-4.17
-0.66
1.83
3.00
2.83
1.49
-0.72
-3.42
-6.03
-7.73
-7.35
-3.81
3.49
14.19
26.88
39.35
49.41
55.63
58.07
58.16
58.19
60.35
65.83
74.50
85.01
95.48
104.27
110.51
114.27
116.33
117.76
119.32
121.31
123.37
124.73
124.44
121.69
115.98
107.15
95.32
80.76
63.87
45.25
25.82
6.82
-10.56
-25.44
-37.62
-47.50
-55.94
-63.63
-70.95
-77.82
-84.05
-89.60
-94.64
-99.28
-103.15
-105.07
-103.37
-96.41
-83.48
-65.25
-43.68
-21.37
-0.80
16.41
29.71
39.39
46.22
51.03
54.45
56.81
58.16
58.44
57.59
55.63
52.73
49.14
45.04
40.59
35.75
30.51
24.89
19.03
13.17
7.60
2.53
-2.01
-6.12
-10.04
-14.08
-18.49
-23.50
-29.21
-35.60
-42.42
-49.13
-54.86
-58.57
-59.24
-56.19
-49.38
-39.37
-27.20
-14.08
-1.08
11.04
21.85
31.15
38.90
45.10
49.82
53.08
54.93
55.48
54.90
53.45
51.46
49.18
46.82
44.43
41.97
39.35
36.49
33.35
29.94
26.25
22.19
17.57
12.11
5.47
-2.70
-12.57
-24.06
-36.71
-49.73
-61.96
-72.04
-78.60
-80.45
-76.98
-68.28
-55.33
-39.77
-23.54
-8.48
4.10
13.57
19.85
23.28
24.35
23.56
21.37
18.14
14.22
9.86
5.31
0.86
-3.20
-6.57
-9.08
-10.81
-12.04
-13.20
-14.73
-16.92
-19.87
-23.50
-27.70
-32.29
-37.13
-42.16
-47.35
-52.77
-58.56
-64.83
-71.56
-78.40
-84.50
-88.57
-89.12
-84.93
-75.54
-61.52
-44.40
-26.31
-9.32
5.14
16.46
24.80
30.71
34.68
37.04
37.93
37.52
36.12
34.20
32.22
30.51
29.14
28.08
27.26
26.73
26.49
26.49
26.50
26.08
24.81
22.39
18.79
14.25
9.21
4.08
-0.92
-5.90
-11.25
-17.55
-25.31
-34.60
-44.88
-54.86
-62.87
-67.20
-66.62
-60.72
-50.08
-35.96
-20.10
-4.15
10.53
23.05
33.01
40.35
45.25
48.06
49.22
49.24
48.56
47.48
46.10
44.27
41.75
38.30
33.96
29.05
24.08
19.58
15.84
12.78
10.05
7.23
4.03
0.43
-3.35
-7.00
-10.41
-13.75
-17.45
-22.06
-27.95
-35.01
-42.57
-49.44
-54.13
-55.31
-52.17
-44.64
-33.50
-20.14
-6.19
6.93
18.22
27.24
33.97
38.68
41.67
43.28
43.76
43.27
41.90
39.62
36.34
32.09
27.15
22.00
17.26
13.42
10.66
8.80
7.37
5.92
4.10
1.81
-0.96
-4.11
-7.59
-11.34
-15.44
-20.01
-25.33
-31.70
-39.21
-47.47
-55.42
-61.52
-64.24
-62.52
-56.19
-45.91
-32.98
-18.86
-4.82
8.11
19.27
28.24
34.91
39.42
42.17
43.64
44.26
44.25
43.58
42.14
39.78
36.56
32.73
28.64
24.66
21.12
18.07
15.42
12.96
10.43
7.62
4.42
0.78
-3.27
-7.65
-12.26
-17.03
-21.95
-27.17
-32.95
-39.43
-46.39
-53.06
-58.09
-59.88
-57.15
-49.39
-37.07
-21.61
-4.88
11.23
25.28
36.47
44.50
49.49
51.78
51.78
49.95
46.83
42.95
38.73
34.47
30.19
25.81
21.23
16.43
11.57
6.89
2.62
-1.21
-4.71
-8.13
-11.74
-15.63
-19.81
-24.10
-28.26
-32.06
-35.37
-38.22
-40.88
-43.75
-47.32
-51.94
-57.50
-63.37
-68.30
-70.74
-69.31
-63.20
-52.58
-38.52
-22.70
-6.93
7.37
19.36
28.80
35.85
40.80
43.98
45.67
46.17
45.77
44.76
43.31
41.47
39.13
36.15
32.53
28.43
24.22
20.35
17.20
14.86
13.04
11.27
8.97
5.79
1.67
-3.06
-7.91
-12.38
-16.24
-19.48
-22.40
-25.47
-29.17
-33.94
-39.96
-46.86
-53.68
-58.87
-60.71
-57.80
-49.69
-37.09
-21.69
-5.61
9.25
21.66
31.24
38.14
42.76
45.50
46.62
46.39
45.10
43.12
40.78
38.29
35.69
32.86
29.67
26.20
22.58
19.04
15.68
12.38
8.87
4.79
0.03
-5.25
-10.55
-15.30
-19.02
-21.56
-23.22
-24.65
-26.67
-30.01
-35.05
-41.54
-48.52
-54.44
-57.57
-56.45
-50.42
-39.81
-25.89
-10.46
4.65
17.95
28.68
36.65
42.12
45.62
47.60
48.48
48.54
47.97
46.93
45.45
43.42
40.59
36.68
31.65
25.76
19.70
14.26
10.14
7.57
6.30
5.59
4.65
2.78
-0.29
-4.47
-9.37
-14.46
-19.33
-23.85
-28.15
-32.64
-37.87
-44.22
-51.56
-59.19
-65.80
-69.87
-70.05
-65.61
-56.72
-44.34
-29.95
-15.14
-1.17
11.12
21.40
29.62
35.90
40.38
43.23
44.64
44.87
44.18
42.80
40.87
38.43
35.44
31.86
27.71
23.11
18.31
13.67
9.64
6.58
4.64
3.66
3.17
2.57
1.35
-0.68
-3.35
-6.29
-9.15
-11.81
-14.58
-18.03
-22.88
-29.63
-38.27
-48.09
-57.65
-65.08
-68.55
-66.84
-59.75
-48.08
-33.39
-17.52
-2.12
11.62
22.95
31.60
37.54
40.99
42.36
42.25
41.36
40.31
39.50
39.00
38.51
37.58
35.77
32.90
29.16
25.10
21.38
18.57
16.82
15.91
15.24
14.17
12.19
9.11
5.05
0.37
-4.52
-9.33
-13.95
-18.51
-23.40
-29.06
-35.91
-44.02
-52.96
-61.72
-68.88
-72.90
-72.58
-67.37
-57.56
-44.16
-28.70
-12.90
1.82
14.45
24.55
32.12
37.42
40.77
42.44
42.61
41.46
39.22
36.17
32.64
28.94
25.35
21.98
18.89
16.11
13.64
11.43
9.45
7.54
5.44
2.86
-0.44
-4.56
-9.25
-14.00
-18.25
-21.71
-24.56
-27.51
-31.46
-37.14
-44.56
-52.89
-60.57
-65.79
-66.96
-63.18
-54.39
-41.41
-25.64
-8.79
7.48
21.76
33.21
41.44
46.58
49.16
49.92
49.60
48.85
48.10
47.46
46.74
45.63
43.77
40.93
37.14
32.68
28.07
23.88
20.58
18.38
17.08
16.19
15.01
12.94
9.61
5.00
-0.61
-6.75
-12.92
-18.68
-23.85
-28.49
-33.04
-38.07
-44.10
-51.20
-58.78
-65.56
-69.89
-70.24
-65.72
-56.36
-43.13
-27.54
-11.27
4.22
17.88
29.13
37.73
43.74
47.31
48.83
48.75
47.66
46.14
44.61
43.26
41.93
40.37
38.26
35.48
32.14
28.49
24.86
21.48
18.52
15.92
13.52
11.01
8.07
4.39
-0.08
-5.23
-10.82
-16.64
-22.60
-28.76
-35.25
-42.13
-49.35
-56.81
-64.30
-71.45
-77.63
-81.78
-82.69
-79.24
-70.94
-58.14
-42.15
-24.82
-8.06
6.69
18.74
27.99
34.78
39.57
42.66
44.17
44.17
42.80
40.46
37.66
34.96
32.67
30.71
28.71
26.20
22.98
19.21
15.36
12.02
9.46
7.55
5.73
3.44
0.31
-3.52
-7.54
-11.09
-13.69
-15.34
-16.44
-17.76
-20.10
-24.02
-29.68
-36.75
-44.37
-51.27
-55.98
-57.11
-53.78
-45.79
-33.79
-19.16
-3.62
11.21
24.12
34.46
42.12
47.33
50.41
51.71
51.51
50.06
47.60
44.46
40.86
37.04
33.09
29.03
24.88
20.71
16.70
13.00
9.78
7.03
4.58
2.16
-0.54
-3.73
-7.39
-11.38
-15.41
-19.26
-22.75
-25.91
-28.94
-32.25
-36.40
-41.90
-48.94
-57.13
-65.39
-71.99
-75.09
-73.25
-65.94
-53.74
-38.14
-21.05
-4.24
11.03
24.11
34.84
43.32
49.72
54.13
56.72
57.62
57.14
55.63
53.51
51.00
48.17
44.85
40.90
36.36
31.52
26.89
22.95
19.98
17.90
16.31
14.66
12.48
9.53
5.83
1.60
-2.83
-7.24
-11.48
-15.56
-19.56
-23.64
-28.00
-32.90
-38.69
-45.65
-53.80
-62.61
-70.92
-77.01
-79.11
-75.86
-66.95
-53.10
-35.96
-17.54
0.31
16.25
29.54
39.91
47.42
52.31
54.98
55.93
55.74
54.96
53.92
52.70
51.16
49.06
46.25
42.81
39.02
35.28
31.96
29.29
27.28
25.76
24.43
22.95
21.00
18.36
14.89
10.57
5.50
-0.12
-6.04
-11.94
-17.57
-22.79
-27.62
-32.30
-37.22
-42.91
-49.76
-57.90
-67.02
-76.16
-83.91
-88.63
-88.86
-83.79
-73.50
-58.94
-41.70
-23.56
-6.09
9.57
22.80
33.39
41.41
46.99
50.38
51.82
51.69
50.38
48.27
45.73
42.92
39.91
36.67
33.25
29.77
26.49
23.72
21.68
20.46
19.86
19.52
18.98
17.79
15.65
12.48
8.44
3.87
-0.84
-5.43
-9.82
-14.22
-19.01
-24.60
-31.30
-39.13
-47.80
-56.56
-64.34
-69.79
-71.56
-68.68
-60.77
-48.34
-32.61
-15.37
1.65
17.01
29.92
40.13
47.77
53.12
56.49
58.12
58.30
57.36
55.60
53.32
50.71
47.89
44.90
41.84
38.78
35.72
32.58
29.19
25.42
21.22
16.71
12.12
7.62
3.28
-0.99
-5.32
-9.82
-14.44
-19.01
-23.38
-27.47
-31.34
-35.17
-39.27
-44.01
-49.73
-56.61
-64.44
-72.42
-79.20
-83.11
-82.69
-77.13
-66.60
-52.25
-35.78
-18.97
-3.22
10.64
22.28
31.69
38.89
43.95
46.99
48.27
48.25
47.48
46.39
45.25
44.12
42.95
41.76
40.61
39.58
38.71
37.80
36.56
34.70
32.02
28.56
24.57
20.30
16.01
11.72
7.42
2.97
-1.70
-6.58
-11.52
-16.39
-21.11
-25.70
-30.34
-35.39
-41.18
-47.97
-55.73
-64.01
-71.82
-77.82
-80.55
-78.82
-72.12
-60.82
-46.09
-29.54
-12.86
2.53
15.68
26.19
34.08
39.60
43.18
45.27
46.26
46.36
45.67
44.22
42.06
39.33
36.31
33.29
30.50
28.03
25.77
23.54
21.17
18.69
16.19
13.84
11.71
9.69
7.58
5.13
2.22
-1.13
-4.81
-8.56
-12.19
-15.48
-18.39
-21.09
-23.95
-27.54
-32.38
-38.78
-46.52
-54.84
-62.47
-67.89
-69.75
-67.17
-60.00
-48.78
-34.68
-19.16
-3.70
10.45
22.53
32.18
39.46
44.62
47.96
49.68
49.91
48.79
46.54
43.60
40.48
37.57
35.05
32.81
30.59
28.19
25.64
23.18
21.15
19.69
18.70
17.74
16.23
13.58
9.53
4.15
-2.15
-8.72
-14.93
-20.34
-24.87
-28.74
-32.48
-36.77
-42.17
-48.89
-56.57
-64.21
-70.28
-73.15
-71.57
-65.07
-54.13
-40.02
-24.41
-8.86
5.39
17.60
27.42
34.86
40.18
43.75
46.09
47.58
48.47
48.84
48.62
47.81
46.45
44.72
42.74
40.56
38.09
35.24
32.04
28.65
25.30
22.27
19.62
17.28
14.92
12.19
8.78
4.53
-0.54
-6.25
-12.34
-18.47
-24.41
-30.02
-35.34
-40.56
-45.99
-51.98
-58.73
-66.12
-73.53
-79.87
-83.71
-83.66
-78.81
-69.00
-54.98
-38.14
-20.25
-3.03
12.21
24.74
34.34
41.24
45.93
48.96
50.75
51.62
51.79
51.48
50.81
49.89
48.69
47.09
44.89
42.02
38.59
34.82
31.02
27.41
24.02
20.75
17.43
13.97
10.32
6.57
2.79
-1.06
-5.09
-9.44
-14.26
-19.56
-25.22
-30.90
-36.20
-40.83
-44.74
-48.23
-51.86
-56.17
-61.31
-66.78
-71.44
-73.79
-72.44
-66.51
-55.99
-41.70
-25.07
-7.79
8.51
22.59
33.77
41.85
47.02
49.68
50.32
49.44
47.57
45.16
42.63
40.21
37.97
35.86
33.78
31.68
29.56
27.45
25.33
23.15
20.84
18.32
15.56
12.52
9.19
5.56
1.63
-2.54
-6.95
-11.57
-16.38
-21.31
-26.19
-30.82
-35.04
-38.81
-42.34
-46.06
-50.38
-55.51
-61.17
-66.58
-70.52
-71.66
-69.00
-62.05
-51.08
-36.97
-21.04
-4.68
10.83
24.50
35.65
43.89
49.15
51.62
51.75
50.15
47.48
44.35
41.21
38.26
35.56
33.00
30.43
27.77
25.04
22.36
19.93
17.88
16.22
14.81
13.34
11.49
8.94
5.62
1.54
-3.04
-7.83
-12.50
-16.78
-20.58
-24.06
-27.65
-31.96
-37.56
-44.64
-52.72
-60.55
-66.35
-68.28
-65.08
-56.51
-43.49
-27.75
-11.28
4.18
17.59
28.57
37.12
43.45
47.77
50.30
51.34
51.25
50.43
49.13
47.43
45.26
42.53
39.26
35.66
32.04
28.69
25.76
23.24
21.03
18.96
16.95
14.86
12.53
9.72
6.21
1.90
-3.11
-8.55
-14.04
-19.29
-24.13
-28.62
-32.92
-37.28
-42.04
-47.55
-54.04
-61.36
-68.77
-74.90
-78.07
-76.75
-70.21
-58.74
-43.66
-26.82
-10.14
4.90
17.46
27.28
34.49
39.39
42.40
44.02
44.77
45.14
45.44
45.73
45.82
45.38
44.14
42.05
39.28
36.23
33.27
30.68
28.56
26.80
25.21
23.61
21.88
19.95
17.71
15.02
11.69
7.54
2.52
-3.19
-9.18
-14.95
-20.04
-24.31
-27.87
-31.19
-34.92
-39.67
-45.83
-53.33
-61.46
-68.96
-74.19
-75.57
-72.05
-63.42
-50.38
-34.38
-17.18
-0.54
14.15
25.98
34.56
40.08
43.11
44.48
45.03
45.45
46.00
46.59
46.84
46.29
44.73
42.14
38.80
35.10
31.44
27.96
24.67
21.35
17.82
14.02
10.09
6.27
2.70
-0.63
-3.91
-7.34
-10.94
-14.51
-17.71
-20.28
-22.27
-23.94
-25.75
-28.05
-31.06
-34.89
-39.65
-45.43
-52.08
-59.03
-65.10
-68.78
-68.63
-63.85
-54.54
-41.76
-27.12
-12.38
1.10
12.47
21.47
28.22
33.05
36.37
38.54
39.87
40.60
40.88
40.83
40.45
39.72
38.52
36.74
34.32
31.40
28.22
25.13
22.47
20.43
19.01
17.94
16.78
15.12
12.69
9.51
5.88
2.19
-1.24
-4.34
-7.28
-10.49
-14.44
-19.57
-26.11
-34.06
-43.04
-52.25
-60.47
-66.29
-68.38
-65.87
-58.64
-47.35
-33.29
-18.02
-3.11
10.14
20.90
28.77
33.82
36.54
37.63
37.81
37.64
37.43
37.18
36.78
36.11
35.17
34.03
32.80
31.51
30.08
28.36
26.25
23.81
21.21
18.71
16.39
14.15
11.63
8.40
4.22
-0.87
-6.44
-11.97
-16.97
-21.20
-24.73
-27.76
-30.54
-33.29
-36.30
-39.92
-44.57
-50.36
-56.92
-63.17
-67.43
-68.00
-63.66
-54.25
-40.72
-24.85
-8.65
6.19
18.68
28.52
35.87
41.06
44.35
45.92
45.98
44.80
42.81
40.47
38.15
36.01
34.08
32.25
30.40
28.48
26.55
24.68
22.89
21.17
19.41
17.49
15.36
12.96
10.37
7.54
4.45
0.95
-3.13
-7.95
-13.50
-19.60
-25.89
-31.94
-37.47
-42.43
-47.10
-51.97
-57.52
-63.94
-70.91
-77.44
-82.07
-83.29
-79.97
-71.82
-59.41
-44.14
-27.67
-11.57
2.97
15.25
24.99
32.24
37.23
40.34
42.01
42.73
42.86
42.68
42.32
41.76
40.94
39.63
37.74
35.18
32.11
28.77
25.47
22.42
19.72
17.35
15.25
13.37
11.65
10.01
8.21
5.94
2.98
-0.74
-5.05
-9.64
-14.20
-18.69
-23.36
-28.69
-35.15
-42.90
-51.60
-60.27
-67.46
-71.55
-71.21
-65.82
-55.63
-41.71
-25.59
-8.87
7.15
21.54
33.72
43.31
50.13
54.12
55.49
54.63
52.15
48.74
44.99
41.34
37.94
34.83
31.93
29.16
26.50
24.00
21.70
19.61
17.68
15.82
13.98
12.06
10.04
7.83
5.33
2.45
-0.90
-4.72
-8.91
-13.38
-18.06
-22.95
-28.14
-33.81
-40.16
-47.30
-55.05
-62.86
-69.68
-74.17
-75.01
-71.34
-63.16
-51.24
-36.91
-21.66
-6.76
6.84
18.54
27.98
35.05
39.80
42.55
43.73
43.83
43.22
42.20
40.95
39.60
38.26
36.98
35.74
34.37
32.71
30.61
28.08
25.23
22.23
19.27
16.49
13.88
11.33
8.63
5.55
1.93
-2.20
-6.65
-11.14
-15.44
-19.49
-23.49
-27.84
-33.02
-39.49
-47.36
-56.32
-65.42
-73.26
-78.24
-79.04
-75.01
-66.35
-54.03
-39.45
-24.13
-9.34
4.02
15.38
24.52
31.48
36.51
39.99
42.30
43.72
44.43
44.47
43.82
42.52
40.59
38.12
35.22
31.99
28.58
25.14
21.83
18.72
15.74
12.66
9.23
5.24
0.65
-4.40
-9.63
-14.72
-19.43
-23.63
-27.36
-30.85
-34.46
-38.61
-43.74
-50.07
-57.42
-65.10
-71.86
-76.17
-76.60
-72.25
-63.06
-49.77
-33.79
-16.75
-0.21
14.64
27.04
36.66
43.49
47.80
50.01
50.64
50.17
49.04
47.54
45.82
43.86
41.53
38.68
35.21
31.22
27.00
22.93
19.38
16.48
14.14
12.02
9.77
7.09
3.87
0.19
-3.76
-7.71
-11.49
-15.08
-18.62
-22.56
-27.41
-33.68
-41.47
-50.21
-58.66
-65.02
-67.48
-64.78
-56.65
-43.92
-28.19
-11.38
4.80
19.22
31.34
41.05
48.43
53.58
56.63
57.78
57.33
55.78
53.62
51.27
48.89
46.42
43.57
40.14
36.06
31.53
26.98
22.86
19.44
16.59
13.90
10.76
6.65
1.41
-4.72
-11.20
-17.37
-22.78
-27.39
-31.48
-35.63
-40.38
-46.16
-53.10
-60.87
-68.69
-75.34
-79.25
-78.98
-73.49
-62.65
-47.35
-29.34
-10.72
6.56
21.21
32.78
41.46
47.84
52.43
55.63
57.59
58.40
58.19
57.16
55.54
53.43
50.79
47.47
43.39
38.61
33.42
28.25
23.53
19.45
15.91
12.58
9.01
4.83
-0.07
-5.53
-11.17
-16.54
-21.32
-25.42
-29.07
-32.76
-37.16
-42.96
-50.61
-60.04
-70.44
-80.32
-87.74
-90.86
-88.49
-80.43
-67.56
-51.54
-34.33
-17.68
-2.84
9.50
19.11
26.06
30.58
33.05
33.90
33.63
32.77
31.80
31.12
31.01
31.65
33.15
35.49
38.56
42.08
45.68
48.93
51.50
53.08
53.56
52.93
51.20
48.48
44.87
40.55
35.75
30.75
25.78
20.96
16.18
11.18
5.52
-1.23
-9.26
-18.36
-27.78
-36.29
-42.40
-44.84
-42.82
-36.36
-26.23
-13.82
-0.68
11.70
22.22
30.14
35.07
36.92
35.82
32.23
26.87
20.71
14.74
9.76
6.15
3.77
2.11
0.58
-1.21
-3.29
-5.39
-7.14
-8.34
-9.13
-9.90
-11.20
-13.35
-16.47
-20.30
-24.45
-28.48
-32.17
-35.58
-39.01
-42.89
-47.67
-53.61
-60.58
-67.95
-74.53
-78.72
-78.90
-73.81
-63.10
-47.38
-28.17
-7.33
13.31
32.40
49.17
63.29
74.71
83.39
89.37
92.70
93.58
92.21
88.87
83.82
77.34
69.77
61.52
53.07
44.83
37.16
30.27
24.24
18.98
14.23
9.62
4.65
-1.07
-7.65
-14.88
-22.16
-28.89
-34.55
-39.08
-42.79
-46.37
-50.59
-56.05
-62.96
-70.88
-78.73
-84.90
-87.68
-85.69
-78.41
-66.31
-50.69
-33.36
-16.06
-0.23
13.28
24.04
32.06
37.62
41.17
43.28
44.49
45.25
45.71
45.83
45.36
43.99
41.63
38.33
34.40
30.24
26.23
22.63
19.58
17.03
14.85
12.76
10.40
7.45
3.66
-0.92
-6.04
-11.29
-16.33
-21.05
-25.58
-30.37
-35.90
-42.62
-50.71
-59.83
-69.06
-76.92
-81.71
-81.90
-76.72
-66.34
-51.86
-34.96
-17.38
-0.60
14.38
26.94
36.76
43.79
48.26
50.56
51.22
50.76
49.57
47.94
45.96
43.64
40.89
37.62
33.82
29.64
25.37
21.38
18.02
15.38
13.34
11.59
9.78
7.60
4.90
1.59
-2.31
-6.65
-11.21
-15.74
-20.09
-24.25
-28.48
-33.24
-38.96
-45.98
-54.21
-63.06
-71.34
-77.42
-79.69
-76.92
-68.81
-56.01
-40.05
-22.82
-6.10
8.80
21.21
30.98
38.24
43.28
46.36
47.78
47.84
46.89
45.28
43.31
41.19
38.97
36.60
34.00
31.16
28.26
25.62
23.49
21.98
20.84
19.58
17.60
14.46
10.06
4.64
-1.34
-7.39
-13.14
-18.45
-23.46
-28.46
-33.91
-40.22
-47.64
-56.00
-64.55
-71.97
-76.58
-76.73
-71.36
-60.36
-44.73
-26.30
-7.26
10.36
25.19
36.58
44.57
49.63
52.35
53.34
53.07
51.90
50.16
48.12
46.00
43.91
41.88
39.76
37.33
34.35
30.75
26.70
22.60
18.95
16.13
14.17
12.75
11.21
8.93
5.54
1.11
-3.98
-9.14
-13.93
-18.20
-22.13
-26.12
-30.71
-36.41
-43.47
-51.87
-61.05
-70.00
-77.25
-81.16
-80.33
-74.01
-62.46
-46.87
-29.13
-11.24
5.14
19.05
30.19
38.78
45.19
49.76
52.67
53.98
53.78
52.29
49.91
47.19
44.59
42.37
40.50
38.71
36.63
34.05
30.99
27.70
24.45
21.51
18.89
16.41
13.83
10.84
7.21
2.82
-2.37
-8.20
-14.37
-20.55
-26.43
-31.82
-36.77
-41.50
-46.43
-51.99
-58.43
-65.63
-72.81
-78.64
-81.47
-79.81
-72.96
-61.23
-45.91
-28.84
-11.91
3.45
16.38
26.62
34.25
39.58
43.04
45.05
46.03
46.32
46.12
45.50
44.48
43.06
41.27
39.11
36.61
33.80
30.77
27.71
24.85
22.34
20.20
18.24
16.13
13.59
10.42
6.64
2.43
-1.99
-6.41
-10.75
-15.07
-19.57
-24.50
-30.12
-36.60
-44.03
-52.25
-60.87
-69.14
-75.94
-79.85
-79.48
-73.94
-63.25
-48.41
-31.25
-13.84
2.11
15.67
26.63
35.24
41.80
46.50
49.34
50.32
49.69
47.88
45.49
42.97
40.52
38.04
35.24
31.97
28.30
24.64
21.52
19.34
18.11
17.41
16.52
14.78
11.76
7.49
2.38
-3.00
-8.11
-12.65
-16.59
-20.25
-24.13
-28.93
-35.19
-43.16
-52.44
-61.87
-69.77
-74.24
-73.81
-67.88
-56.91
-42.25
-25.74
-9.14
6.16
19.32
30.00
38.16
43.94
47.59
49.44
49.93
49.52
48.63
47.64
46.72
45.85
44.85
43.43
41.34
38.51
35.06
31.36
27.78
24.65
22.07
19.90
17.80
15.37
12.25
8.24
3.35
-2.24
-8.21
-14.23
-20.06
-25.58
-30.91
-36.35
-42.32
-49.20
-57.09
-65.58
-73.71
-79.95
-82.66
-80.42
-72.63
-59.65
-42.80
-24.00
-5.29
11.58
25.46
35.83
42.77
46.79
48.63
49.00
48.49
47.48
46.13
44.50
42.62
40.54
38.29
35.86
33.25
30.41
27.34
24.18
21.20
18.61
16.52
14.77
13.06
10.97
8.21
4.73
0.78
-3.32
-7.28
-11.01
-14.69
-18.60
-22.98
-27.98
-33.66
-40.07
-47.24
-55.05
-63.04
-70.22
-75.18
-76.38
-72.68
-63.75
-50.28
-33.80
-16.27
0.47
15.09
26.87
35.74
41.98
46.07
48.46
49.50
49.45
48.58
47.14
45.43
43.66
41.94
40.16
38.10
35.47
32.06
27.92
23.28
18.60
14.31
10.62
7.49
4.60
1.49
-2.21
-6.58
-11.47
-16.50
-21.29
-25.56
-29.23
-32.46
-35.55
-38.90
-42.93
-47.99
-54.12
-60.91
-67.38
-72.11
-73.56
-70.47
-62.42
-49.89
-34.21
-17.17
-0.47
14.58
27.21
37.14
44.32
48.88
50.97
50.92
49.23
46.52
43.45
40.48
37.76
35.17
32.42
29.28
25.82
22.36
19.40
17.39
16.48
16.40
16.53
16.08
14.41
11.27
6.78
1.42
-4.21
-9.67
-14.81
-19.81
-25.09
-31.21
-38.63
-47.48
-57.32
-67.06
-75.10
-79.72
-79.48
-73.76
-62.88
-48.00
-30.82
-13.12
3.50
17.86
29.24
37.47
42.80
45.85
47.37
47.99
48.11
47.87
47.21
46.04
44.27
41.78
38.51
34.44
29.71
24.66
19.85
15.76
12.69
10.49
8.62
6.36
3.08
-1.52
-7.25
-13.57
-19.72
-25.10
-29.43
-32.90
-36.14
-39.98
-45.18
-52.00
-60.00
-67.93
-74.01
-76.43
-73.93
-66.13
-53.72
-38.19
-21.29
-4.70
10.43
23.45
34.14
42.48
48.51
52.34
54.16
54.33
53.42
52.07
50.77
49.75
48.87
47.70
45.83
43.02
39.46
35.57
31.88
28.71
26.05
23.54
20.69
17.12
12.70
7.57
2.11
-3.36
-8.64
-13.73
-18.75
-23.91
-29.45
-35.63
-42.68
-50.64
-59.21
-67.57
-74.36
-78.03
-77.25
-71.38
-60.71
-46.43
-30.28
-14.07
0.79
13.42
23.56
31.36
37.08
41.00
43.34
44.30
44.13
43.22
41.96
40.65
39.37
38.01
36.30
34.07
31.38
28.50
25.84
23.69
22.06
20.65
18.95
16.40
12.67
7.79
2.07
-3.93
-9.64
-14.71
-19.09
-23.04
-27.00
-31.43
-36.76
-43.25
-50.91
-59.28
-67.40
-73.83
-76.95
-75.42
-68.65
-57.04
-41.90
-25.07
-8.49
6.31
18.41
27.53
33.99
38.36
41.33
43.39
44.80
45.57
45.58
44.73
43.06
40.64
37.58
33.99
30.01
25.93
22.14
19.10
17.01
15.77
14.88
13.63
11.42
7.92
3.22
-2.20
-7.76
-12.87
-17.21
-20.77
-23.92
-27.31
-31.67
-37.54
-44.89
-52.92
-60.10
-64.54
-64.57
-59.30
-48.99
-34.89
-18.86
-2.80
11.86
24.31
34.22
41.61
46.58
49.33
50.16
49.58
48.21
46.63
45.15
43.75
42.11
39.79
36.50
32.26
27.47
22.71
18.56
15.41
13.25
11.72
10.24
8.19
5.12
0.92
-4.18
-9.71
-15.18
-20.21
-24.71
-28.91
-33.25
-38.30
-44.54
-52.12
-60.58
-68.80
-75.08
-77.57
-74.92
-66.73
-53.77
-37.77
-20.77
-4.53
9.85
21.91
31.70
39.40
45.13
49.00
51.15
51.86
51.53
50.59
49.43
48.23
47.01
45.62
43.82
41.45
38.43
34.85
30.97
27.04
23.27
19.68
16.14
12.41
8.25
3.52
-1.77
-7.41
-13.15
-18.70
-23.85
-28.51
-32.74
-36.73
-40.84
-45.53
-51.22
-58.01
-65.49
-72.58
-77.66
-79.05
-75.43
-66.49
-52.90
-36.27
-18.62
-1.80
12.81
24.53
33.28
39.37
43.34
45.78
47.18
47.93
48.20
48.05
47.49
46.49
45.08
43.30
41.17
38.68
35.85
32.79
29.69
26.76
24.07
21.52
18.78
15.52
11.54
6.84
1.64
-3.78
-9.16
-14.32
-19.20
-23.74
-27.93
-31.85
-35.75
-40.03
-45.17
-51.46
-58.77
-66.34
-72.91
-76.87
-76.81
-71.92
-62.23
-48.67
-32.78
-16.30
-0.84
12.51
23.18
31.10
36.49
39.80
41.44
41.87
41.48
40.66
39.66
38.65
37.52
36.05
33.95
31.14
27.80
24.38
21.39
19.17
17.70
16.65
15.42
13.47
10.41
6.16
0.91
-4.93
-10.89
-16.54
-21.68
-26.33
-30.80
-35.56
-41.10
-47.69
-55.17
-62.81
-69.33
-73.18
-72.90
-67.62
-57.39
-43.13
-26.42
-9.01
7.52
22.05
33.89
42.76
48.65
51.86
52.86
52.25
50.68
48.72
46.81
45.15
43.73
42.38
40.77
38.59
35.64
31.98
27.95
23.97
20.46
17.61
15.29
13.15
10.72
7.63
3.68
-1.11
-6.52
-12.22
-17.84
-23.07
-27.76
-31.94
-35.86
-39.94
-44.62
-50.23
-56.74
-63.61
-69.73
-73.62
-73.74
-69.03
-59.32
-45.46
-29.12
-12.29
3.23
16.27
26.41
33.79
38.88
42.17
44.07
44.91
44.90
44.29
43.34
42.32
41.40
40.65
39.91
38.95
37.48
35.33
32.52
29.19
25.58
21.97
18.53
15.31
12.27
9.24
5.99
2.29
-2.05
-7.11
-12.84
-19.01
-25.33
-31.48
-37.28
-42.66
-47.78
-53.01
-58.80
-65.43
-72.69
-79.73
-85.05
-86.93
-83.99
-75.70
-62.61
-46.16
-28.25
-10.68
5.23
18.73
29.51
37.51
42.84
45.76
46.69
46.21
44.94
43.42
41.97
40.66
39.30
37.65
35.48
32.77
29.63
26.31
23.11
20.22
17.66
15.28
12.82
9.96
6.48
2.35
-2.32
-7.26
-12.14
-16.73
-21.00
-25.09
-29.36
-34.21
-39.97
-46.74
-54.21
-61.55
-67.45
-70.35
-68.86
-62.27
-50.85
-35.75
-18.77
-1.68
14.11
27.83
39.15
47.97
54.26
57.96
59.16
58.13
55.34
51.38
46.76
41.93
37.18
32.69
28.61
25.04
22.03
19.59
17.69
16.23
14.99
13.67
11.84
9.07
5.09
-0.03
-5.85
-11.73
-17.03
-21.43
-25.13
-28.77
-33.26
-39.42
-47.60
-57.40
-67.70
-76.71
-82.48
-83.36
-78.51
-68.14
-53.48
-36.45
-19.08
-3.09
10.48
21.22
29.26
35.03
39.08
42.01
44.36
46.52
48.66
50.67
52.22
52.83
52.15
50.04
46.65
42.44
37.98
33.87
30.51
28.05
26.27
24.66
22.53
19.28
14.56
8.47
1.54
-5.54
-12.10
-17.82
-22.74
-27.30
-32.11
-37.78
-44.72
-52.90
-61.70
-69.89
-75.78
-77.67
-74.35
-65.56
-52.07
-35.50
-17.78
-0.69
14.51
27.13
36.93
43.96
48.44
50.68
51.12
50.21
48.39
45.95
43.02
39.55
35.47
30.81
25.84
21.07
17.18
14.70
13.81
14.12
14.85
15.07
14.08
11.64
7.92
3.35
-1.65
-6.76
-11.84
-16.90
-22.10
-27.77
-34.35
-42.20
-51.31
-60.96
-69.62
-75.28
-76.02
-70.65
-59.17
-42.77
-23.41
-3.31
15.66
32.25
45.86
56.33
63.76
68.36
70.39
70.20
68.26
65.09
61.17
56.87
52.28
47.37
41.95
35.96
29.49
22.78
16.18
9.92
4.09
-1.40
-6.83
-12.49
-18.64
-25.32
-32.33
-39.26
-45.67
-51.27
-56.09
-60.55
-65.35
-71.21
-78.50
-87.01
-95.72
-103.05
-107.07
-106.14
-99.26
-86.38
-68.21
-45.89
-20.58
6.83
35.60
64.89
93.45
119.66
141.89
159.05
171.05
179.05
185.10
191.51
200.10
211.51
224.74
237.24
245.20
244.46
231.60
205.29
167.22
122.31
77.52
39.72
13.32
-1.36
-7.95
-12.30
-20.05
-34.58
-56.40
-83.86
-114.59
-146.62
-178.70
-209.90
-239.04
-264.43
-283.97
-295.55
-297.18
-287.35
-265.16
-230.91
-186.48
-135.48
-82.74
-33.20
9.24
42.53
66.62
83.03
94.01
101.97
109.03
116.86
126.52
138.40
152.07
166.39
179.70
190.31
196.92
198.85
196.12
189.30
179.22
166.65
152.21
136.20
118.74
99.86
79.58
58.00
35.43
12.35
-10.62
-32.83
-53.74
-73.03
-90.59
-106.44
-120.57
-132.74
-142.48
-149.11
-151.93
-150.57
-145.08
-136.10
-124.74
-112.35
-100.24
-89.40
-80.28
-72.99
-67.28
-62.85
-59.44
-56.85
-54.85
-53.23
-51.75
-50.25
-48.70
-47.23
-46.09
-45.53
-45.66
-46.36
-47.21
-47.64
-47.05
-45.14
-42.06
-38.33
-34.74
-32.06
-30.70
-30.71
-31.81
-33.58
-35.72
-38.07
-40.59
-43.21
-45.83
-48.34
-50.69
-53.00
-55.31
-57.41
-58.55
-57.60
-53.32
-44.91
-32.48
-17.07
-0.43
15.65
29.84
41.54
50.77
57.90
63.29
67.12
69.42
70.28
69.88
68.60
66.90
65.07
63.22
61.18
58.70
55.62
52.02
48.27
44.84
42.11
40.18
38.80
37.47
35.63
32.97
29.42
25.17
20.51
15.61
10.57
5.38
0.04
-5.42
-11.01
-16.88
-23.31
-30.52
-38.35
-46.17
-52.84
-57.09
-57.89
-54.94
-48.71
-40.23
-30.77
-21.40
-12.83
-5.38
0.87
5.93
9.82
12.47
13.92
14.25
13.69
12.51
11.03
9.48
7.99
6.55
5.15
3.74
2.31
0.89
-0.57
-2.16
-3.98
-6.01
-8.09
-9.99
-11.47
-12.45
-13.11
-13.81
-14.98
-16.98
-20.00
-24.04
-28.86
-33.99
-38.63
-41.73
-42.17
-39.13
-32.41
-22.60
-10.92
1.14
12.30
21.77
29.32
35.02
38.98
41.31
42.05
41.42
39.87
38.06
36.62
35.95
36.04
36.52
36.82
36.47
35.28
33.39
31.26
29.53
28.80
29.50
31.72
35.16
39.16
42.95
45.93
47.82
48.76
49.07
49.04
48.71
47.87
46.10
43.03
38.37
32.04
24.26
15.54
6.77
-0.92
-6.42
-9.05
-8.93
-6.97
-4.52
-2.77
-2.25
-2.66
-3.22
-3.15
-2.14
-0.39
1.66
3.71
5.74
7.91
10.29
12.62
14.33
14.76
13.55
10.80
7.10
3.24
-0.04
-2.36
-3.79
-4.81
-6.12
-8.37
-11.91
-16.70
-22.35
-28.25
-33.77
-38.51
-42.31
-45.32
-47.85
-50.35
-53.22
-56.68
-60.61
-64.52
-67.51
-68.54
-66.67
-61.43
-52.97
-41.99
-29.57
-16.79
-4.57
6.52
16.17
24.27
30.79
35.72
39.06
40.87
41.40
40.99
40.10
39.12
38.19
37.27
36.14
34.56
32.48
30.09
27.75
25.67
23.79
21.82
19.44
16.47
12.87
8.80
4.51
0.22
-3.92
-7.90
-11.85
-15.81
-19.96
-24.68
-30.45
-37.45
-45.47
-53.71
-60.91
-65.63
-66.38
-62.57
-55.03
-45.75
-36.84
-29.79
-25.02
-21.93
-19.21
-15.05
-9.09
-3.54
-2.42
-9.62
-27.50
-56.44
-95.47
-142.80
-194.91
-247.76
-296.82
-336.06
-357.72
-354.53
-322.85
-264.61
-186.09
-93.82
5.52
104.72
196.12
272.54
327.84
358.34
363.86
339.33
289.67
230.93
180.24
144.43
120.22
101.34
83.92
66.54
49.27
33.17
17.06
-3.21
-32.21
-71.55
-118.98
-164.19
-196.54
-207.45
-191.92
-151.19
-92.35
-25.09
41.84
101.96
150.63
183.34
196.72
190.57
167.98
134.81
98.46
66.11
42.63
29.73
25.93
28.56
35.56
45.60
57.40
69.30
79.40
85.88
87.39
83.09
73.14
58.74
41.54
23.25
5.47
-10.23
-22.40
-29.92
-32.60
-31.13
-26.98
-21.95
-17.62
-15.08
-14.77
-16.72
-20.73
-26.45
-33.35
-40.58
-47.09
-51.96
-54.75
-55.82
-56.28
-57.60
-60.91
-66.56
-73.96
-81.84
-88.87
-94.18
-97.49
-98.98
-98.88
-97.22
-93.79
-88.37
-81.02
-72.19
-62.77
-53.87
-46.59
-41.89
-40.25
-41.54
-44.85
-48.55
-50.56
-48.91
-42.31
-30.51
-14.48
3.85
22.05
37.79
49.45
56.41
59.12
58.90
57.43
56.32
56.85
59.59
64.56
71.14
78.34
84.94
89.87
92.49
92.80
91.38
89.09
86.68
84.39
81.85
78.29
72.92
65.36
55.92
45.62
35.99
28.63
24.65
24.30
26.70
30.03
31.96
30.57
25.06
16.17
6.08
-2.39
-6.70
-5.52
0.98
11.42
23.82
36.28
47.44
56.54
63.14
67.00
68.03
66.30
62.16
56.22
49.20
41.68
33.97
26.06
17.78
8.95
-0.38
-9.81
-18.65
-26.11
-31.64
-35.09
-36.88
-37.86
-38.91
-40.71
-43.44
-46.83
-50.33
-53.36
-55.63
-57.17
-58.33
-59.68
-61.90
-65.54
-70.78
-77.26
-83.94
-89.20
-91.19
-88.44
-80.32
-67.30
-50.90
-33.18
-16.13
-1.24
10.79
19.93
26.56
31.17
34.17
35.81
36.28
35.72
34.33
32.34
30.01
27.52
24.99
22.48
20.12
18.11
16.67
15.95
15.87
16.01
15.71
14.19
10.93
5.83
-0.67
-7.82
-14.72
-20.72
-25.62
-29.65
-33.41
-37.63
-42.92
-49.52
-57.07
-64.57
-70.48
-73.03
-70.66
-62.60
-49.16
-31.81
-12.69
5.92
22.26
35.41
45.21
52.06
56.54
59.12
60.14
59.84
58.50
56.42
53.93
51.31
48.62
45.75
42.44
38.47
33.83
28.88
24.15
20.26
17.50
15.74
14.46
12.93
10.60
7.19
2.80
-2.28
-7.64
-12.97
-18.10
-23.01
-27.89
-33.10
-39.08
-46.20
-54.45
-63.29
-71.54
-77.58
-79.71
-76.74
-68.40
-55.42
-39.44
-22.41
-6.14
8.11
19.66
28.28
34.01
37.01
37.64
36.44
34.15
31.48
28.98
26.80
24.82
22.66
20.02
16.79
13.12
9.38
5.91
3.03
0.81
-0.84
-2.20
-3.58
-5.19
-7.08
-9.09
-10.93
-12.31
-13.08
-13.29
-13.24
-13.41
-14.41
-16.75
-20.60
-25.49
-30.21
-33.02
-32.11
-26.35
-15.70
-1.32
14.83
30.71
44.77
56.30
65.21
71.75
76.13
78.43
78.65
76.96
73.78
69.70
65.26
60.82
56.42
51.86
46.90
41.42
35.52
29.52
23.77
18.52
13.79
9.34
4.77
-0.29
-6.02
-12.32
-18.79
-24.93
-30.29
-34.66
-38.13
-41.14
-44.30
-48.22
-53.33
-59.65
-66.70
-73.39
-78.23
-79.54
-75.99
-67.09
-53.50
-36.93
-19.72
-4.04
8.68
18.10
24.70
29.36
32.80
35.33
36.92
37.45
36.99
35.85
34.41
32.99
31.66
30.26
28.55
26.36
23.73
20.97
18.46
16.58
15.41
14.78
14.19
13.07
10.97
7.72
3.50
-1.15
-5.72
-9.89
-13.57
-16.99
-20.51
-24.52
-29.39
-35.46
-42.88
-51.43
-60.34
-68.19
-73.19
-73.58
-68.32
-57.46
-42.20
-24.55
-6.69
9.59
23.17
33.51
40.51
44.26
45.09
43.53
40.45
36.82
33.44
30.73
28.58
26.55
24.22
21.35
18.11
14.83
11.80
9.25
7.21
5.64
4.49
3.65
2.94
1.99
0.41
-2.13
-5.71
-10.14
-14.99
-19.85
-24.38
-28.54
-32.41
-36.26
-40.40
-45.18
-50.87
-57.57
-64.90
-71.93
-77.24
-79.25
-76.57
-68.52
-55.26
-37.75
-17.36
4.42
26.31
47.19
66.12
82.13
94.43
102.53
106.48
106.98
105.19
102.49
99.99
98.41
97.91
98.18
98.69
98.78
97.89
95.68
91.97
86.91
80.88
74.50
68.36
63.06
58.91
55.89
53.65
51.60
49.08
45.55
40.77
34.73
27.65
19.73
11.08
1.56
-9.10
-21.23
-35.09
-50.74
-67.85
-85.54
-102.36
-116.31
-125.27
-127.55
-122.45
-110.55
-93.59
-73.85
-53.60
-34.57
-17.84
-3.97
6.64
13.72
17.13
17.11
14.39
10.14
5.70
2.23
0.43
0.55
2.38
5.38
8.88
12.17
14.61
15.74
15.27
12.95
8.53
1.58
-8.32
-21.39
-37.35
-55.39
-74.32
-93.00
-110.77
-127.67
-144.27
-161.40
-179.65
-198.94
-218.15
-235.07
-246.58
-249.26
-240.35
-218.75
-185.67
-144.50
-100.13
-57.55
-20.79
7.83
27.65
39.21
43.81
42.99
38.50
32.06
25.27
19.25
14.46
10.68
7.19
3.20
-1.75
-7.64
-13.94
-19.89
-24.77
-28.12
-29.87
-30.31
-29.91
-29.16
-28.39
-27.67
-26.83
-25.64
-23.83
-21.32
-18.23
-14.79
-11.40
-8.43
-6.28
-5.31
-5.74
-7.56
-10.33
-13.02
-14.12
-11.93
-5.13
6.75
23.03
42.01
61.61
79.81
95.19
107.03
115.06
119.21
119.38
115.62
108.33
98.50
87.54
76.95
67.81
60.45
54.49
49.19
43.94
38.59
33.50
29.31
26.57
25.51
25.93
27.32
29.01
30.30
30.61
29.44
26.53
21.91
16.00
9.43
3.00
-2.58
-6.82
-9.55
-10.87
-11.17
-11.13
-11.59
-13.33
-16.71
-21.32
-25.84
-28.35
-26.94
-20.45
-8.90
6.40
23.35
39.74
53.78
64.58
71.91
76.10
77.65
77.12
74.97
71.67
67.66
63.36
59.03
54.78
50.49
45.90
40.75
34.94
28.59
22.04
15.81
10.35
5.81
2.06
-1.34
-4.95
-9.19
-14.19
-19.73
-25.33
-30.50
-34.88
-38.43
-41.35
-44.10
-47.16
-51.05
-56.09
-62.32
-69.28
-75.92
-80.68
-81.86
-78.06
-68.73
-54.34
-36.31
-16.60
2.86
20.55
35.59
47.55
56.37
62.10
64.91
65.16
63.43
60.44
56.88
53.21
49.53
45.67
41.40
36.63
31.55
26.62
22.32
18.92
16.41
14.47
12.55
10.07
6.56
1.82
-4.03
-10.57
-17.16
-23.23
-28.45
-32.93
-37.20
-42.11
-48.55
-57.11
-67.69
-79.32
-90.13
-97.74
-99.86
-95.07
-83.36
-66.16
-45.95
-25.47
-6.89
8.61
20.80
30.07
37.02
42.13
45.76
48.20
49.72
50.64
51.12
51.17
50.64
49.30
46.92
43.48
39.14
34.23
29.19
24.43
20.26
16.77
13.82
11.01
7.88
4.02
-0.72
-6.16
-11.90
-17.46
-22.52
-27.05
-31.25
-35.48
-40.12
-45.59
-52.27
-60.41
-69.89
-79.89
-88.71
-94.10
-93.81
-86.54
-72.44
-53.13
-31.20
-9.33
10.46
27.11
40.42
50.64
58.15
63.24
66.22
67.45
67.33
66.39
65.00
63.39
61.61
59.54
57.06
54.07
50.64
46.97
43.28
39.75
36.44
33.18
29.71
25.63
20.71
14.79
7.96
0.56
-6.93
-13.94
-19.94
-24.63
-28.00
-30.35
-32.28
-34.56
-37.98
-43.07
-49.91
-57.73
-65.10
-69.96
-70.33
-64.89
-53.52
-37.28
-18.20
1.45
19.79
35.66
48.55
58.41
65.34
69.42
70.73
69.51
66.25
61.61
56.22
50.56
44.80
38.90
32.77
26.43
20.19
14.56
10.05
7.00
5.31
4.43
3.48
1.65
-1.57
-6.24
-11.93
-17.97
-23.73
-28.82
-33.22
-37.25
-41.53
-46.75
-53.52
-61.96
-71.44
-80.36
-86.49
-87.58
-82.09
-69.86
-52.16
-31.36
-10.07
9.54
26.15
39.36
49.25
56.17
60.38
62.20
62.07
60.56
58.36
56.01
53.76
51.48
48.80
45.39
41.17
36.43
31.68
27.45
24.09
21.55
19.39
16.92
13.42
8.36
1.59
-6.55
-15.32
-23.92
-31.61
-38.06
-43.36
-47.98
-52.58
-57.92
-64.59
-72.79
-82.02
-90.95
-97.51
-99.41
-94.90
-83.40
-65.87
-44.49
-21.97
-0.75
17.60
32.45
43.91
52.33
58.11
61.58
63.13
63.17
62.25
60.88
59.35
57.65
55.56
52.79
49.12
44.59
39.53
34.43
29.83
26.06
23.18
20.87
18.55
15.60
11.52
6.24
0.04
-6.53
-12.92
-18.76
-23.99
-28.91
-34.01
-39.86
-46.97
-55.60
-65.64
-76.36
-86.38
-93.87
-96.91
-94.07
-84.93
-70.26
-51.87
-32.05
-12.94
3.93
17.74
28.39
36.18
41.61
45.26
47.65
49.25
50.44
51.40
52.13
52.36
51.74
49.91
46.74
42.46
37.64
33.05
29.33
26.73
24.99
23.43
21.27
17.93
13.30
7.69
1.65
-4.26
-9.62
-14.31
-18.52
-22.71
-27.52
-33.62
-41.31
-50.36
-59.72
-67.67
-72.25
-71.80
-65.51
-53.64
-37.45
-18.83
0.27
18.19
33.75
46.35
55.74
61.96
65.20
65.81
64.33
61.44
57.94
54.48
51.46
48.91
46.55
44.03
41.08
37.68
33.98
30.23
26.55
22.85
18.91
14.49
9.50
4.05
-1.59
-7.14
-12.44
-17.52
-22.62
-28.15
-34.55
-42.18
-51.20
-61.29
-71.53
-80.36
-85.85
-86.20
-80.27
-68.12
-51.07
-31.26
-11.04
7.65
23.69
36.68
46.82
54.42
59.82
63.29
65.07
65.44
64.70
63.07
60.70
57.63
53.83
49.31
44.15
38.62
33.10
28.06
23.86
20.65
18.24
16.04
13.34
9.49
4.27
-2.12
-9.03
-15.66
-21.41
-26.07
-29.88
-33.49
-37.71
-43.33
-50.89
-60.38
-71.05
-81.35
-89.22
-92.50
-89.68
-80.34
-65.38
-46.74
-26.83
-7.83
8.71
22.10
32.37
39.99
45.50
49.37
51.94
53.49
54.22
54.30
53.89
52.96
51.46
49.28
46.42
42.97
39.14
35.24
31.62
28.59
26.30
24.64
23.22
21.40
18.51
14.12
8.24
1.28
-6.08
-13.23
-19.84
-25.88
-31.64
-37.55
-44.08
-51.69
-60.60
-70.63
-80.89
-89.79
-95.30
-95.53
-89.45
-77.23
-60.31
-40.86
-21.18
-3.07
12.45
24.96
34.59
41.61
46.39
49.38
51.02
51.74
51.83
51.38
50.34
48.54
45.79
42.08
37.55
32.53
27.50
23.01
19.51
17.23
16.05
15.48
14.81
13.25
10.29
5.81
0.16
-6.04
-12.08
-17.44
-21.94
-25.72
-29.14
-32.79
-37.29
-43.15
-50.51
-58.85
-66.92
-72.88
-74.78
-71.20
-61.77
-47.28
-29.48
-10.52
7.66
23.61
36.56
46.24
52.74
56.36
57.51
56.73
54.66
51.94
49.04
46.28
43.60
40.79
37.55
33.74
29.51
25.23
21.39
18.38
16.27
14.81
13.52
11.84
9.28
5.54
0.61
-5.21
-11.46
-17.55
-23.04
-27.73
-31.81
-35.79
-40.35
-46.14
-53.51
-62.16
-71.03
-78.39
-82.19
-80.70
-73.15
-59.92
-42.55
-23.15
-3.86
13.65
28.28
39.52
47.28
51.85
53.84
54.11
53.51
52.70
51.90
51.00
49.67
47.65
44.93
41.70
38.22
34.61
30.88
26.97
22.89
18.79
14.91
11.49
8.52
5.78
2.82
-0.82
-5.41
-10.84
-16.72
-22.48
-27.66
-32.08
-35.94
-39.71
-43.90
-49.00
-55.30
-62.87
-71.36
-79.80
-86.73
-90.31
-88.86
-81.50
-68.49
-51.29
-32.02
-12.89
4.39
18.81
30.04
38.14
43.44
46.41
47.70
47.95
47.75
47.45
47.08
46.46
45.30
43.39
40.66
37.24
33.41
29.52
25.88
22.70
20.01
17.64
15.35
12.93
10.23
7.15
3.61
-0.52
-5.32
-10.77
-16.64
-22.57
-28.10
-32.98
-37.19
-40.97
-44.81
-49.32
-55.04
-62.22
-70.57
-79.09
-86.08
-89.58
-87.92
-80.28
-67.03
-49.61
-30.07
-10.47
7.48
22.70
34.68
43.43
49.30
52.86
54.78
55.61
55.69
55.12
53.80
51.54
48.22
43.91
38.84
33.47
28.35
23.99
20.72
18.60
17.37
16.55
15.65
14.26
12.11
9.16
5.46
1.15
-3.59
-8.49
-13.30
-17.73
-21.65
-25.10
-28.38
-32.02
-36.62
-42.59
-49.88
-57.78
-64.91
-69.50
-69.85
-64.88
-54.43
-39.42
-21.59
-3.04
14.22
28.76
39.88
47.58
52.29
54.59
54.99
53.92
51.68
48.61
45.13
41.66
38.55
35.82
33.29
30.53
27.26
23.48
19.54
16.04
13.46
11.99
11.31
10.78
9.61
7.24
3.54
-1.24
-6.59
-11.99
-17.08
-21.73
-26.01
-30.20
-34.72
-40.10
-46.86
-55.17
-64.64
-74.08
-81.66
-85.43
-83.84
-76.33
-63.51
-46.98
-28.74
-10.77
5.44
18.98
29.52
37.12
42.17
45.21
46.87
47.68
48.00
47.99
47.62
46.81
45.45
43.49
40.92
37.79
34.21
30.31
26.31
22.53
19.21
16.53
14.40
12.49
10.26
7.17
2.90
-2.47
-8.49
-14.54
-20.06
-24.81
-28.90
-32.72
-36.74
-41.40
-46.99
-53.64
-61.20
-69.14
-76.38
-81.42
-82.62
-78.65
-69.00
-54.18
-35.74
-15.78
3.46
20.20
33.38
42.74
48.65
51.86
53.29
53.71
53.61
53.25
52.64
51.67
50.24
48.32
45.91
43.09
39.96
36.60
33.14
29.75
26.65
24.01
21.82
19.88
17.81
15.18
11.67
7.17
1.73
-4.48
-11.25
-18.34
-25.38
-31.97
-37.82
-42.79
-47.16
-51.49
-56.61
-63.15
-71.31
-80.47
-89.14
-95.21
-96.56
-91.72
-80.52
-64.09
-44.60
-24.51
-5.83
10.22
23.26
33.44
41.09
46.49
49.83
51.33
51.30
50.16
48.37
46.35
44.32
42.28
40.08
37.50
34.43
31.06
27.72
24.89
22.81
21.42
20.34
18.99
16.92
13.83
9.67
4.69
-0.82
-6.48
-11.96
-16.99
-21.43
-25.32
-28.89
-32.65
-37.14
-42.76
-49.39
-56.26
-61.92
-64.64
-62.88
-55.87
-43.92
-28.37
-11.13
5.82
20.97
33.52
43.28
50.50
55.49
58.53
59.86
59.69
58.40
56.45
54.27
52.11
49.90
47.31
43.90
39.39
33.90
27.84
21.86
16.57
12.25
8.82
5.84
2.74
-0.98
-5.58
-10.97
-16.79
-22.52
-27.75
-32.24
-36.16
-39.94
-44.24
-49.70
-56.69
-65.06
-73.93
-81.82
-86.87
-87.35
-82.22
-71.42
-56.00
-37.73
-18.58
-0.25
16.09
29.86
40.88
49.13
54.69
57.75
58.65
57.84
55.86
53.22
50.25
47.11
43.80
40.28
36.47
32.45
28.32
24.27
20.57
17.42
14.94
13.03
11.39
9.55
7.10
3.80
-0.31
-4.95
-9.76
-14.47
-19.01
-23.50
-28.27
-33.70
-40.16
-47.90
-56.98
-66.94
-76.77
-84.89
-89.43
-88.73
-81.88
-69.12
-51.77
-31.97
-12.06
6.05
21.18
32.98
41.73
48.00
52.29
55.03
56.46
56.81
56.26
55.02
53.27
51.11
48.56
45.58
42.17
38.42
34.46
30.55
26.92
23.70
20.86
18.15
15.20
11.55
6.90
1.18
-5.37
-12.34
-19.24
-25.68
-31.44
-36.49
-40.92
-44.92
-48.80
-52.96
-57.87
-63.78
-70.53
-77.26
-82.50
-84.46
-81.64
-73.33
-60.02
-43.30
-25.28
-8.01
7.05
19.29
28.80
36.03
41.45
45.40
48.01
49.36
49.52
48.69
47.09
44.93
42.34
39.34
35.94
32.26
28.52
25.06
22.27
20.41
19.46
19.02
18.47
17.19
14.81
11.32
7.11
2.75
-1.27
-4.74
-7.78
-10.81
-14.36
-19.00
-25.10
-32.77
-41.58
-50.51
-57.99
-62.29
-61.94
-56.26
-45.63
-31.27
-14.94
1.58
16.87
29.94
40.26
47.62
52.12
54.14
54.31
53.29
51.71
49.89
47.92
45.68
43.01
39.83
36.16
32.10
27.79
23.42
19.15
15.19
11.75
8.84
6.30
3.69
0.58
-3.49
-8.62
-14.58
-20.86
-26.83
-31.98
-36.19
-39.66
-43.08
-47.30
-53.14
-60.94
-70.26
-79.68
-87.07
-90.14
-87.17
-77.63
-62.36
-43.30
-22.83
-3.17
14.08
28.08
38.64
46.00
50.63
53.15
54.17
54.25
53.77
52.98
51.87
50.32
48.15
45.21
41.46
37.13
32.66
28.63
25.58
23.80
23.19
23.31
23.49
23.12
21.74
19.14
15.33
10.43
4.73
-1.48
-7.88
-14.20
-20.34
-26.41
-32.74
-39.81
-48.11
-57.86
-68.74
-79.72
-89.04
-94.64
-94.63
-88.09
-75.42
-58.23
-38.85
-19.67
-2.39
12.06
23.53
32.20
38.33
42.26
44.29
44.85
44.45
43.52
42.36
41.03
39.51
37.74
35.72
33.47
31.07
28.64
26.38
24.54
23.39
23.03
23.23
23.46
22.98
21.07
17.35
11.89
5.22
-1.91
-8.74
-14.81
-20.00
-24.55
-28.91
-33.69
-39.49
-46.83
-55.82
-66.02
-76.21
-84.51
-88.78
-87.30
-79.32
-65.38
-47.15
-26.94
-7.07
10.69
25.22
36.11
43.43
47.58
49.14
48.81
47.27
45.19
43.07
41.19
39.63
38.26
36.82
35.10
33.02
30.76
28.71
27.23
26.46
26.14
25.59
24.10
21.11
16.58
10.93
4.76
-1.37
-7.19
-12.68
-18.02
-23.43
-29.20
-35.73
-43.33
-52.01
-61.14
-69.29
-74.50
-74.89
-69.34
-58.04
-42.38
-24.54
-6.73
9.45
23.23
34.58
43.74
50.98
56.33
59.67
61.03
60.68
59.19
57.19
55.18
53.23
51.04
48.17
44.32
39.53
34.21
28.91
24.08
19.83
15.94
11.97
7.46
2.19
-3.77
-10.10
-16.37
-22.17
-27.22
-31.48
-35.12
-38.56
-42.35
-47.15
-53.43
-61.26
-70.04
-78.41
-84.44
-86.20
-82.28
-72.37
-57.35
-39.00
-19.55
-0.92
15.60
29.56
41.09
50.52
58.11
63.82
67.45
68.83
68.07
65.58
62.01
57.92
53.64
49.14
44.22
38.79
32.96
27.15
21.83
17.40
13.87
10.93
7.96
4.35
-0.29
-5.92
-12.08
-18.05
-23.21
-27.25
-30.30
-32.90
-35.67
-39.26
-44.08
-50.36
-58.03
-66.60
-75.01
-81.71
-84.90
-83.08
-75.60
-62.93
-46.55
-28.54
-10.89
4.94
18.23
28.89
37.22
43.53
48.09
50.98
52.23
51.98
50.47
48.04
45.02
41.62
37.90
33.89
29.78
25.89
22.69
20.60
19.72
19.73
20.01
19.77
18.37
15.45
11.08
5.72
0.00
-5.48
-10.36
-14.64
-18.77
-23.41
-29.31
-37.00
-46.50
-57.19
-67.70
-76.17
-80.66
-79.69
-72.70
-60.20
-43.64
-24.95
-6.03
11.56
26.81
39.18
48.46
54.81
58.56
60.26
60.47
59.66
58.13
55.99
53.23
49.80
45.71
40.97
35.75
30.36
25.22
20.81
17.39
14.92
12.92
10.72
7.67
3.43
-1.91
-7.91
-13.98
-19.67
-24.76
-29.43
-34.10
-39.39
-45.94
-54.14
-63.82
-74.02
-82.97
-88.43
-88.25
-81.25
-67.59
-48.88
-27.62
-6.47
12.52
28.21
40.29
48.94
54.49
57.34
57.99
57.19
55.78
54.48
53.64
53.07
52.24
50.57
47.76
43.88
39.41
34.86
30.69
27.13
24.22
21.82
19.62
17.27
14.32
10.40
5.33
-0.82
-7.76
-15.06
-22.28
-29.05
-35.16
-40.63
-45.79
-51.23
-57.60
-65.16
-73.38
-80.81
-85.36
-84.96
-78.39
-65.78
-48.61
-29.19
-9.90
7.38
21.65
32.61
40.43
45.45
48.08
48.79
48.06
46.49
44.67
43.03
41.75
40.75
39.77
38.48
36.69
34.45
32.01
29.67
27.66
26.09
24.77
23.39
21.51
18.77
14.82
9.60
3.24
-3.87
-11.27
-18.55
-25.43
-31.83
-37.90
-43.89
-50.12
-56.94
-64.61
-73.06
-81.68
-89.23
-93.95
-94.01
-88.16
-76.21
-59.18
-39.03
-18.04
1.75
19.03
33.20
44.18
52.14
57.36
60.09
60.61
59.37
56.89
53.74
50.42
47.22
44.17
41.11
37.81
34.22
30.55
27.21
24.61
22.89
21.81
20.72
18.92
15.93
11.76
6.86
1.92
-2.54
-6.43
-10.05
-13.99
-18.87
-25.10
-32.84
-41.86
-51.52
-60.63
-67.62
-70.75
-68.67
-60.80
-47.66
-30.87
-12.60
4.95
20.14
32.13
40.84
46.71
50.31
52.16
52.56
51.71
49.76
46.94
43.63
40.24
37.07
34.18
31.49
28.81
26.08
23.44
21.14
19.36
18.11
17.01
15.49
12.90
8.86
3.37
-3.18
-10.11
-16.68
-22.38
-27.02
-30.84
-34.40
-38.46
-43.74
-50.71
-59.29
-68.80
-77.84
-84.61
-87.26
-84.44
-75.74
-61.85
-44.36
-25.37
-6.91
9.43
22.77
32.97
40.35
45.52
49.08
51.46
52.86
53.33
52.85
51.51
49.47
47.00
44.27
41.24
37.80
33.84
29.45
25.03
21.10
18.13
16.14
14.74
13.20
10.79
7.09
2.17
-3.51
-9.37
-14.93
-19.99
-24.57
-28.90
-33.26
-38.03
-43.74
-50.89
-59.65
-69.50
-79.03
-86.16
-88.70
-85.09
-75.01
-59.54
-40.69
-20.87
-2.16
14.03
27.06
36.85
43.65
47.91
50.14
50.90
50.70
49.97
48.93
47.67
46.13
44.20
41.76
38.77
35.36
31.67
27.97
24.50
21.45
18.92
16.82
14.84
12.52
9.33
4.86
-0.95
-7.75
-14.86
-21.47
-26.95
-31.08
-34.14
-36.76
-39.77
-43.93
-49.66
-56.94
-65.12
-73.00
-78.92
-81.19
-78.52
-70.43
-57.46
-41.06
-23.13
-5.48
10.54
24.20
35.27
43.76
49.78
53.51
55.23
55.41
54.58
53.12
51.18
48.66
45.38
41.27
36.56
31.66
27.07
23.18
20.14
17.86
15.99
14.13
11.81
8.70
4.66
-0.15
-5.36
-10.45
-15.09
-19.18
-22.95
-26.94
-31.80
-38.10
-46.08
-55.33
-64.71
-72.39
-76.34
-74.95
-67.58
-54.90
-38.59
-20.83
-3.59
11.81
24.81
35.34
43.53
49.54
53.49
55.56
56.07
55.49
54.30
52.87
51.39
49.79
47.89
45.51
42.53
39.05
35.27
31.47
27.90
24.60
21.45
18.15
14.38
9.91
4.69
-1.07
-7.12
-13.20
-19.17
-25.06
-30.98
-37.09
-43.62
-50.83
-59.07
-68.52
-78.96
-89.44
-98.23
-103.14
-102.18
-94.35
-80.05
-61.08
-39.99
-19.31
-0.90
14.34
26.36
35.50
42.16
46.67
49.18
49.92
49.21
47.53
45.36
43.03
40.62
37.95
34.82
31.14
27.12
23.27
20.14
18.13
17.24
17.16
17.38
17.43
17.00
16.00
14.50
12.70
10.79
8.99
7.42
5.99
4.40
2.04
-1.85
-8.04
-17.07
-28.89
-42.75
-57.00
-69.39
-77.54
-79.64
-75.08
-64.66
-50.26
-34.17
-18.33
-3.96
8.52
19.05
27.66
34.24
38.78
41.40
42.62
43.05
43.25
43.36
43.20
42.31
40.21
36.73
32.10
26.93
22.01
18.09
15.57
14.38
13.93
13.36
11.76
8.55
3.71
-2.30
-8.66
-14.58
-19.61
-23.82
-27.72
-32.09
-37.62
-44.76
-53.41
-63.00
-72.42
-80.19
-84.62
-84.21
-78.01
-66.07
-49.44
-30.12
-10.42
7.58
22.52
33.89
41.89
47.06
50.08
51.51
51.85
51.51
50.80
49.91
48.85
47.44
45.44
42.73
39.38
35.66
31.98
28.67
25.79
23.10
20.11
16.31
11.38
5.34
-1.43
-8.33
-14.81
-20.52
-25.40
-29.77
-34.19
-39.40
-45.91
-53.81
-62.40
-70.19
-75.22
-75.66
-70.50
-59.88
-45.06
-27.99
-10.64
5.45
19.36
30.70
39.46
45.77
49.84
51.98
52.58
52.10
50.99
49.61
48.19
46.73
45.05
42.89
40.04
36.46
32.36
28.14
24.14
20.55
17.22
13.82
9.95
5.39
0.17
-5.45
-11.11
-16.53
-21.60
-26.38
-31.06
-35.90
-41.25
-47.58
-55.30
-64.51
-74.63
-84.19
-91.00
-92.75
-87.84
-76.03
-58.60
-37.98
-16.90
2.48
18.93
32.16
42.43
50.09
55.37
58.38
59.33
58.59
56.67
54.06
51.14
48.04
44.73
41.12
37.23
33.18
29.19
25.56
22.52
20.16
18.35
16.77
14.94
12.44
8.94
4.44
-0.82
-6.42
-11.94
-17.07
-21.75
-26.14
-30.51
-35.31
-40.95
-47.76
-55.85
-64.86
-73.86
-81.29
-85.30
-84.24
-77.26
-64.68
-47.94
-29.23
-10.79
5.67
19.30
29.99
38.01
43.75
47.49
49.39
49.65
48.66
46.94
44.95
43.01
41.12
39.09
36.68
33.81
30.62
27.42
24.62
22.49
21.11
20.24
19.40
18.02
15.60
11.87
6.94
1.26
-4.60
-10.15
-15.11
-19.51
-23.65
-27.95
-32.84
-38.71
-45.82
-54.12
-63.06
-71.47
-77.74
-80.05
-77.04
-68.24
-54.31
-36.93
-18.24
-0.29
15.49
28.45
38.58
46.19
51.64
55.19
57.06
57.51
56.94
55.79
54.42
52.95
51.27
49.09
46.21
42.69
38.87
35.24
32.18
29.78
27.66
25.10
21.38
16.08
9.30
1.63
-5.99
-12.83
-18.51
-23.23
-27.57
-32.32
-38.22
-45.69
-54.66
-64.48
-73.80
-80.86
-83.76
-81.06
-72.25
-58.01
-40.12
-20.86
-2.45
13.57
26.50
36.38
43.65
48.79
52.14
53.86
54.10
53.04
50.99
48.29
45.20
41.74
37.79
33.23
28.07
22.65
17.38
12.69
8.65
5.02
1.22
-3.32
-8.95
-15.69
-23.25
-31.12
-38.70
-45.45
-50.96
-55.06
-57.97
-60.36
-63.22
-67.55
-73.87
-81.87
-90.18
-96.72
-99.20
-95.93
-86.27
-70.85
-51.30
-29.69
-8.08
11.92
29.22
43.34
54.10
61.60
66.12
68.16
68.36
67.52
66.41
65.55
65.15
65.03
64.76
63.87
62.10
59.46
56.27
53.00
50.05
47.61
45.57
43.49
40.77
36.81
31.25
24.06
15.61
6.46
-2.82
-11.76
-20.12
-27.93
-35.46
-43.19
-51.64
-61.07
-71.12
-80.62
-87.73
-90.37
-86.96
-77.06
-61.61
-42.60
-22.46
-3.29
13.54
27.43
38.36
46.47
51.98
55.16
56.42
56.26
55.27
53.78
51.84
49.20
45.57
40.81
35.13
29.08
23.41
18.76
15.45
13.31
11.71
9.77
6.71
2.14
-3.77
-10.42
-17.00
-22.92
-28.10
-32.92
-38.04
-44.09
-51.39
-59.74
-68.31
-75.78
-80.51
-80.94
-75.97
-65.38
-49.94
-31.31
-11.59
7.14
23.38
36.35
45.95
52.53
56.62
58.74
59.27
58.54
56.78
54.19
50.93
47.06
42.63
37.67
32.25
26.59
21.07
16.13
12.09
8.92
6.22
3.32
-0.51
-5.68
-12.10
-19.25
-26.42
-32.95
-38.56
-43.37
-47.87
-52.78
-58.89
-66.64
-75.81
-85.31
-93.22
-97.18
-95.24
-86.51
-71.60
-52.31
-31.14
-10.44
8.15
23.81
36.31
45.73
52.26
56.17
57.90
58.11
57.54
56.88
56.45
56.22
55.75
54.51
52.02
48.22
43.51
38.63
34.36
31.14
28.92
27.03
24.57
20.76
15.31
8.51
1.12
-6.04
-12.45
-18.03
-23.16
-28.52
-34.87
-42.73
-52.23
-62.88
-73.48
-82.17
-86.87
-85.83
-78.26
-64.64
-46.68
-26.79
-7.33
10.04
24.48
36.00
44.90
51.56
56.27
59.21
60.60
60.81
60.23
59.24
57.96
56.33
54.02
50.66
46.00
40.08
33.30
26.36
19.95
14.52
10.06
6.09
1.89
-3.20
-9.47
-16.71
-24.34
-31.64
-38.08
-43.54
-48.36
-53.22
-58.97
-66.28
-75.45
-86.13
-97.23
-107.00
-113.40
-114.56
-109.35
-97.68
-80.66
-60.32
-39.04
-19.02
-1.75
12.14
22.83
30.92
37.13
42.04
46.00
49.17
51.63
53.42
54.54
54.86
54.14
52.20
49.09
45.22
41.26
37.88
35.50
34.08
33.21
32.23
30.55
27.77
23.83
18.93
13.46
7.83
2.37
-2.90
-8.32
-14.58
-22.37
-32.03
-42.99
-53.66
-61.67
-64.57
-60.65
-49.52
-32.33
-11.35
10.76
31.62
49.62
63.96
74.42
81.14
84.38
84.60
82.43
78.72
74.34
69.98
65.97
62.21
58.30
53.85
48.62
42.83
36.97
31.67
27.33
23.90
20.86
17.34
12.54
6.09
-1.82
-10.50
-19.09
-26.82
-33.39
-38.95
-43.91
-48.94
-54.72
-61.84
-70.40
-79.89
-88.91
-95.42
-97.26
-92.84
-81.83
-65.29
-45.32
-24.45
-4.85
12.01
25.48
35.47
42.26
46.30
48.26
48.87
48.90
48.88
49.02
49.11
48.71
47.33
44.64
40.59
35.51
29.96
24.67
20.24
16.93
14.53
12.45
9.92
6.28
1.22
-5.10
-12.15
-19.21
-25.67
-31.23
-36.08
-40.79
-46.19
-52.99
-61.54
-71.41
-81.34
-89.47
-93.71
-92.46
-85.05
-72.01
-54.80
-35.38
-15.67
2.86
19.21
32.79
43.24
50.44
54.56
56.11
55.83
54.48
52.54
50.18
47.30
43.81
39.77
35.41
31.08
27.09
23.60
20.64
18.16
16.04
14.08
11.96
9.33
5.91
1.62
-3.38
-8.72
-13.98
-18.84
-23.16
-27.08
-30.98
-35.44
-41.06
-48.20
-56.70
-65.53
-72.97
-76.98
-75.82
-68.70
-56.09
-39.48
-20.97
-2.58
14.11
28.14
38.98
46.45
50.59
51.71
50.37
47.44
43.81
40.27
37.27
34.90
32.94
31.03
28.88
26.40
23.66
20.88
18.20
15.58
12.80
9.53
5.53
0.84
-4.27
-9.32
-13.91
-17.80
-21.13
-24.32
-28.04
-32.98
-39.63
-48.02
-57.51
-66.76
-73.91
-77.01
-74.59
-66.19
-52.50
-35.26
-16.66
1.20
16.85
29.57
39.32
46.41
51.26
54.20
55.55
55.68
55.00
53.94
52.70
51.22
49.19
46.26
42.23
37.28
31.98
27.04
23.06
20.27
18.37
16.61
14.07
9.99
4.12
-3.22
-11.28
-19.17
-26.19
-32.06
-36.98
-41.52
-46.53
-52.85
-60.99
-70.79
-81.19
-90.19
-95.25
-94.15
-85.70
-70.32
-49.93
-27.40
-5.59
13.40
28.59
39.93
47.86
52.99
55.76
56.57
55.79
53.90
51.39
48.64
45.89
43.06
39.92
36.23
31.93
27.23
22.62
18.69
15.90
14.30
13.54
12.84
11.36
8.44
3.89
-1.98
-8.51
-14.96
-20.72
-25.55
-29.59
-33.32
-37.36
-42.35
-48.83
-56.94
-66.25
-75.46
-82.57
-85.35
-82.01
-71.98
-56.14
-36.65
-16.17
2.94
19.24
32.20
41.95
48.86
53.22
55.27
55.34
53.93
51.67
49.09
46.51
43.93
41.16
37.94
34.18
30.05
25.97
22.45
19.93
18.50
17.84
17.26
15.92
13.16
8.74
2.88
-3.80
-10.57
-16.82
-22.30
-27.12
-31.70
-36.57
-42.20
-48.82
-56.19
-63.56
-69.61
-72.76
-71.54
-65.00
-53.13
-36.94
-18.24
0.82
18.29
32.74
43.51
50.59
54.35
55.35
54.23
51.52
47.79
43.55
39.23
35.11
31.28
27.68
24.17
20.67
17.21
13.90
10.89
8.18
5.70
3.25
0.64
-2.26
-5.44
-8.84
-12.33
-15.93
-19.71
-23.99
-29.23
-35.93
-44.33
-54.07
-64.02
-72.28
-76.61
-75.17
-67.14
-53.16
-35.06
-15.35
3.65
20.40
34.26
45.29
53.72
59.72
63.38
64.84
64.49
62.96
60.88
58.63
56.21
53.31
49.55
44.79
39.29
33.60
28.38
24.10
20.87
18.29
15.63
12.03
6.90
0.18
-7.61
-15.56
-22.70
-28.44
-32.74
-36.15
-39.57
-44.00
-50.32
-58.93
-69.59
-81.15
-91.70
-98.82
-100.25
-94.63
-81.97
-63.66
-42.03
-19.71
1.12
19.01
33.39
44.27
52.02
57.12
60.05
61.27
61.18
60.19
58.60
56.53
54.01
50.91
47.11
42.54
37.39
32.04
26.96
22.63
19.27
16.74
14.61
12.25
9.04
4.62
-0.99
-7.34
-13.80
-19.75
-24.86
-29.23
-33.42
-38.24
-44.44
-52.40
-61.82
-71.59
-79.91
-84.69
-84.20
-77.56
-65.13
-48.41
-29.55
-10.82
6.07
20.06
30.87
38.66
43.82
46.85
48.31
48.74
48.64
48.36
48.04
47.59
46.76
45.21
42.69
39.13
34.70
29.82
25.05
20.83
17.41
14.68
12.20
9.39
5.77
1.07
-4.64
-10.99
-17.39
-23.23
-28.01
-31.60
-34.28
-36.77
-40.02
-44.96
-52.02
-61.00
-70.78
-79.53
-85.09
-85.55
-79.84
-68.11
-51.63
-32.48
-12.83
5.46
21.24
34.03
43.77
50.61
54.85
56.93
57.43
56.98
56.16
55.20
53.98
52.06
49.02
44.68
39.25
33.31
27.59
22.64
18.73
15.72
13.12
10.36
6.90
2.52
-2.71
-8.35
-13.81
-18.56
-22.40
-25.50
-28.38
-31.80
-36.51
-42.97
-50.98
-59.54
-66.90
-70.97
-69.89
-62.81
-50.13
-33.39
-14.77
3.58
20.09
33.90
44.74
52.65
57.82
60.53
61.19
60.29
58.44
56.19
53.89
51.69
49.46
46.86
43.59
39.53
34.91
30.24
26.12
22.91
20.56
18.48
15.88
12.10
6.92
0.57
-6.32
-13.12
-19.41
-25.13
-30.46
-35.81
-41.63
-48.42
-56.46
-65.66
-75.26
-83.73
-89.06
-89.36
-83.40
-71.27
-54.27
-34.59
-14.56
3.91
19.62
32.08
41.35
47.62
51.30
52.80
52.65
51.44
49.72
47.96
46.34
44.81
43.12
40.98
38.23
34.90
31.26
27.68
24.44
21.58
18.94
16.13
12.69
8.26
2.74
-3.72
-10.71
-17.75
-24.41
-30.47
-35.95
-41.07
-46.29
-52.13
-58.99
-66.96
-75.47
-83.31
-88.67
-89.70
-85.15
-74.74
-59.45
-41.14
-21.98
-3.89
11.88
24.78
34.73
41.93
46.69
49.34
50.34
50.26
49.67
48.95
48.32
47.70
46.95
45.94
44.56
42.80
40.64
38.09
35.17
31.96
28.59
25.11
21.45
17.29
12.26
6.04
-1.39
-9.60
-17.86
-25.40
-31.72
-36.79
-41.04
-45.23
-50.23
-56.61
-64.44
-73.05
-81.08
-86.66
-87.89
-83.47
-73.09
-57.63
-38.96
-19.34
-0.87
15.02
27.68
37.10
43.62
47.68
49.74
50.27
49.75
48.68
47.51
46.51
45.65
44.72
43.35
41.32
38.64
35.64
32.78
30.47
28.79
27.41
25.76
23.22
19.40
14.27
8.24
1.88
-4.17
-9.51
-14.11
-18.38
-23.04
-28.96
-36.74
-46.37
-57.08
-67.35
-75.15
-78.48
-75.94
-67.15
-52.92
-35.04
-15.79
2.62
18.56
31.11
40.10
45.79
48.66
49.38
48.57
46.90
44.92
43.01
41.33
39.74
38.07
36.05
33.61
30.81
27.87
25.07
22.65
20.72
19.09
17.31
14.78
10.94
5.58
-1.12
-8.60
-16.09
-22.97
-28.94
-34.06
-38.81
-43.87
-49.98
-57.62
-66.71
-76.40
-85.03
-90.58
-91.17
-85.75
-74.44
-58.47
-39.75
-20.37
-2.04
13.99
27.00
36.71
43.18
46.76
48.02
47.68
46.45
44.89
43.33
41.90
40.54
39.00
36.99
34.19
30.56
26.43
22.47
19.54
18.36
19.20
21.70
24.99
28.03
29.92
30.23
29.03
26.60
23.23
19.04
13.90
7.68
0.40
-7.82
-16.77
-26.27
-36.07
-45.68
-54.17
-60.25
-62.56
-60.29
-53.43
-42.90
-30.20
-16.87
-4.15
7.27
17.02
24.98
31.10
35.39
38.04
39.42
39.96
39.98
39.63
38.86
37.48
35.27
32.17
28.28
23.91
19.46
15.38
11.92
9.11
6.76
4.42
1.61
-2.13
-7.12
-13.40
-20.67
-28.32
-35.56
-41.70
-46.37
-49.70
-52.21
-54.72
-58.01
-62.61
-68.53
-75.15
-81.22
-85.03
-84.87
-79.53
-68.72
-53.29
-34.98
-15.87
2.11
17.71
30.37
40.03
46.91
51.23
53.19
53.03
51.13
48.00
44.26
40.41
36.73
33.26
29.94
26.78
24.03
22.07
21.36
21.98
23.51
25.02
25.49
24.19
21.01
16.48
11.39
6.51
2.17
-1.72
-5.51
-9.66
-14.63
-20.89
-28.84
-38.59
-49.62
-60.57
-69.36
-73.69
-71.81
-63.15
-48.50
-29.83
-9.53
10.11
27.47
41.70
52.62
60.35
65.17
67.38
67.26
65.24
61.83
57.69
53.44
49.53
46.09
42.94
39.75
36.24
32.38
28.31
24.36
20.73
17.41
14.12
10.42
5.95
0.50
-5.81
-12.64
-19.56
-26.18
-32.29
-37.88
-43.19
-48.66
-54.87
-62.30
-71.16
-81.00
-90.60
-98.13
-101.52
-99.08
-90.13
-75.18
-55.79
-34.13
-12.40
7.63
24.80
38.59
48.89
55.99
60.30
62.40
62.87
62.25
60.99
59.40
57.64
55.66
53.34
50.42
46.71
42.15
36.96
31.60
26.66
22.63
19.65
17.46
15.41
12.73
8.84
3.59
-2.76
-9.68
-16.57
-23.02
-28.85
-34.08
-38.96
-43.96
-49.72
-56.92
-65.85
-75.98
-85.82
-93.09
-95.49
-91.44
-80.82
-64.94
-46.08
-26.72
-8.75
6.74
19.45
29.44
36.88
41.92
44.75
45.69
45.24
43.98
42.38
40.84
39.52
38.41
37.37
36.19
34.64
32.60
30.09
27.29
24.52
21.96
19.67
17.41
14.80
11.39
6.88
1.36
-4.82
-11.05
-16.76
-21.63
-25.75
-29.55
-33.65
-38.66
-44.96
-52.71
-61.62
-70.98
-79.50
-85.46
-87.09
-83.00
-72.75
-57.11
-37.87
-17.31
2.37
19.60
33.50
43.87
51.00
55.29
57.24
57.31
55.96
53.70
51.03
48.39
46.05
43.94
41.82
39.40
36.55
33.47
30.56
28.21
26.45
24.85
22.70
19.33
14.46
8.30
1.43
-5.53
-12.20
-18.48
-24.53
-30.67
-37.24
-44.49
-52.58
-61.34
-70.04
-77.34
-81.44
-80.59
-73.70
-60.88
-43.48
-23.66
-3.81
14.20
29.34
41.40
50.62
57.31
61.68
63.80
63.77
61.90
58.72
54.86
50.91
47.24
43.90
40.73
37.56
34.30
31.09
28.19
25.79
23.89
22.14
19.96
16.69
11.87
5.52
-1.91
-9.62
-16.76
-22.86
-27.93
-32.50
-37.44
-43.62
-51.71
-61.80
-73.33
-84.99
-94.86
-100.82
-101.02
-94.52
-81.60
-63.75
-43.22
-22.37
-3.08
13.55
27.15
37.86
45.98
51.79
55.47
57.22
57.37
56.47
55.14
53.90
52.93
52.02
50.66
48.31
44.76
40.23
35.30
30.55
26.31
22.52
18.78
14.65
9.80
4.21
-1.92
-8.19
-14.17
-19.52
-24.13
-28.24
-32.37
-37.17
-43.30
-51.12
-60.51
-70.71
-80.33
-87.54
-90.42
-87.58
-78.59
-64.14
-45.94
-26.14
-6.78
10.69
25.57
37.71
47.28
54.56
59.79
63.17
64.94
65.29
64.41
62.45
59.56
55.88
51.52
46.61
41.29
35.80
30.42
25.42
21.09
17.51
14.56
11.91
9.20
6.13
2.57
-1.36
-5.39
-9.27
-12.91
-16.42
-20.09
-24.28
-29.35
-35.62
-43.36
-52.69
-63.43
-74.81
-85.32
-92.89
-95.40
-91.40
-80.70
-64.49
-44.96
-24.58
-5.43
11.23
24.89
35.48
43.14
48.05
50.40
50.49
48.76
45.76
42.08
38.19
34.41
30.91
27.74
24.91
22.47
20.60
19.49
19.24
19.68
20.39
20.70
19.89
17.51
13.52
8.33
2.68
-2.70
-7.36
-11.28
-14.85
-18.80
-23.87
-30.68
-39.31
-49.19
-58.95
-66.69
-70.43
-68.66
-60.91
-47.84
-31.07
-12.63
5.57
22.13
36.26
47.62
56.06
61.60
64.33
64.53
62.68
59.45
55.55
51.54
47.69
43.95
40.10
35.94
31.50
27.09
23.18
20.16
18.09
16.66
15.23
13.11
9.80
5.12
-0.82
-7.58
-14.65
-21.57
-27.99
-33.82
-39.28
-44.85
-51.15
-58.77
-67.87
-77.86
-87.29
-94.02
-95.74
-90.82
-78.87
-60.99
-39.48
-17.06
3.87
21.86
36.39
47.59
55.83
61.43
64.62
65.69
65.04
63.23
60.79
58.07
55.12
51.83
47.99
43.56
38.71
33.83
29.40
25.76
23.05
21.05
19.27
17.04
13.74
9.02
2.86
-4.32
-11.80
-18.84
-24.87
-29.69
-33.58
-37.18
-41.35
-46.91
-54.46
-64.05
-74.94
-85.58
-93.76
-97.19
-94.13
-84.06
-67.87
-47.61
-25.91
-5.12
13.14
28.16
39.97
48.89
55.35
59.70
62.24
63.29
63.16
62.10
60.26
57.66
54.28
50.10
45.23
39.90
34.48
29.32
24.73
20.83
17.52
14.49
11.37
7.81
3.60
-1.22
-6.50
-11.93
-17.24
-22.17
-26.57
-30.43
-33.95
-37.54
-41.74
-47.14
-54.14
-62.72
-72.22
-81.31
-88.10
-90.63
-87.40
-77.89
-62.83
-44.08
-24.02
-4.95
11.57
24.83
34.90
42.18
47.16
50.16
51.44
51.30
50.12
48.36
46.35
44.31
42.17
39.76
36.95
33.79
30.56
27.70
25.61
24.45
23.96
23.51
22.32
19.79
15.69
10.31
4.29
-1.71
-7.16
-11.88
-16.10
-20.24
-24.91
-30.66
-37.83
-46.31
-55.38
-63.65
-69.29
-70.52
-66.20
-56.25
-41.74
-24.62
-7.09
8.92
22.24
32.49
39.86
44.86
48.01
49.76
50.48
50.48
50.01
49.23
48.10
46.47
44.10
40.88
36.94
32.66
28.59
25.16
22.55
20.53
18.50
15.74
11.71
6.17
-0.63
-8.18
-15.81
-23.02
-29.56
-35.45
-40.98
-46.64
-53.01
-60.53
-69.21
-78.31
-86.26
-90.93
-90.23
-82.92
-69.03
-50.02
-28.26
-6.33
13.67
30.44
43.49
52.90
59.00
62.20
62.98
61.86
59.43
56.28
52.89
49.49
46.13
42.56
38.56
34.02
29.08
24.14
19.71
16.22
13.71
11.89
10.14
7.84
4.53
0.14
-5.04
-10.50
-15.70
-20.34
-24.35
-28.03
-31.86
-36.42
-42.31
-49.94
-59.31
-69.68
-79.58
-86.88
-89.37
-85.44
-74.67
-58.12
-37.94
-16.78
3.05
20.02
33.61
43.92
51.41
56.53
59.65
61.12
61.33
60.74
59.74
58.48
56.93
54.77
51.68
47.43
42.11
36.09
29.93
24.24
19.44
15.59
12.32
8.89
4.55
-1.25
-8.56
-16.82
-25.14
-32.58
-38.57
-43.13
-46.79
-50.36
-54.64
-60.15
-67.00
-74.83
-82.68
-89.12
-92.37
-90.78
-83.25
-69.78
-51.45
-30.29
-8.63
11.40
28.36
41.54
50.86
56.66
59.46
59.86
58.49
55.91
52.63
48.97
45.11
41.06
36.82
32.43
28.03
23.91
20.33
17.55
15.65
14.49
13.76
12.90
11.37
8.80
5.15
0.72
-3.93
-8.28
-12.02
-15.23
-18.41
-22.23
-27.39
-34.32
-42.87
-52.13
-60.44
-65.70
-66.01
-60.26
-48.59
-32.42
-13.91
4.62
21.36
35.17
45.62
52.79
56.97
58.61
58.24
56.44
53.80
50.78
47.64
44.49
41.30
38.02
34.61
31.17
27.88
24.98
22.67
20.95
19.47
17.71
15.04
11.04
5.74
-0.46
-6.92
-13.10
-18.76
-24.04
-29.43
-35.59
-43.06
-52.19
-62.79
-73.97
-84.10
-91.03
-92.68
-87.70
-76.01
-58.88
-38.63
-17.79
1.49
17.86
30.86
40.59
47.38
51.53
53.35
53.16
51.40
48.68
45.61
42.60
39.81
37.16
34.44
31.55
28.58
25.83
23.68
22.39
22.01
22.24
22.45
21.88
19.84
15.92
10.20
3.19
-4.33
-11.60
-18.24
-24.28
-30.16
-36.54
-44.00
-52.90
-63.06
-73.64
-83.04
-89.24
-90.23
-84.73
-72.63
-55.20
-34.66
-13.55
5.96
22.50
35.60
45.28
51.88
55.80
57.45
57.36
56.09
54.22
52.18
50.16
48.09
45.71
42.71
38.94
34.46
29.58
24.76
20.38
16.69
13.64
10.96
8.16
4.80
0.56
-4.62
-10.42
-16.23
-21.41
-25.42
-28.18
-30.07
-31.95
-34.77
-39.32
-46.00
-54.66
-64.52
-74.26
-82.10
-86.19
-84.98
-77.71
-64.80
-47.67
-28.49
-9.51
7.49
21.48
32.22
39.99
45.26
48.54
50.23
50.69
50.26
49.17
47.58
45.50
42.86
39.61
35.78
31.60
27.40
23.60
20.48
18.14
16.40
14.87
13.05
10.47
6.85
2.16
-3.26
-8.93
-14.28
-18.86
-22.51
-25.37
-27.90
-30.75
-34.69
-40.25
-47.58
-56.07
-64.41
-70.72
-73.04
-69.96
-61.04
-46.98
-29.47
-10.60
7.50
23.24
35.64
44.32
49.41
51.37
50.82
48.51
45.19
41.52
38.05
35.03
32.55
30.51
28.69
26.93
25.22
23.78
22.96
23.06
24.11
25.70
26.99
27.02
25.08
21.01
15.22
8.48
1.54
-5.12
-11.44
-17.69
-24.31
-31.76
-40.45
-50.51
-61.62
-72.66
-81.81
-86.92
-86.15
-78.76
-65.46
-48.27
-29.74
-12.17
3.05
15.54
25.56
33.58
39.90
44.63
47.75
49.46
50.14
50.27
50.24
50.10
49.60
48.24
45.60
41.56
36.47
30.98
25.81
21.46
17.95
14.91
11.70
7.81
3.10
-2.20
-7.56
-12.43
-16.47
-19.73
-22.57
-25.53
-29.24
-34.25
-40.87
-49.07
-58.22
-67.06
-73.79
-76.60
-74.11
-65.94
-52.83
-36.51
-19.14
-2.62
11.77
23.49
32.62
39.52
44.54
47.90
49.73
50.23
49.69
48.45
46.95
45.39
43.80
42.00
39.72
36.84
33.37
29.63
25.94
22.59
19.60
16.76
13.61
9.72
4.81
-1.14
-7.83
-14.82
-21.62
-27.94
-33.67
-38.94
-44.07
-49.51
-55.75
-63.15
-71.69
-80.70
-88.81
-94.13
-94.82
-89.65
-78.55
-62.62
-43.86
-24.40
-6.08
10.00
23.39
34.16
42.55
48.84
53.28
56.11
57.54
57.81
57.12
55.62
53.49
50.86
47.88
44.65
41.27
37.84
34.48
31.28
28.26
25.39
22.48
19.25
15.42
10.80
5.41
-0.51
-6.56
-12.33
-17.55
-22.23
-26.62
-31.14
-36.27
-42.46
-49.98
-58.77
-68.32
-77.45
-84.52
-87.68
-85.42
-77.19
-63.53
-46.05
-26.88
-8.07
8.89
23.22
34.70
43.40
49.49
53.10
54.49
54.09
52.49
50.33
48.11
46.07
44.21
42.28
40.01
37.25
34.00
30.49
27.07
24.06
21.60
19.58
17.60
15.14
11.76
7.30
1.98
-3.69
-9.04
-13.60
-17.22
-20.27
-23.43
-27.63
-33.66
-41.88
-51.88
-62.35
-71.26
-76.30
-75.66
-68.57
-55.67
-38.78
-20.24
-2.25
13.64
26.80
37.17
45.00
50.53
54.03
55.73
55.99
55.24
53.85
52.04
49.79
46.97
43.51
39.37
34.77
30.10
25.76
22.10
19.24
17.01
15.01
12.69
9.53
5.20
-0.28
-6.63
-13.28
-19.62
-25.23
-29.99
-34.11
-38.07
-42.54
-48.22
-55.54
-64.40
-73.83
-82.05
-86.80
-86.12
-78.97
-65.68
-47.89
-27.96
-8.18
9.71
24.71
36.50
45.11
50.80
53.95
55.10
54.87
53.84
52.42
50.77
48.92
46.73
44.02
40.66
36.58
31.90
26.86
21.95
17.71
14.56
12.61
11.61
10.94
9.84
7.64
4.09
-0.63
-6.01
-11.41
-16.34
-20.68
-24.58
-28.40
-32.62
-37.77
-44.34
-52.67
-62.57
-73.04
-82.18
-87.59
-87.17
-79.85
-66.15
-48.02
-28.06
-8.75
8.27
22.32
33.43
41.93
48.15
52.31
54.69
55.62
55.45
54.47
52.80
50.41
47.25
43.29
38.66
33.59
28.29
23.04
18.10
13.76
10.30
7.83
6.15
4.73
2.90
0.08
-3.91
-8.81
-14.09
-19.24
-23.96
-28.22
-32.14
-35.89
-39.60
-43.50
-47.98
-53.56
-60.45
-68.20
-75.47
-80.28
-80.57
-75.02
-63.55
-47.40
-28.67
-9.64
7.87
22.82
34.83
43.99
50.45
54.44
56.14
55.91
54.27
51.89
49.32
46.89
44.50
41.86
38.61
34.67
30.29
25.98
22.30
19.56
17.73
16.39
14.91
12.65
9.14
4.27
-1.76
-8.50
-15.33
-21.75
-27.42
-32.34
-36.82
-41.43
-46.81
-53.35
-60.93
-68.64
-74.85
-77.58
-75.11
-66.55
-52.32
-33.95
-13.72
6.10
23.70
38.04
48.76
56.01
60.21
61.85
61.47
59.58
56.73
53.41
49.96
46.54
43.14
39.57
35.63
31.28
26.72
22.33
18.61
15.91
14.26
13.31
12.41
10.88
8.21
4.22
-0.95
-6.91
-13.14
-19.24
-24.97
-30.36
-35.72
-41.49
-48.14
-55.90
-64.45
-72.79
-79.25
-81.90
-79.10
-70.11
-55.44
-36.73
-16.37
3.22
20.15
33.46
43.00
49.19
52.71
54.12
53.94
52.57
50.42
47.91
45.46
43.35
41.60
39.99
38.14
35.71
32.56
28.90
25.18
21.88
19.30
17.37
15.67
13.59
10.66
6.61
1.55
-4.23
-10.36
-16.49
-22.46
-28.18
-33.70
-39.16
-44.96
-51.62
-59.57
-68.79
-78.41
-86.71
-91.50
-90.78
-83.57
-70.30
-52.62
-32.88
-13.31
4.49
19.67
31.95
41.27
47.71
51.34
52.54
51.87
50.02
47.62
45.12
42.67
40.22
37.58
34.53
30.95
26.81
22.36
17.97
14.17
11.27
9.43
8.39
7.63
6.61
4.88
2.26
-1.17
-5.20
-9.54
-14.04
-18.66
-23.41
-28.33
-33.57
-39.34
-45.88
-53.36
-61.55
-69.60
-76.03
-79.04
-77.04
-69.29
-56.22
-39.35
-20.80
-2.68
13.47
26.80
37.14
44.67
49.64
52.32
53.11
52.54
51.28
49.95
48.96
48.31
47.63
46.38
44.19
40.98
36.98
32.76
28.91
25.78
23.37
21.35
19.19
16.40
12.73
8.27
3.32
-1.81
-6.95
-12.12
-17.51
-23.43
-30.13
-37.92
-46.90
-56.83
-66.78
-75.15
-79.85
-79.01
-71.63
-58.10
-40.15
-20.19
-0.60
16.91
31.51
43.06
51.74
57.74
61.22
62.38
61.46
58.91
55.30
51.22
47.20
43.56
40.37
37.47
34.54
31.34
27.83
24.23
20.87
17.96
15.44
12.88
9.73
5.56
0.32
-5.63
-11.70
-17.30
-22.16
-26.38
-30.41
-34.92
-40.53
-47.73
-56.65
-66.85
-77.25
-86.10
-91.38
-91.30
-84.89
-72.45
-55.46
-36.15
-16.83
0.76
15.68
27.73
37.18
44.41
49.68
53.17
55.02
55.51
54.93
53.64
51.86
49.73
47.23
44.32
40.99
37.32
33.51
29.78
26.33
23.23
20.38
17.55
14.42
10.67
6.19
1.04
-4.50
-9.99
-14.99
-19.26
-22.83
-26.01
-29.38
-33.66
-39.56
-47.57
-57.63
-68.87
-79.61
-87.55
-90.47
-86.91
-76.71
-61.15
-42.45
-23.10
-5.12
10.32
22.89
32.76
40.30
45.80
49.45
51.47
52.06
51.48
49.94
47.60
44.59
40.96
36.81
32.27
27.50
22.79
18.50
14.98
12.46
10.89
9.90
8.85
7.07
4.07
-0.25
-5.51
-11.02
-16.08
-20.21
-23.32
-25.76
-28.19
-31.34
-35.84
-42.04
-49.76
-58.25
-66.16
-71.74
-73.23
-69.39
-59.92
-45.60
-28.18
-9.84
7.38
21.98
33.21
41.02
45.74
47.92
48.13
46.95
44.93
42.60
40.37
38.44
36.80
35.24
33.55
31.61
29.51
27.57
26.05
25.07
24.43
23.67
22.15
19.36
15.06
9.44
3.05
-3.36
-9.16
-14.00
-18.00
-21.73
-25.98
-31.52
-38.80
-47.70
-57.34
-66.13
-72.00
-73.01
-67.94
-56.69
-40.50
-21.51
-2.17
15.48
30.21
41.54
49.56
54.62
57.09
57.32
55.74
52.86
49.30
45.54
41.84
38.18
34.29
29.88
24.87
19.53
14.43
10.28
7.57
6.28
5.92
5.59
4.35
1.61
-2.66
-8.01
-13.71
-19.18
-24.12
-28.71
-33.40
-38.83
-45.52
-53.78
-63.46
-73.78
-83.25
-89.97
-91.87
-87.51
-76.46
-59.57
-38.83
-16.73
4.37
22.75
37.56
48.71
56.53
61.46
63.96
64.47
63.49
61.61
59.38
57.24
55.27
53.14
50.42
46.61
41.59
35.62
29.30
23.34
18.28
14.32
11.23
8.49
5.43
1.53
-3.44
-9.31
-15.58
-21.59
-26.81
-31.00
-34.34
-37.37
-40.89
-45.67
-52.21
-60.38
-69.28
-77.26
-82.26
-82.31
-76.25
-64.04
-46.87
-26.80
-6.16
13.07
29.57
42.82
52.78
59.75
64.08
66.09
66.12
64.56
61.84
58.44
54.77
51.15
47.65
44.22
40.73
37.07
33.15
29.04
24.88
20.90
17.30
14.20
11.53
9.02
6.28
2.91
-1.40
-6.62
-12.54
-18.75
-24.86
-30.68
-36.26
-41.93
-48.18
-55.60
-64.55
-74.93
-86.02
-96.29
-103.71
-106.27
-102.56
-92.28
-76.37
-56.71
-35.59
-15.09
3.25
18.57
30.56
39.26
44.98
48.20
49.58
49.84
49.60
49.30
49.11
48.97
48.70
48.11
47.08
45.49
43.30
40.57
37.41
34.04
30.63
27.27
23.84
20.01
15.44
9.83
3.14
-4.32
-12.02
-19.30
-25.67
-30.93
-35.35
-39.47
-44.03
-49.68
-56.67
-64.61
-72.45
-78.59
-81.30
-79.19
-71.73
-59.31
-43.25
-25.29
-7.24
9.40
23.61
34.81
42.85
47.90
50.45
51.11
50.67
49.82
49.10
48.66
48.34
47.76
46.46
44.21
41.01
37.23
33.33
29.65
26.36
23.36
20.39
17.19
13.56
9.38
4.61
-0.66
-6.32
-12.12
-17.83
-23.28
-28.47
-33.72
-39.48
-46.22
-53.99
-62.12
-69.18
-73.23
-72.43
-65.74
-53.29
-36.50
-17.53
1.35
18.33
32.39
43.15
50.67
55.25
57.23
57.01
55.11
52.09
48.55
45.00
41.79
39.01
36.56
34.14
31.48
28.41
25.08
21.78
18.89
16.56
14.59
12.50
9.75
5.98
1.19
-4.27
-9.88
-15.21
-20.01
-24.34
-28.46
-32.81
-37.91
-44.30
-52.36
-62.05
-72.63
-82.56
-89.69
-91.87
-87.62
-76.69
-60.22
-40.32
-19.40
0.49
18.08
32.78
44.51
53.40
59.60
63.29
64.74
64.27
62.30
59.20
55.33
50.95
46.24
41.29
36.14
30.84
25.53
20.48
16.06
12.59
10.20
8.72
7.61
6.10
3.58
-0.27
-5.26
-10.84
-16.36
-21.40
-25.94
-30.27
-34.85
-40.18
-46.61
-54.35
-63.34
-73.04
-82.31
-89.39
-92.31
-89.56
-80.64
-66.44
-48.98
-30.73
-13.90
0.14
11.00
19.04
24.98
29.48
32.96
35.62
37.49
38.57
38.91
38.65
37.97
37.05
35.98
34.79
33.49
32.18
31.08
30.46
30.48
31.09
31.93
32.43
32.00
30.22
26.89
22.21
16.66
10.87
5.41
0.60
-3.62
-7.63
-12.02
-17.39
-24.21
-32.62
-42.39
-52.80
-62.60
-70.12
-73.60
-71.74
-64.09
-51.32
-35.04
-17.36
-0.27
14.78
27.10
36.56
43.44
48.10
50.91
52.13
51.97
50.63
48.24
45.00
41.14
36.98
32.87
29.15
26.08
23.80
22.33
21.50
21.04
20.49
19.27
16.85
12.97
7.71
1.51
-4.94
-11.04
-16.51
-21.46
-26.42
-32.02
-38.91
-47.38
-57.15
-67.20
-75.81
-80.86
-80.49
-73.68
-60.74
-43.27
-23.57
-3.92
14.08
29.73
42.87
53.50
61.39
66.08
67.23
64.91
59.81
53.02
45.69
38.69
32.45
27.02
22.29
18.20
14.87
12.50
11.27
11.18
11.82
12.40
11.90
9.40
4.42
-2.73
-11.14
-19.56
-26.91
-32.59
-36.63
-39.55
-42.11
-45.14
-49.36
-55.23
-62.64
-70.74
-77.85
-81.85
-80.70
-73.29
-59.82
-41.81
-21.60
-1.65
16.15
30.60
41.37
48.63
52.91
54.87
55.23
54.63
53.63
52.54
51.39
50.01
47.98
44.92
40.59
35.08
28.89
22.75
17.45
13.52
11.01
9.47
8.12
6.19
3.19
-0.89
-5.62
-10.42
-14.82
-18.66
-22.15
-25.80
-30.19
-35.94
-43.44
-52.73
-63.28
-73.82
-82.43
-86.94
-85.49
-77.25
-62.74
-43.74
-22.69
-2.05
16.24
31.05
41.96
49.05
52.69
53.47
52.12
49.45
46.26
43.11
40.21
37.42
34.41
30.93
27.01
23.03
19.63
17.37
16.50
16.83
17.79
18.59
18.57
17.34
14.82
11.17
6.69
1.72
-3.44
-8.61
-13.75
-19.10
-25.13
-32.37
-41.12
-51.01
-60.75
-68.39
-71.75
-69.27
-60.55
-46.54
-29.24
-10.97
6.29
21.31
33.59
43.08
49.81
53.81
55.12
54.03
51.13
47.14
42.72
38.16
33.49
28.53
23.19
17.85
13.09
9.65
7.91
7.79
8.68
9.68
10.01
9.23
7.33
4.62
1.50
-1.83
-5.44
-9.67
-14.98
-21.83
-30.50
-40.89
-52.37
-63.61
-72.68
-77.41
-76.07
-67.92
-53.68
-35.35
-15.56
3.13
19.05
31.59
40.97
47.76
52.50
55.49
56.92
57.00
56.10
54.61
52.79
50.66
48.01
44.52
40.07
34.80
29.09
23.47
18.37
13.88
9.78
5.59
0.83
-4.77
-11.10
-17.70
-23.90
-29.10
-33.00
-35.77
-38.07
-40.91
-45.31
-52.00
-61.03
-71.43
-81.27
-88.00
-89.21
-83.43
-70.63
-52.32
-30.97
-9.22
10.80
27.84
41.39
51.45
58.21
61.87
62.83
61.67
59.14
55.99
52.83
49.89
47.08
44.03
40.35
35.85
30.65
25.15
19.98
15.59
12.13
9.28
6.44
2.91
-1.79
-7.62
-14.13
-20.55
-26.13
-30.45
-33.63
-36.29
-39.37
-43.89
-50.47
-59.15
-68.98
-78.23
-84.69
-86.22
-81.50
-70.42
-54.15
-34.69
-14.28
5.13
22.24
36.33
47.16
54.71
59.20
61.00
60.74
59.03
56.50
53.61
50.55
47.35
43.87
39.99
35.67
30.99
26.31
22.09
18.78
16.54
15.12
13.84
11.83
8.37
3.18
-3.50
-10.98
-18.44
-25.17
-30.93
-35.94
-40.77
-46.17
-52.76
-60.73
-69.60
-78.21
-84.87
-87.72
-85.21
-76.72
-62.58
-44.22
-23.67
-3.11
15.59
31.25
43.28
51.71
56.86
59.25
59.48
58.13
55.82
53.08
50.25
47.49
44.75
41.87
38.68
35.15
31.42
27.71
24.24
21.07
18.10
15.02
11.54
7.50
2.93
-1.99
-6.96
-11.77
-16.31
-20.68
-25.15
-30.11
-36.03
-43.15
-51.27
-59.53
-66.30
-69.64
-67.80
-59.96
-46.60
-29.35
-10.51
7.73
23.84
37.09
47.32
54.67
59.30
61.38
61.14
59.04
55.62
51.41
46.71
41.54
35.78
29.41
22.69
16.20
10.73
6.96
5.17
5.04
5.74
6.17
5.25
2.38
-2.45
-8.73
-15.60
-22.27
-28.25
-33.58
-38.77
-44.55
-51.64
-60.23
-69.80
-78.95
-85.63
-87.62
-83.28
-72.07
-54.86
-33.65
-11.01
10.59
29.28
44.04
54.56
61.07
64.03
64.12
62.08
58.71
54.72
50.62
46.68
42.86
38.92
34.65
30.06
25.36
21.04
17.64
15.48
14.52
14.23
13.74
12.16
8.82
3.61
-3.13
-10.64
-18.07
-24.79
-30.56
-35.64
-40.61
-46.26
-53.26
-61.84
-71.53
-80.99
-88.15
-90.80
-87.19
-76.76
-60.33
-39.95
-18.12
2.76
21.01
35.71
46.63
53.89
57.81
58.92
57.84
55.39
52.35
49.30
46.50
43.88
41.17
38.03
34.27
29.90
25.25
20.81
17.11
14.46
12.83
11.79
10.58
8.43
4.81
-0.38
-6.75
-13.60
-20.19
-25.95
-30.75
-34.85
-38.87
-43.63
-49.86
-57.85
-67.18
-76.54
-83.93
-87.12
-84.35
-75.04
-59.96
-41.10
-21.00
-2.02
14.26
27.15
36.63
43.10
47.08
49.02
49.38
48.58
47.00
44.98
42.70
40.21
37.44
34.17
30.20
25.54
20.50
15.69
11.82
9.29
7.99
7.15
5.78
3.01
-1.42
-7.12
-13.27
-19.02
-23.86
-27.80
-31.17
-34.55
-38.46
-43.33
-49.33
-56.31
-63.52
-69.63
-72.86
-71.55
-64.68
-52.39
-35.96
-17.49
0.82
17.21
30.66
40.83
47.85
52.00
53.64
53.23
51.35
48.62
45.66
42.93
40.58
38.55
36.59
34.47
32.09
29.51
26.94
24.48
22.09
19.51
16.47
12.69
8.15
3.03
-2.32
-7.52
-12.38
-16.90
-21.35
-26.24
-32.14
-39.52
-48.42
-58.23
-67.49
-74.19
-76.23
-72.10
-61.47
-45.37
-26.00
-5.99
12.36
27.63
39.41
47.96
53.80
57.30
58.65
58.02
55.78
52.49
48.78
45.03
41.27
37.18
32.48
27.21
21.86
17.16
13.81
12.02
11.40
11.07
10.07
7.67
3.69
-1.56
-7.32
-12.90
-17.86
-22.20
-26.30
-30.80
-36.41
-43.69
-52.75
-63.11
-73.50
-81.99
-86.34
-84.74
-76.46
-62.14
-43.65
-23.56
-4.23
12.61
26.20
36.39
43.43
47.71
49.69
49.97
49.28
48.25
47.28
46.41
45.36
43.72
41.27
38.06
34.41
30.78
27.57
25.03
23.18
21.80
20.47
18.63
15.76
11.45
5.66
-1.25
-8.66
-15.90
-22.50
-28.43
-34.10
-40.25
-47.61
-56.56
-66.70
-76.79
-84.82
-88.62
-86.45
-77.68
-63.05
-44.47
-24.44
-5.40
10.92
23.59
32.48
37.89
40.35
40.40
38.57
35.41
31.52
27.46
23.67
20.34
17.33
14.24
10.61
6.21
1.09
-4.39
-9.72
-14.62
-19.09
-23.50
-28.33
-33.87
-40.05
-46.28
-51.65
-55.39
-57.22
-57.50
-57.02
-56.66
-56.90
-57.66
-58.33
-58.07
-56.02
-51.47
-43.80
-32.51
-17.24
1.96
24.30
48.26
71.74
92.60
109.34
121.60
130.18
136.73
142.96
150.00
157.97
166.10
173.22
178.38
181.04
181.06
178.28
172.38
162.85
149.38
132.19
112.06
89.95
66.52
41.80
15.51
-12.30
-40.72
-67.75
-90.98
-108.43
-119.38
-124.71
-126.45
-127.04
-128.41
-131.44
-135.82
-140.23
-142.78
-141.60
-135.30
-123.41
-106.59
-86.45
-65.11
-44.58
-26.32
-10.97
1.48
11.39
19.20
25.25
29.75
32.87
34.84
35.86
36.11
35.70
34.58
32.77
30.36
27.68
25.29
23.81
23.71
24.95
26.84
28.30
28.10
25.44
20.26
13.24
5.59
-1.38
-6.72
-10.15
-12.08
-13.50
-15.70
-19.78
-26.30
-34.84
-43.96
-51.46
-55.08
-53.15
-45.23
-32.20
-16.03
0.72
15.60
26.79
33.40
35.35
33.42
28.90
23.32
18.00
13.53
9.73
5.69
0.22
-8.07
-19.94
-35.20
-52.67
-70.44
-86.73
-100.02
-109.40
-114.56
-116.45
-116.69
-117.12
-119.29
-123.64
-129.88
-136.56
-141.56
-142.62
-138.89
-130.58
-118.81
-105.09
-90.93
-78.25
-68.64
-62.81
-56.37
-46.16
-30.50
-9.88
12.28
35.65
59.56
83.12
103.69
119.08
127.73
129.73
126.57
120.56
114.19
108.84
105.38
104.48
107.22
114.20
125.56
140.49
157.25
173.75
187.77
197.91
203.76
205.83
204.36
199.20
189.94
176.25
158.34
136.77
112.48
86.71
60.68
35.03
9.96
-14.70
-39.02
-62.49
-83.90
-101.25
-112.34
-115.50
-110.47
-98.54
-82.23
-64.50
-47.81
-33.57
-21.93
-11.96
-2.29
8.26
20.15
32.76
44.73
54.43
60.82
64.01
65.47
67.61
73.04
83.41
98.46
115.55
130.13
136.84
131.40
112.01
80.36
41.46
2.53
-28.78
-46.46
-47.79
-34.23
-11.27
13.23
31.51
38.51
33.53
20.11
4.31
-8.06
-13.72
-12.79
-7.94
-2.58
0.88
1.77
0.70
-1.43
-4.26
-8.20
-13.90
-21.55
-30.54
-39.65
-47.76
-54.30
-59.58
-64.34
-69.12
-73.90
-78.15
-81.34
-83.55
-85.75
-89.64
-96.97
-108.90
-125.36
-144.97
-165.37
-183.99
-198.82
-209.00
-215.08
-218.58
-221.26
-224.10
-226.67
-227.26
-223.50
-213.47
-196.54
-173.69
-147.06
-119.07
-91.59
-65.60
-41.17
-18.13
3.30
22.23
37.37
47.52
52.40
52.92
50.98
48.86
48.22
49.66
52.60
55.84
58.38
60.04
61.55
64.16
68.92
76.17
85.16
94.22
101.19
103.84
100.53
90.71
75.34
56.98
39.24
25.76
18.78
17.91
19.81
19.25
11.22
-6.87
-33.67
-64.20
-91.60
-109.93
-116.33
-111.84
-100.70
-88.64
-80.99
-81.64
-92.66
-114.16
-144.31
-178.94
-211.88
-235.85
-244.30
-233.47
-203.50
-158.38
-104.49
-48.78
2.77
45.90
78.23
99.01
109.01
110.28
105.72
98.23
89.89
81.54
72.99
63.83
54.31
45.69
39.92
38.79
43.19
52.67
65.68
80.09
93.81
105.32
113.67
118.63
120.42
119.62
116.92
113.05
108.59
103.89
99.05
94.04
88.81
83.40
77.96
72.79
68.16
64.24
61.03
58.37
55.96
53.43
50.35
46.33
41.22
35.13
28.51
21.96
15.98
10.70
5.70
0.24
-6.38
-14.25
-22.59
-29.66
-33.32
-31.66
-23.70
-9.75
8.67
29.26
49.59
67.58
81.86
91.91
97.86
100.32
100.18
98.41
95.76
92.59
88.69
83.45
76.02
65.74
52.53
37.07
20.69
4.98
-8.70
-19.65
-27.97
-34.41
-39.93
-45.31
-50.93
-56.77
-62.59
-68.22
-73.58
-78.82
-84.11
-89.70
-95.78
-102.38
-109.12
-115.13
-118.96
-118.93
-113.64
-102.54
-86.28
-66.55
-45.63
-25.76
-8.52
5.27
15.59
22.90
27.82
30.98
32.84
33.67
33.66
32.93
31.69
30.20
28.79
27.74
27.19
27.10
27.23
27.22
26.67
25.29
23.01
19.90
16.16
11.98
7.47
2.57
-2.81
-8.82
-15.58
-23.20
-31.58
-40.28
-48.33
-54.23
-56.26
-52.96
-43.83
-29.67
-12.43
5.31
21.11
33.34
41.42
45.73
47.25
47.06
46.06
44.82
43.56
42.31
41.02
39.59
38.03
36.30
34.41
32.27
29.90
27.29
24.52
21.74
19.08
16.61
14.27
11.92
9.35
6.39
2.88
-1.33
-6.35
-12.36
-19.33
-26.97
-34.44
-40.43
-43.38
-42.04
-35.93
-25.67
-12.82
0.63
12.89
22.86
30.25
35.44
39.01
41.46
43.04
43.78
43.61
42.59
40.84
38.62
36.15
33.62
31.11
28.64
26.24
23.93
21.70
19.43
16.91
13.86
10.15
5.79
1.04
-3.69
-8.07
-11.95
-15.46
-18.97
-23.02
-28.10
-34.39
-41.53
-48.52
-53.80
-55.59
-52.48
-44.01
-30.89
-14.93
1.52
16.26
27.79
35.59
39.92
41.50
41.18
39.70
37.65
35.44
33.35
31.55
30.02
28.66
27.22
25.49
23.34
20.88
18.42
16.36
14.99
14.32
13.91
13.04
11.01
7.41
2.38
-3.51
-9.46
-14.83
-19.33
-23.19
-26.97
-31.30
-36.58
-42.71
-48.91
-53.85
-55.95
-53.94
-47.29
-36.43
-22.73
-7.98
6.05
18.11
27.49
34.05
37.98
39.55
39.07
36.90
33.52
29.50
25.42
21.81
19.01
16.99
15.58
14.49
13.44
12.32
11.16
10.09
9.19
8.39
7.45
6.00
3.70
0.36
-3.92
-8.87
-14.04
-19.02
-23.47
-27.35
-30.86
-34.38
-38.38
-43.23
-48.88
-54.77
-59.77
-62.46
-61.48
-56.08
-46.43
-33.60
-19.26
-5.22
6.97
16.43
22.98
26.94
28.90
29.42
28.90
27.61
25.70
23.35
20.81
18.32
16.12
14.32
12.88
11.57
10.23
8.74
7.17
5.64
4.35
3.34
2.46
1.46
0.12
-1.67
-3.85
-6.16
-8.32
-10.14
-11.63
-12.95
-14.41
-16.35
-19.07
-22.75
-27.45
-32.96
-38.76
-43.95
-47.40
-47.97
-44.88
-38.02
-28.10
-16.45
-4.64
5.92
14.35
20.43
24.37
26.61
27.56
27.52
26.71
25.26
23.37
21.26
19.07
16.92
14.94
13.23
11.85
10.85
10.17
9.62
8.98
8.05
6.77
5.20
3.47
1.65
-0.30
-2.47
-4.93
-7.61
-10.35
-13.03
-15.67
-18.42
-21.58
-25.30
-29.54
-34.08
-38.69
-43.32
-48.05
-52.88
-57.40
-60.66
-61.32
-58.17
-50.71
-39.36
-25.52
-11.03
2.39
13.63
22.26
28.35
32.23
34.22
34.59
33.57
31.48
28.74
25.77
22.95
20.71
19.37
19.24
20.50
23.11
26.65
30.47
33.93
36.57
38.47
40.08
42.04
44.84
48.59
52.98
57.39
61.17
63.97
65.76
67.02
68.53
71.36
76.58
84.96
96.50
109.90
122.41
130.39
130.53
121.32
104.02
82.53
62.10
47.13
39.60
38.41
40.31
41.60
39.57
33.27
23.06
9.74
-6.08
-24.06
-43.69
-63.93
-83.15
-99.68
-112.49
-121.58
-127.93
-133.00
-138.09
-143.89
-150.34
-156.86
-162.70
-167.16
-169.81
-170.56
-169.68
-167.66
-165.09
-162.53
-160.27
-158.32
-156.39
-154.23
-151.72
-149.07
-146.88
-145.96
-147.10
-150.78
-157.09
-165.66
-175.75
-186.39
-196.47
-204.87
-210.43
-212.18
-209.49
-202.14
-190.45
-175.07
-156.90
-136.73
-115.26
-93.00
-70.24
-47.03
-23.16
1.82
28.36
56.74
86.87
118.13
149.49
179.62
207.03
230.34
248.33
260.25
265.89
265.67
260.55
251.80
240.65
228.00
214.32
199.76
184.31
168.06
151.31
134.49
118.07
102.45
87.91
74.58
62.31
50.78
39.41
27.72
15.57
3.63
-6.68
-13.45
-14.99
-10.49
-0.49
13.27
28.42
42.59
54.03
61.86
65.87
66.27
63.46
58.00
50.55
41.95
33.09
24.79
17.60
11.65
6.81
2.77
-0.79
-3.98
-6.79
-9.08
-10.75
-11.78
-12.34
-12.74
-13.31
-14.38
-16.18
-18.83
-22.33
-26.56
-31.34
-36.42
-41.47
-46.17
-50.24
-53.61
-56.46
-59.27
-62.72
-67.37
-73.24
-79.63
-85.04
-87.63
-85.71
-78.48
-66.28
-50.39
-32.61
-14.72
1.94
16.49
28.37
37.22
42.90
45.53
45.58
43.87
41.29
38.54
35.97
33.52
30.96
28.09
24.86
21.43
18.06
15.01
12.51
10.71
9.68
9.38
9.64
10.07
10.13
9.25
7.00
3.26
-1.70
-7.37
-13.09
-18.42
-23.13
-27.27
-31.12
-35.07
-39.51
-44.85
-51.27
-58.62
-66.15
-72.56
-76.19
-75.56
-69.83
-59.12
-44.55
-27.87
-11.00
4.46
17.42
27.39
34.37
38.65
40.67
40.99
40.11
38.57
36.72
34.85
33.00
31.13
29.09
26.78
24.20
21.57
19.23
17.54
16.78
16.93
17.84
19.11
20.30
21.03
20.93
19.81
17.53
14.14
9.76
4.67
-0.79
-6.31
-11.82
-17.48
-23.64
-30.65
-38.71
-47.59
-56.62
-64.66
-70.28
-72.08
-69.04
-60.78
-47.81
-31.49
-13.74
3.48
18.60
30.79
39.97
46.53
50.98
53.71
54.92
54.71
53.31
51.10
48.55
46.09
43.92
42.01
40.19
38.39
36.74
35.48
34.82
34.67
34.57
33.82
31.77
28.10
22.91
16.70
10.11
3.65
-2.38
-7.93
-13.14
-18.27
-23.72
-30.01
-37.63
-46.62
-56.34
-65.38
-71.79
-73.63
-69.73
-60.07
-45.87
-29.17
-12.22
3.21
16.16
26.39
34.16
39.87
43.83
46.27
47.36
47.40
46.74
45.69
44.49
43.18
41.72
40.00
38.00
35.80
33.62
31.72
30.30
29.49
29.15
28.87
28.01
25.86
21.89
16.04
8.76
0.95
-6.53
-13.11
-18.82
-24.20
-30.14
-37.39
-46.39
-57.01
-68.53
-79.61
-88.51
-93.38
-92.69
-85.68
-72.73
-55.36
-35.82
-16.54
0.46
14.08
24.05
30.81
35.05
37.49
38.68
39.04
38.93
38.65
38.44
38.39
38.34
38.01
37.06
35.30
32.82
29.95
27.15
24.80
23.04
21.80
20.79
19.68
18.10
15.77
12.49
8.22
3.10
-2.60
-8.48
-14.18
-19.49
-24.49
-29.51
-35.04
-41.56
-49.36
-58.31
-67.73
-76.40
-82.65
-84.80
-81.61
-72.71
-58.80
-41.55
-23.12
-5.64
9.25
20.80
29.07
34.70
38.46
41.01
42.70
43.58
43.61
42.74
41.02
38.62
35.73
32.56
29.32
26.17
23.34
20.98
19.15
17.89
17.07
16.47
15.82
14.74
12.90
10.03
6.10
1.36
-3.74
-8.71
-13.19
-17.03
-20.38
-23.59
-27.17
-31.60
-37.21
-43.98
-51.27
-57.93
-62.39
-63.08
-58.99
-49.91
-36.70
-20.98
-4.74
10.16
22.45
31.64
37.92
41.92
44.37
45.81
46.50
46.48
45.72
44.23
42.19
39.81
37.24
34.50
31.53
28.32
25.05
22.08
19.87
18.64
18.25
18.11
17.40
15.41
11.79
6.79
1.11
-4.36
-8.96
-12.45
-15.09
-17.52
-20.54
-24.86
-30.89
-38.51
-46.95
-54.77
-60.12
-61.21
-56.99
-47.48
-33.85
-18.11
-2.36
11.63
22.90
31.19
36.79
40.22
41.96
42.40
41.74
40.14
37.72
34.71
31.37
28.00
24.84
22.05
19.68
17.78
16.47
15.89
16.16
17.22
18.82
20.55
21.86
22.25
21.37
19.04
15.37
10.68
5.49
0.33
-4.47
-8.87
-13.18
-17.99
-23.96
-31.54
-40.71
-50.78
-60.43
-67.93
-71.55
-70.06
-63.15
-51.48
-36.59
-20.42
-4.79
8.90
19.84
27.87
33.26
36.52
38.24
38.89
38.74
37.82
36.06
33.42
30.02
26.11
22.04
18.14
14.66
11.74
9.50
8.02
7.39
7.52
8.20
9.03
9.51
9.19
7.83
5.43
2.28
-1.25
-4.78
-8.14
-11.37
-14.66
-18.24
-22.37
-27.25
-33.03
-39.81
-47.36
-54.99
-61.43
-65.02
-64.26
-58.30
-47.41
-32.94
-16.87
-1.21
12.53
23.60
31.90
37.79
41.73
44.20
45.57
46.13
46.02
45.33
44.00
41.99
39.32
36.11
32.61
29.14
25.99
23.34
21.21
19.46
17.88
16.18
14.16
11.67
8.69
5.27
1.55
-2.40
-6.41
-10.37
-14.13
-17.65
-20.90
-24.02
-27.17
-30.57
-34.44
-38.96
-44.30
-50.42
-56.87
-62.73
-66.66
-67.34
-63.78
-55.92
-44.60
-31.35
-17.80
-5.31
5.41
14.17
21.11
26.44
30.32
32.80
33.93
33.80
32.61
30.65
28.26
25.75
23.39
21.29
19.59
18.32
17.53
17.24
17.37
17.77
18.17
18.24
17.72
16.40
14.28
11.42
7.98
4.11
-0.06
-4.48
-9.13
-13.95
-18.87
-23.76
-28.55
-33.19
-37.74
-42.43
-47.54
-53.17
-59.11
-64.58
-68.33
-68.94
-65.23
-56.78
-44.08
-28.53
-11.98
3.81
17.60
28.79
37.32
43.39
47.19
48.83
48.45
46.30
42.78
38.49
34.02
29.89
26.37
23.53
21.28
19.50
18.06
16.92
16.08
15.48
15.00
14.46
13.56
11.98
9.51
6.12
2.06
-2.31
-6.53
-10.29
-13.48
-16.22
-18.75
-21.38
-24.40
-28.07
-32.48
-37.54
-42.68
-46.84
-48.68
-46.99
-41.12
-31.39
-18.93
-5.41
7.53
18.70
27.60
34.27
39.07
42.31
44.15
44.61
43.70
41.50
38.36
34.69
31.04
27.79
25.08
22.85
20.87
18.88
16.79
14.63
12.58
10.79
9.30
8.00
6.58
4.72
2.12
-1.29
-5.32
-9.67
-13.97
-17.94
-21.47
-24.55
-27.26
-29.68
-32.00
-34.52
-37.66
-41.73
-46.63
-51.63
-55.42
-56.60
-54.12
-47.73
-38.14
-26.64
-14.66
-3.37
6.60
15.02
21.92
27.43
31.57
34.42
36.08
36.80
36.82
36.39
35.70
34.84
33.80
32.59
31.16
29.50
27.54
25.26
22.62
19.68
16.62
13.68
11.06
8.84
6.88
4.89
2.58
-0.16
-3.34
-6.79
-10.35
-13.99
-17.68
-21.43
-25.22
-29.04
-33.02
-37.37
-42.35
-47.93
-53.53
-58.01
-59.88
-57.79
-51.12
-40.21
-26.39
-11.50
2.66
14.87
24.56
31.77
36.86
40.21
42.10
42.75
42.37
41.20
39.50
37.56
35.55
33.51
31.43
29.18
26.64
23.76
20.52
17.02
13.47
10.02
6.77
3.72
0.75
-2.18
-5.09
-7.93
-10.66
-13.34
-16.09
-19.03
-22.16
-25.31
-28.31
-31.05
-33.65
-36.40
-39.75
-44.05
-49.38
-55.33
-61.02
-65.14
-66.33
-63.47
-56.11
-44.70
-30.56
-15.46
-1.14
11.04
20.46
27.10
31.27
33.39
33.83
32.92
30.97
28.46
25.88
23.73
22.33
21.77
21.82
22.09
22.18
21.82
21.04
20.02
19.03
18.21
17.50
16.61
15.20
13.01
10.01
6.33
2.29
-1.80
-5.73
-9.47
-13.10
-16.80
-20.78
-25.23
-30.31
-36.07
-42.43
-48.91
-54.62
-58.22
-58.24
-53.60
-44.05
-30.44
-14.42
2.01
17.16
30.04
40.27
47.88
53.02
55.79
56.32
54.86
51.87
47.96
43.72
39.53
35.52
31.62
27.65
23.55
19.48
15.75
12.80
10.90
9.98
9.61
9.11
7.82
5.46
2.17
-1.62
-5.44
-8.96
-12.24
-15.49
-18.98
-22.96
-27.59
-33.07
-39.53
-46.91
-54.69
-61.71
-66.33
-66.86
-62.18
-52.21
-38.05
-21.60
-5.04
9.83
22.00
31.23
37.83
42.27
44.89
45.84
45.24
43.34
40.60
37.62
34.96
32.92
31.43
30.22
28.96
27.46
25.79
24.24
23.09
22.39
21.98
21.40
20.14
17.76
14.11
9.30
3.68
-2.33
-8.38
-14.29
-20.02
-25.65
-31.32
-37.24
-43.67
-50.82
-58.61
-66.57
-73.65
-78.42
-79.35
-75.41
-66.41
-53.12
-37.12
-20.29
-4.33
9.60
20.91
29.53
35.75
39.95
42.55
43.85
44.10
43.47
42.09
40.14
37.84
35.38
32.91
30.55
28.33
26.25
24.37
22.77
21.55
20.73
20.14
19.45
18.15
15.81
12.21
7.45
1.93
-3.79
-9.18
-13.88
-17.84
-21.20
-24.28
-27.48
-31.27
-36.05
-42.02
-48.95
-56.03
-61.83
-64.68
-63.14
-56.58
-45.36
-30.89
-15.09
0.09
13.13
23.24
30.21
34.32
36.06
36.01
34.69
32.53
29.86
26.87
23.70
20.48
17.34
14.51
12.26
10.79
10.25
10.61
11.70
13.27
15.02
16.64
17.85
18.32
17.80
16.11
13.28
9.54
5.23
0.71
-3.80
-8.26
-12.78
-17.46
-22.38
-27.60
-33.23
-39.45
-46.40
-54.02
-61.74
-68.40
-72.50
-72.58
-67.87
-58.57
-45.87
-31.59
-17.55
-5.11
5.09
13.00
18.89
23.13
25.99
27.70
28.47
28.53
28.20
27.76
27.46
27.41
27.62
27.98
28.35
28.64
28.86
29.10
29.44
29.85
30.13
29.90
28.84
26.74
23.63
19.74
15.36
10.75
6.06
1.42
-3.15
-7.68
-12.25
-17.15
-22.74
-29.22
-36.45
-43.69
-49.61
-52.65
-51.45
-45.45
-35.05
-21.60
-6.94
7.13
19.30
28.90
35.86
40.41
42.94
43.70
42.98
41.00
38.05
34.45
30.52
26.51
22.58
18.85
15.42
12.42
10.04
8.44
7.74
7.91
8.72
9.68
10.20
9.63
7.63
4.20
-0.16
-4.78
-9.05
-12.68
-15.83
-19.03
-22.87
-27.84
-34.16
-41.64
-49.61
-56.95
-62.16
-63.75
-60.57
-52.27
-39.51
-23.83
-7.19
8.53
21.97
32.48
40.00
44.86
47.46
48.26
47.66
46.04
43.72
40.98
38.01
34.89
31.59
28.12
24.53
20.97
17.67
14.87
12.74
11.29
10.34
9.55
8.47
6.73
4.09
0.54
-3.76
-8.41
-12.93
-16.90
-20.08
-22.53
-24.71
-27.32
-31.15
-36.72
-44.04
-52.41
-60.44
-66.37
-68.55
-65.89
-58.15
-46.12
-31.29
-15.54
-0.58
12.37
22.73
30.50
36.07
39.96
42.63
44.40
45.46
45.86
45.58
44.63
43.07
40.89
38.16
34.92
31.24
27.29
23.38
19.88
17.13
15.23
14.09
13.30
12.36
10.81
8.36
4.99
0.90
-3.65
-8.42
-13.28
-18.16
-23.11
-28.26
-33.90
-40.40
-48.17
-57.28
-67.25
-76.81
-84.14
-87.27
-84.81
-76.42
-62.96
-46.22
-28.28
-10.97
4.43
17.31
27.48
35.01
40.01
42.73
43.54
42.86
41.15
38.81
35.99
32.83
29.39
25.79
22.19
18.81
15.86
13.49
11.84
10.94
10.73
11.03
11.56
12.00
12.00
11.22
9.39
6.39
2.31
-2.46
-7.45
-12.14
-16.24
-19.86
-23.40
-27.53
-32.81
-39.61
-47.83
-56.76
-65.21
-71.57
-74.22
-72.01
-64.55
-52.44
-37.11
-20.42
-4.18
10.27
22.18
31.36
37.92
42.13
44.26
44.55
43.28
40.84
37.66
34.17
30.63
27.23
23.95
20.80
17.89
15.41
13.59
12.56
12.24
12.30
12.25
11.60
10.09
7.60
4.41
0.86
-2.63
-5.74
-8.34
-10.56
-12.80
-15.58
-19.43
-24.74
-31.50
-39.29
-47.07
-53.45
-56.81
-55.85
-49.98
-39.56
-25.81
-10.49
4.62
18.10
29.31
38.14
44.80
49.50
52.29
53.18
52.34
50.22
47.53
44.84
42.43
40.22
37.81
34.88
31.38
27.59
23.97
20.96
18.74
17.06
15.42
13.15
9.72
4.91
-1.03
-7.53
-13.85
-19.39
-23.84
-27.28
-30.04
-32.68
-35.80
-39.89
-45.27
-51.69
-58.29
-63.57
-65.85
-63.76
-56.80
-45.56
-31.57
-16.65
-2.51
9.71
19.56
27.04
32.41
36.06
38.34
39.63
40.27
40.52
40.52
40.27
39.67
38.59
36.92
34.65
31.82
28.60
25.25
22.14
19.56
17.64
16.19
14.75
12.72
9.68
5.59
0.88
-3.75
-7.71
-10.82
-13.40
-16.08
-19.51
-24.12
-30.08
-37.32
-45.56
-54.25
-62.42
-68.69
-71.47
-69.51
-62.34
-50.67
-36.13
-20.75
-6.30
6.13
16.30
24.43
30.98
36.14
40.03
42.57
43.84
44.04
43.50
42.52
41.18
39.31
36.64
33.03
28.57
23.65
18.81
14.54
11.11
8.44
6.28
4.22
1.91
-0.91
-4.33
-8.27
-12.52
-16.77
-20.69
-24.07
-26.92
-29.52
-32.35
-35.97
-40.89
-47.35
-55.22
-63.81
-71.85
-77.67
-79.63
-76.68
-68.71
-56.66
-42.22
-27.21
-13.13
-0.74
9.76
18.57
25.96
32.17
37.33
41.50
44.69
46.92
48.16
48.43
47.76
46.25
43.99
41.09
37.63
33.77
29.71
25.69
21.95
18.56
15.39
12.14
8.52
4.35
-0.32
-5.20
-9.91
-14.09
-17.58
-20.40
-22.85
-25.39
-28.53
-32.72
-38.22
-44.90
-52.28
-59.37
-64.90
-67.52
-66.16
-60.30
-50.20
-36.81
-21.56
-6.03
8.37
20.68
30.42
37.55
42.38
45.35
46.93
47.48
47.11
45.89
43.80
40.99
37.78
34.60
31.85
29.69
28.05
26.72
25.50
24.24
22.82
21.11
18.95
16.18
12.81
9.03
5.21
1.72
-1.28
-3.89
-6.65
-10.32
-15.71
-23.24
-32.66
-42.86
-51.96
-57.86
-58.89
-54.39
-44.90
-31.99
-17.55
-3.37
9.32
19.85
27.98
33.73
37.30
39.01
39.28
38.52
37.07
35.09
32.59
29.58
26.07
22.20
18.27
14.61
11.57
9.45
8.44
8.53
9.50
10.85
11.89
11.86
10.27
6.98
2.37
-2.91
-8.19
-13.08
-17.64
-22.22
-27.39
-33.59
-41.02
-49.53
-58.42
-66.57
-72.39
-74.23
-70.85
-61.91
-48.18
-31.49
-14.06
2.03
15.52
25.94
33.50
38.73
42.02
43.70
44.04
43.38
42.20
40.90
39.73
38.61
37.20
35.14
32.13
28.19
23.69
19.19
15.30
12.40
10.52
9.26
7.96
5.92
2.64
-1.89
-7.26
-12.83
-17.97
-22.40
-26.18
-29.69
-33.43
-37.88
-43.38
-49.93
-57.16
-64.17
-69.57
-71.78
-69.40
-61.86
-49.59
-34.07
-17.43
-1.71
11.63
21.89
29.14
33.78
36.32
37.18
36.76
35.51
33.90
32.37
31.25
30.60
30.24
29.89
29.28
28.31
26.98
25.44
23.92
22.64
21.65
20.79
19.66
17.71
14.38
9.43
2.99
-4.32
-11.74
-18.45
-24.04
-28.57
-32.56
-36.81
-42.02
-48.56
-56.20
-64.07
-70.84
-74.96
-75.07
-70.34
-60.64
-46.65
-29.67
-11.40
6.31
21.89
34.26
42.88
47.78
49.43
48.57
45.99
42.47
38.70
35.11
31.94
29.18
26.70
24.28
21.89
19.64
17.81
16.63
16.19
16.33
16.64
16.64
15.85
14.00
10.93
6.74
1.68
-3.83
-9.41
-14.78
-19.88
-24.96
-30.47
-36.82
-44.08
-51.67
-58.41
-62.68
-62.95
-58.29
-48.71
-35.26
-19.63
-3.59
11.35
24.29
34.84
42.96
48.70
52.08
53.21
52.36
50.05
46.92
43.61
40.56
37.92
35.54
33.18
30.68
28.07
25.51
23.32
21.66
20.47
19.36
17.78
15.23
11.45
6.52
0.79
-5.23
-11.14
-16.77
-22.20
-27.66
-33.47
-39.98
-47.41
-55.76
-64.57
-72.84
-79.00
-81.38
-78.70
-70.57
-57.74
-41.86
-24.83
-8.38
6.39
18.99
29.33
37.42
43.19
46.68
48.05
47.74
46.39
44.63
42.91
41.41
40.00
38.51
36.72
34.47
31.83
29.01
26.36
24.21
22.74
21.85
21.14
19.99
17.83
14.30
9.45
3.70
-2.38
-8.37
-14.06
-19.61
-25.35
-31.66
-38.90
-47.16
-56.21
-65.34
-73.26
-78.39
-79.23
-74.78
-65.00
-50.84
-34.06
-16.61
-0.12
14.16
25.62
34.10
39.72
42.80
43.88
43.52
42.24
40.47
38.45
36.25
33.85
31.23
28.42
25.50
22.64
19.99
17.66
15.71
14.11
12.73
11.43
10.00
8.24
6.00
3.06
-0.67
-5.15
-10.06
-14.96
-19.48
-23.44
-27.09
-31.01
-35.90
-42.29
-50.26
-59.24
-68.05
-75.10
-78.74
-77.77
-71.69
-60.89
-46.56
-30.32
-13.81
1.56
14.82
25.45
33.36
38.73
41.87
43.24
43.30
42.48
41.15
39.58
37.98
36.37
34.61
32.58
30.15
27.33
24.35
21.60
19.47
18.20
17.71
17.64
17.45
16.56
14.60
11.46
7.33
2.64
-2.14
-6.66
-10.84
-14.86
-19.20
-24.42
-30.93
-38.70
-47.11
-54.99
-60.72
-62.79
-60.23
-52.92
-41.58
-27.56
-12.48
2.21
15.40
26.41
34.85
40.55
43.51
43.95
42.35
39.45
36.11
33.07
30.71
29.03
27.66
26.14
24.15
21.73
19.23
17.14
15.83
15.44
15.74
16.32
16.73
16.63
15.91
14.58
12.74
10.46
7.68
4.25
-0.08
-5.61
-12.66
-21.37
-31.54
-42.29
-52.16
-59.33
-62.14
-59.71
-52.24
-40.89
-27.39
-13.42
-0.24
11.49
21.42
29.45
35.48
39.51
41.60
42.00
41.11
39.45
37.44
35.35
33.22
30.93
28.26
25.13
21.66
18.22
15.20
12.86
11.11
9.48
7.26
3.88
-0.93
-6.98
-13.71
-20.33
-26.20
-30.97
-34.70
-37.83
-40.98
-44.75
-49.61
-55.56
-62.13
-68.22
-72.31
-72.79
-68.53
-59.27
-45.81
-29.79
-13.23
2.21
15.47
26.26
34.79
41.38
46.31
49.73
51.78
52.64
52.61
51.94
50.74
49.02
46.67
43.62
39.90
35.74
31.47
27.45
23.93
21.01
18.54
16.22
13.65
10.47
6.54
1.95
-2.97
-7.82
-12.23
-16.10
-19.59
-23.12
-27.19
-32.28
-38.74
-46.55
-55.24
-63.78
-70.69
-74.40
-73.60
-67.79
-57.49
-44.01
-29.18
-14.69
-1.72
9.16
17.91
24.71
29.75
33.16
35.09
35.78
35.54
34.71
33.50
32.00
30.21
28.15
25.97
23.93
22.37
21.46
21.19
21.26
21.20
20.48
18.70
15.65
11.40
6.20
0.40
-5.55
-11.32
-16.60
-21.25
-25.37
-29.16
-33.07
-37.57
-42.92
-48.90
-54.71
-59.04
-60.39
-57.55
-50.09
-38.51
-24.13
-8.67
6.20
19.27
29.88
37.88
43.44
46.96
48.86
49.59
49.47
48.70
47.31
45.27
42.59
39.28
35.43
31.18
26.79
22.56
18.84
15.89
13.77
12.26
10.89
9.14
6.69
3.46
-0.37
-4.41
-8.31
-11.88
-15.15
-18.44
-22.27
-27.27
-33.81
-41.78
-50.35
-57.91
-62.55
-62.61
-57.26
-46.81
-32.64
-16.74
-1.07
12.84
24.12
32.49
38.04
41.09
42.07
41.57
40.24
38.67
37.24
36.07
35.08
34.01
32.66
30.94
28.96
26.94
25.16
23.77
22.82
22.06
21.11
19.45
16.62
12.40
6.83
0.29
-6.70
-13.58
-19.98
-25.80
-31.29
-36.94
-43.31
-50.73
-59.01
-67.22
-73.84
-77.09
-75.56
-68.68
-57.02
-42.10
-25.80
-9.91
4.37
16.42
26.05
33.21
37.93
40.31
40.72
39.77
38.21
36.75
35.75
35.21
34.75
33.88
32.16
29.47
26.01
22.26
18.71
15.75
13.40
11.42
9.39
6.95
3.92
0.38
-3.46
-7.37
-11.23
-15.03
-18.80
-22.68
-26.88
-31.74
-37.63
-44.72
-52.78
-60.85
-67.39
-70.65
-69.17
-62.38
-50.77
-35.75
-19.33
-3.36
10.78
22.35
31.22
37.62
41.82
44.04
44.51
43.53
41.57
39.22
37.04
35.31
33.94
32.59
30.87
28.52
25.66
22.65
19.95
17.82
16.26
14.94
13.31
10.84
7.23
2.46
-3.14
-9.12
-14.99
-20.42
-25.26
-29.63
-33.75
-37.99
-42.77
-48.49
-55.25
-62.63
-69.58
-74.52
-75.74
-71.99
-62.97
-49.45
-33.05
-15.76
0.65
14.88
26.32
34.79
40.44
43.53
44.41
43.49
41.28
38.35
35.19
32.19
29.56
27.36
25.48
23.86
22.48
21.44
20.91
21.00
21.61
22.39
22.75
22.09
20.03
16.55
12.02
7.06
2.22
-2.17
-6.17
-10.13
-14.55
-19.96
-26.66
-34.59
-43.18
-51.29
-57.32
-59.68
-57.20
-49.61
-37.72
-23.19
-8.02
6.06
17.93
27.23
34.07
38.74
41.56
42.71
42.43
41.01
38.79
36.15
33.32
30.37
27.23
23.85
20.26
16.72
13.58
11.20
9.72
9.05
8.85
8.64
7.97
6.52
4.24
1.30
-2.04
-5.50
-8.95
-12.40
-16.08
-20.34
-25.60
-32.18
-40.09
-48.79
-57.12
-63.46
-66.11
-63.84
-56.45
-44.77
-30.48
-15.57
-1.70
10.18
19.74
27.15
32.70
36.67
39.21
40.47
40.72
40.31
39.60
38.79
37.84
36.51
34.49
31.61
27.95
23.88
19.92
16.56
13.98
12.00
10.22
8.08
5.21
1.46
-2.96
-7.62
-12.00
-15.78
-18.95
-21.80
-24.93
-28.87
-34.07
-40.66
-48.47
-56.95
-65.13
-71.61
-74.84
-73.38
-66.44
-54.18
-37.87
-19.50
-1.31
14.88
28.02
37.85
44.71
49.17
51.73
52.72
52.30
50.55
47.63
43.83
39.56
35.18
30.93
26.84
22.77
18.64
14.55
10.83
7.83
5.80
4.64
3.93
3.02
1.43
-1.02
-4.21
-7.77
-11.29
-14.53
-17.55
-20.58
-24.02
-28.26
-33.59
-40.14
-47.82
-56.26
-64.63
-71.70
-75.90
-75.79
-70.43
-59.90
-45.35
-28.65
-11.94
3.08
15.37
24.66
31.14
35.16
37.05
37.08
35.52
32.71
29.06
25.05
21.13
17.67
14.89
12.85
11.46
10.56
10.01
9.76
9.88
10.44
11.36
12.36
12.91
12.46
10.63
7.43
3.32
-1.00
-4.87
-7.95
-10.37
-12.68
-15.61
-19.75
-25.39
-32.41
-40.18
-47.66
-53.47
-56.22
-54.78
-48.67
-38.32
-25.00
-10.47
3.54
15.73
25.44
32.61
37.49
40.43
41.81
41.97
41.33
40.26
39.11
38.08
37.12
36.16
35.08
33.93
32.87
32.07
31.64
31.51
31.36
30.79
29.37
26.79
22.94
17.98
12.31
6.39
0.73
-4.36
-8.83
-12.94
-17.22
-22.37
-28.96
-37.19
-46.55
-55.79
-63.10
-66.59
-64.94
-57.87
-46.28
-31.91
-16.79
-2.62
9.51
19.23
26.65
32.07
35.80
38.13
39.28
39.51
39.04
38.05
36.63
34.75
32.34
29.38
25.97
22.37
18.96
16.18
14.32
13.41
13.14
12.95
12.22
10.42
7.30
3.02
-1.98
-7.14
-11.96
-16.20
-19.92
-23.53
-27.63
-32.86
-39.75
-48.52
-58.77
-69.32
-78.42
-83.93
-84.01
-77.73
-65.47
-48.83
-30.17
-11.91
4.12
16.96
26.49
33.13
37.45
40.02
41.23
41.35
40.54
38.97
36.73
34.01
31.00
27.97
25.15
22.69
20.73
19.38
18.68
18.70
19.42
20.61
21.83
22.55
22.26
20.67
17.80
14.04
9.88
5.81
2.02
-1.59
-5.41
-9.99
-15.90
-23.62
-33.30
-44.70
-57.03
-68.87
-78.39
-83.68
-83.33
-76.79
-64.70
-48.68
-30.89
-13.43
2.11
14.92
24.82
32.07
37.08
40.20
41.74
41.94
41.09
39.48
37.36
35.04
32.73
30.54
28.48
26.43
24.28
22.00
19.65
17.42
15.50
13.93
12.54
10.96
8.78
5.75
1.85
-2.63
-7.32
-11.81
-15.85
-19.51
-23.00
-26.72
-31.04
-36.28
-42.64
-50.12
-58.40
-66.74
-73.86
-78.08
-77.79
-71.97
-60.66
-45.03
-27.11
-9.19
6.91
20.10
30.04
36.92
41.10
42.95
42.84
41.19
38.49
35.29
32.05
29.16
26.77
24.85
23.28
21.84
20.39
18.97
17.80
17.18
17.27
17.89
18.54
18.50
17.16
14.35
10.40
6.00
1.87
-1.53
-4.23
-6.64
-9.42
-13.18
-18.39
-25.24
-33.51
-42.50
-50.96
-57.29
-59.85
-57.48
-49.86
-37.72
-22.57
-6.30
9.36
23.23
34.71
43.62
49.99
53.86
55.29
54.37
51.50
47.20
42.15
36.97
32.07
27.69
23.83
20.46
17.57
15.21
13.52
12.55
12.21
12.27
12.36
11.99
10.77
8.49
5.10
0.80
-4.08
-9.23
-14.43
-19.69
-25.27
-31.58
-39.04
-47.85
-57.63
-67.34
-75.42
-80.06
-79.82
-74.04
-63.11
-48.24
-31.13
-13.52
3.15
17.94
30.28
39.97
47.03
51.71
54.36
55.39
55.16
53.96
51.96
49.32
46.13
42.54
38.59
34.35
29.87
25.29
20.80
16.64
12.98
9.75
6.79
3.78
0.37
-3.58
-8.00
-12.60
-17.01
-20.93
-24.25
-27.11
-29.88
-33.03
-37.06
-42.35
-49.04
-56.84
-64.89
-71.76
-75.74
-75.25
-69.42
-58.41
-43.41
-26.34
-9.13
6.72
20.39
31.65
40.62
47.44
52.22
55.01
56.01
55.54
54.01
51.79
49.14
46.22
43.11
39.94
36.82
33.91
31.25
28.88
26.70
24.63
22.55
20.31
17.76
14.69
10.89
6.24
0.78
-5.35
-11.85
-18.42
-24.79
-30.82
-36.52
-42.05
-47.70
-53.83
-60.74
-68.42
-76.34
-83.34
-87.81
-88.06
-82.95
-72.32
-57.08
-39.03
-20.23
-2.54
12.82
25.28
34.78
41.60
46.02
48.39
49.00
48.24
46.45
44.02
41.32
38.67
36.20
34.01
32.04
30.27
28.71
27.44
26.56
26.01
25.56
24.90
23.70
21.79
19.14
15.81
11.90
7.43
2.50
-2.76
-8.13
-13.40
-18.41
-23.20
-28.05
-33.32
-39.41
-46.49
-54.23
-61.70
-67.49
-69.98
-67.94
-60.91
-49.54
-35.35
-20.24
-5.96
6.36
16.27
23.80
29.22
32.77
34.66
35.16
34.59
33.40
32.05
30.90
30.04
29.42
28.78
27.84
26.47
24.73
22.92
21.46
20.62
20.38
20.34
19.90
18.45
15.70
11.78
7.15
2.28
-2.49
-7.11
-11.71
-16.58
-21.99
-28.20
-35.34
-43.32
-51.64
-59.22
-64.48
-65.80
-62.01
-52.88
-39.32
-23.17
-6.57
8.67
21.42
31.39
38.78
43.85
46.80
47.70
46.70
44.12
40.61
36.97
33.80
31.44
29.83
28.66
27.57
26.25
24.66
22.88
21.10
19.41
17.72
15.81
13.34
9.98
5.63
0.43
-5.27
-11.02
-16.41
-21.27
-25.65
-29.72
-33.75
-37.97
-42.59
-47.81
-53.61
-59.68
-65.14
-68.59
-68.43
-63.39
-53.15
-38.55
-21.43
-4.12
11.42
23.92
33.02
39.06
42.67
44.45
44.87
44.17
42.61
40.37
37.66
34.73
31.78
29.00
26.41
24.13
22.21
20.82
20.06
20.01
20.60
21.53
22.42
22.90
22.65
21.53
19.47
16.46
12.55
7.79
2.26
-3.98
-10.76
-17.87
-25.03
-31.94
-38.52
-44.87
-51.42
-58.53
-66.26
-73.97
-80.29
-83.48
-81.93
-74.88
-62.69
-46.73
-28.99
-11.38
4.62
18.21
29.15
37.50
43.48
47.29
49.19
49.54
48.76
47.25
45.30
43.05
40.58
37.91
35.13
32.37
29.78
27.44
25.35
23.41
21.44
19.28
16.80
13.95
10.82
7.52
4.24
1.07
-2.02
-5.15
-8.58
-12.42
-16.69
-21.15
-25.41
-29.12
-32.14
-34.62
-37.17
-40.55
-45.43
-52.00
-59.60
-66.78
-71.65
-72.39
-67.95
-58.31
-44.48
-28.16
-11.22
4.66
18.20
28.66
35.83
40.03
41.95
42.47
42.32
42.00
41.57
40.87
39.61
37.64
34.98
31.81
28.40
25.03
21.88
19.11
16.84
15.06
13.78
12.88
12.20
11.48
10.45
8.87
6.58
3.61
0.19
-3.35
-6.63
-9.35
-11.49
-13.25
-15.12
-17.59
-21.16
-26.18
-32.81
-40.87
-49.71
-58.15
-64.61
-67.39
-65.20
-57.62
-45.29
-29.70
-12.85
3.36
17.57
29.10
37.87
44.10
48.15
50.29
50.71
49.63
47.36
44.30
40.85
37.34
33.93
30.64
27.44
24.38
21.60
19.36
17.87
17.17
17.04
17.02
16.59
15.28
12.83
9.16
4.44
-1.05
-6.94
-12.88
-18.58
-23.92
-28.97
-34.04
-39.55
-45.92
-53.25
-61.10
-68.34
-73.35
-74.41
-70.26
-60.60
-46.24
-28.87
-10.59
6.66
21.54
33.39
42.08
47.86
51.07
52.15
51.59
49.87
47.44
44.66
41.68
38.62
35.51
32.41
29.43
26.67
24.23
22.14
20.35
18.79
17.37
16.01
14.58
12.93
10.81
7.99
4.34
-0.11
-5.10
-10.23
-15.13
-19.60
-23.60
-27.36
-31.15
-35.33
-40.21
-46.07
-53.06
-61.02
-69.32
-76.74
-81.67
-82.46
-77.98
-68.07
-53.71
-36.66
-19.07
-2.75
11.19
22.41
31.10
37.69
42.57
46.01
48.10
49.03
48.99
48.26
47.03
45.47
43.60
41.36
38.75
35.80
32.65
29.47
26.38
23.48
20.73
18.01
15.21
12.22
8.95
5.34
1.36
-3.03
-7.84
-13.02
-18.42
-23.88
-29.21
-34.29
-39.11
-43.85
-48.90
-54.65
-61.38
-68.92
-76.45
-82.56
-85.51
-83.72
-76.37
-63.73
-47.15
-28.68
-10.45
5.85
19.30
29.67
37.20
42.24
45.20
46.39
46.21
45.10
43.54
42.00
40.75
39.85
39.16
38.37
37.18
35.37
32.88
29.87
26.64
23.49
20.62
17.92
15.14
11.95
8.18
3.84
-0.76
-5.28
-9.43
-13.15
-16.53
-19.78
-23.20
-27.10
-31.78
-37.46
-44.04
-50.94
-56.96
-60.47
-59.97
-54.56
-44.41
-30.73
-15.30
0.04
13.93
25.62
34.87
41.66
46.07
48.21
48.39
47.11
44.98
42.67
40.70
39.29
38.37
37.75
37.04
35.90
34.05
31.42
28.18
24.66
21.20
17.94
14.72
11.06
6.46
0.64
-6.21
-13.48
-20.36
-26.15
-30.63
-34.05
-37.02
-40.23
-44.30
-49.43
-55.36
-61.28
-65.97
-67.98
-66.06
-59.52
-48.53
-34.11
-17.85
-1.49
13.52
26.23
36.19
43.31
47.75
49.83
49.95
48.63
46.43
43.83
41.21
38.76
36.57
34.61
32.78
31.00
29.17
27.10
24.71
21.98
19.07
16.23
13.65
11.33
9.04
6.39
3.05
-1.05
-5.73
-10.64
-15.44
-20.04
-24.61
-29.47
-35.02
-41.48
-48.98
-57.33
-66.01
-74.00
-79.92
-82.24
-79.77
-72.07
-59.69
-44.03
-26.95
-10.31
4.52
16.75
26.16
32.90
37.34
39.91
41.02
41.05
40.27
38.92
37.23
35.41
33.66
32.09
30.66
29.22
27.57
25.62
23.39
21.13
19.08
17.39
16.02
14.71
13.04
10.61
7.18
2.78
-2.38
-7.96
-13.57
-18.92
-23.89
-28.45
-32.80
-37.27
-42.30
-48.10
-54.57
-61.02
-66.29
-68.89
-67.53
-61.58
-51.26
-37.58
-22.07
-6.37
8.18
20.67
30.65
38.04
43.00
45.84
46.98
46.90
46.01
44.67
43.04
41.17
38.95
36.23
33.01
29.40
25.67
22.13
19.12
16.83
15.27
14.28
13.47
12.37
10.56
7.76
4.07
-0.18
-4.46
-8.33
-11.60
-14.48
-17.47
-21.17
-26.07
-32.23
-39.14
-45.66
-50.33
-51.65
-48.65
-41.23
-30.20
-17.03
-3.35
9.50
20.75
30.07
37.44
42.82
46.14
47.32
46.49
44.05
40.66
37.06
33.84
31.30
29.34
27.70
26.02
24.10
21.96
19.76
17.71
15.90
14.22
12.44
10.25
7.50
4.16
0.40
-3.52
-7.36
-10.99
-14.46
-17.99
-21.85
-26.38
-31.85
-38.46
-46.17
-54.55
-62.62
-68.94
-71.87
-70.08
-63.03
-51.27
-36.27
-20.01
-4.34
9.46
20.78
29.58
36.02
40.28
42.47
42.77
41.47
39.03
36.02
32.88
29.95
27.33
24.97
22.80
20.77
18.86
17.16
15.77
14.75
14.10
13.65
13.14
12.28
10.78
8.55
5.66
2.22
-1.62
-5.84
-10.44
-15.47
-20.97
-26.89
-33.20
-39.97
-47.25
-54.88
-62.30
-68.43
-71.84
-71.17
-65.66
-55.45
-41.68
-26.07
-10.43
3.81
15.82
25.24
32.11
36.48
38.48
38.38
36.58
33.72
30.50
27.55
25.20
23.50
22.20
20.98
19.53
17.79
15.92
14.20
12.93
12.26
12.09
12.04
11.61
10.25
7.68
3.97
-0.48
-5.03
-9.13
-12.51
-15.23
-17.66
-20.36
-23.80
-28.29
-33.90
-40.44
-47.32
-53.61
-58.05
-59.31
-56.38
-48.92
-37.46
-23.28
-8.11
6.46
19.19
29.50
37.25
42.77
46.38
48.46
49.28
49.07
47.99
46.24
44.01
41.41
38.48
35.26
31.78
28.18
24.69
21.57
19.01
16.97
15.17
13.23
10.75
7.47
3.47
-0.99
-5.51
-9.72
-13.49
-16.92
-20.39
-24.41
-29.46
-35.86
-43.52
-51.72
-59.22
-64.27
-65.24
-61.03
-51.56
-37.85
-21.74
-5.33
9.60
21.98
31.43
38.09
42.29
44.39
44.69
43.49
41.16
38.05
34.51
30.84
27.25
23.86
20.76
18.05
15.78
14.02
12.86
12.32
12.29
12.51
12.58
12.02
10.44
7.71
3.94
-0.54
-5.30
-9.98
-14.35
-18.44
-22.39
-26.45
-31.01
-36.43
-42.87
-50.21
-57.66
-63.88
-67.17
-66.01
-59.63
-48.39
-33.67
-17.54
-2.01
11.49
22.33
30.55
36.54
40.68
43.28
44.45
44.33
43.12
41.03
38.26
35.00
31.35
27.43
23.33
19.22
15.34
11.99
9.41
7.78
7.02
6.81
6.62
5.89
4.25
1.64
-1.67
-5.24
-8.67
-11.70
-14.37
-16.91
-19.64
-22.96
-27.26
-32.93
-40.26
-49.21
-59.17
-68.86
-76.45
-80.02
-78.18
-70.49
-57.75
-41.66
-24.30
-7.56
7.24
19.58
29.35
36.71
41.83
44.82
45.82
45.07
42.99
40.07
36.71
33.16
29.50
25.71
21.85
18.12
14.84
12.33
10.72
9.96
9.76
9.69
9.37
8.44
6.65
3.91
0.31
-3.89
-8.28
-12.52
-16.39
-19.87
-23.22
-26.81
-31.07
-36.33
-42.68
-49.85
-57.09
-63.18
-66.65
-66.16
-60.98
-51.26
-38.01
-22.90
-7.62
6.46
18.55
28.39
36.00
41.48
44.93
46.40
46.05
44.28
41.63
38.73
36.05
33.81
31.94
30.26
28.59
26.94
25.43
24.28
23.54
23.10
22.58
21.50
19.42
16.10
11.62
6.38
0.93
-4.18
-8.66
-12.58
-16.31
-20.43
-25.45
-31.61
-38.68
-45.87
-51.91
-55.29
-54.66
-49.20
-39.04
-25.24
-9.59
5.96
19.73
30.67
38.52
43.52
46.17
46.99
46.35
44.50
41.70
38.22
34.45
30.77
27.45
24.60
22.10
19.79
17.58
15.48
13.74
12.63
12.29
12.60
13.09
13.11
12.05
9.53
5.58
0.60
-4.85
-10.28
-15.38
-20.13
-24.75
-29.57
-35.03
-41.48
-49.16
-57.85
-66.67
-74.11
-78.30
-77.57
-71.12
-59.28
-43.54
-26.03
-8.88
6.35
18.90
28.69
36.04
41.30
44.78
46.71
47.31
46.90
45.79
44.17
42.07
39.43
36.13
32.20
27.85
23.49
19.55
16.40
14.13
12.55
11.29
9.85
7.85
5.07
1.50
-2.71
-7.32
-11.99
-16.41
-20.28
-23.48
-26.06
-28.40
-31.06
-34.72
-39.88
-46.70
-54.72
-62.88
-69.59
-73.14
-72.12
-65.91
-54.86
-40.28
-24.04
-8.04
6.20
17.88
26.85
33.34
37.72
40.26
41.13
40.52
38.68
35.95
32.73
29.33
25.97
22.76
19.83
17.28
15.21
13.65
12.60
11.99
11.72
11.66
11.66
11.44
10.64
8.97
6.28
2.66
-1.58
-6.03
-10.34
-14.31
-18.00
-21.64
-25.57
-30.23
-35.92
-42.73
-50.28
-57.65
-63.43
-66.05
-64.09
-56.90
-44.82
-29.13
-11.77
5.26
20.39
32.79
42.25
48.98
53.29
55.40
55.49
53.81
50.80
46.96
42.80
38.62
34.50
30.43
26.39
22.59
19.37
17.12
16.00
15.97
16.68
17.50
17.77
16.97
14.80
11.32
6.95
2.30
-2.11
-6.00
-9.44
-12.86
-16.88
-22.12
-28.97
-37.38
-46.69
-55.67
-62.65
-65.92
-64.29
-57.44
-46.10
-31.87
-16.67
-2.20
10.36
20.47
28.02
33.19
36.21
37.35
36.98
35.45
33.15
30.43
27.54
24.66
21.86
19.23
16.80
14.59
12.67
11.24
10.45
10.42
11.16
12.40
13.69
14.45
14.18
12.58
9.63
5.55
0.73
-4.44
-9.70
-14.98
-20.48
-26.49
-33.40
-41.41
-50.32
-59.37
-67.26
-72.30
-72.90
-68.10
-57.90
-43.33
-26.23
-8.69
7.48
21.05
31.44
38.66
43.08
45.21
45.64
44.91
43.43
41.51
39.33
37.00
34.60
32.06
29.30
26.24
22.85
19.30
15.90
13.11
11.27
10.49
10.59
11.10
11.40
10.91
9.29
6.46
2.56
-2.02
-6.92
-11.79
-16.53
-21.16
-25.92
-31.16
-37.26
-44.46
-52.76
-61.67
-70.11
-76.48
-79.03
-76.45
-68.26
-55.15
-38.74
-21.17
-4.49
9.82
20.95
28.79
33.61
35.97
36.49
35.85
34.65
33.33
32.05
30.81
29.45
27.88
26.12
24.32
22.70
21.41
20.50
19.91
19.51
19.21
18.91
18.44
17.58
16.02
13.49
9.86
5.20
-0.18
-5.91
-11.62
-17.05
-22.14
-26.93
-31.52
-36.13
-41.02
-46.49
-52.78
-59.84
-67.08
-73.31
-76.92
-76.30
-70.41
-59.24
-43.96
-26.55
-9.20
6.24
18.81
28.36
35.30
40.18
43.46
45.33
45.88
45.25
43.75
41.78
39.78
38.01
36.51
35.15
33.71
32.13
30.48
28.94
27.64
26.54
25.45
24.02
21.93
19.00
15.22
10.76
5.92
1.07
-3.48
-7.52
-10.99
-14.01
-16.94
-20.15
-24.13
-29.27
-35.68
-43.03
-50.45
-56.62
-59.98
-59.29
-54.02
-44.53
-31.99
-18.03
-4.26
8.09
18.35
26.32
32.12
35.99
38.21
39.00
38.54
37.04
34.82
32.28
29.82
27.72
26.05
24.71
23.51
22.40
21.45
20.91
20.96
21.57
22.43
23.06
22.92
21.65
19.19
15.68
11.40
6.61
1.51
-3.82
-9.36
-15.15
-21.28
-27.88
-35.12
-43.12
-51.75
-60.41
-68.02
-73.09
-74.21
-70.42
-61.65
-48.74
-33.27
-16.99
-1.50
12.11
23.25
31.82
38.01
42.14
44.55
45.52
45.27
43.98
41.85
39.21
36.46
33.99
32.06
30.69
29.73
28.89
27.93
26.73
25.26
23.49
21.43
19.04
16.31
13.24
9.80
5.99
1.79
-2.81
-7.72
-12.80
-17.86
-22.70
-27.29
-31.74
-36.33
-41.49
-47.60
-54.85
-63.00
-71.21
-78.08
-81.92
-81.21
-75.14
-63.89
-48.62
-31.16
-13.47
2.80
16.55
27.34
35.12
40.17
42.89
43.82
43.55
42.58
41.35
40.01
38.46
36.47
33.85
30.59
26.95
23.36
20.21
17.69
15.75
14.12
12.54
10.93
9.32
7.83
6.43
4.96
3.14
0.68
-2.47
-6.15
-10.06
-13.83
-17.25
-20.33
-23.27
-26.44
-30.26
-35.13
-41.27
-48.65
-56.74
-64.50
-70.39
-72.78
-70.37
-62.71
-50.42
-35.05
-18.60
-2.95
10.56
21.37
29.46
35.11
38.63
40.32
40.44
39.27
37.21
34.65
31.90
29.16
26.50
23.93
21.51
19.37
17.66
16.55
16.18
16.54
17.51
18.76
19.85
20.32
19.86
18.39
16.14
13.45
10.70
8.06
5.45
2.60
-0.89
-5.38
-11.24
-18.70
-27.74
-37.91
-48.22
-57.07
-62.64
-63.34
-58.45
-48.38
-34.57
-19.01
-3.60
10.38
22.35
32.29
40.39
46.74
51.31
53.95
54.58
53.35
50.64
47.04
43.14
39.39
36.01
32.97
30.07
27.16
24.21
21.37
18.78
16.52
14.49
12.48
10.26
7.65
4.62
1.27
-2.30
-6.01
-9.86
-13.95
-18.39
-23.27
-28.62
-34.48
-41.01
-48.30
-56.42
-65.02
-73.22
-79.66
-82.75
-81.23
-74.53
-63.04
-48.00
-31.09
-13.95
2.04
15.99
27.47
36.31
42.56
46.47
48.41
48.88
48.36
47.24
45.76
43.93
41.70
39.08
36.15
33.16
30.28
27.60
25.10
22.64
20.20
17.89
15.88
14.27
12.93
11.60
9.83
7.31
3.89
-0.30
-5.04
-9.99
-14.90
-19.63
-24.24
-28.86
-33.77
-39.24
-45.53
-52.64
-60.20
-67.36
-72.78
-74.93
-72.56
-65.14
-53.17
-38.09
-21.86
-6.42
6.83
17.24
24.82
29.98
33.31
35.33
36.47
37.12
37.57
38.06
38.66
39.29
39.72
39.65
38.94
37.62
35.91
34.12
32.42
30.79
28.95
26.58
23.47
19.67
15.38
10.89
6.40
1.89
-2.75
-7.63
-12.66
-17.64
-22.28
-26.32
-29.78
-32.88
-36.09
-39.92
-44.92
-51.40
-59.26
-67.80
-75.67
-81.03
-82.13
-77.83
-68.07
-53.88
-37.14
-19.88
-3.77
10.18
21.63
30.54
37.05
41.28
43.42
43.78
42.85
41.13
39.05
36.82
34.46
31.98
29.38
26.78
24.30
22.08
20.14
18.46
17.01
15.77
14.77
13.99
13.35
12.68
11.77
10.44
8.59
6.27
3.54
0.49
-2.83
-6.46
-10.51
-15.18
-20.69
-27.27
-34.98
-43.50
-51.98
-59.13
-63.43
-63.55
-58.79
-49.36
-36.23
-20.91
-4.98
10.24
23.78
35.06
43.68
49.50
52.50
52.96
51.37
48.41
44.83
41.24
38.02
35.20
32.64
30.14
27.54
24.89
22.36
20.19
18.53
17.39
16.55
15.65
14.26
12.04
8.88
4.89
0.48
-3.95
-8.07
-11.80
-15.42
-19.39
-24.36
-30.79
-38.89
-48.30
-58.11
-66.80
-72.65
-74.13
-70.40
-61.54
-48.59
-33.21
-17.27
-2.29
10.73
21.33
29.54
35.59
39.84
42.61
44.16
44.67
44.27
43.14
41.51
39.61
37.65
35.66
33.51
31.01
28.05
24.71
21.25
18.02
15.29
13.08
11.22
9.35
7.15
4.49
1.42
-1.90
-5.30
-8.65
-11.99
-15.46
-19.27
-23.67
-28.88
-35.19
-42.72
-51.33
-60.38
-68.66
-74.50
-76.24
-72.76
-63.91
-50.56
-34.40
-17.37
-1.18
13.02
24.65
33.58
39.92
43.90
45.89
46.31
45.62
44.21
42.36
40.26
37.95
35.49
32.96
30.41
27.94
25.60
23.48
21.71
20.43
19.69
19.43
19.32
18.82
17.41
14.63
10.42
5.03
-1.02
-7.17
-13.04
-18.54
-23.76
-28.93
-34.27
-40.00
-46.38
-53.61
-61.62
-69.85
-76.97
-81.18
-80.68
-74.38
-62.40
-46.16
-27.87
-9.88
5.99
18.77
28.28
34.89
39.12
41.54
42.59
42.65
42.00
40.88
39.45
37.78
35.82
33.48
30.65
27.32
23.66
19.97
16.67
14.09
12.37
11.44
10.97
10.58
9.84
8.54
6.53
3.90
0.85
-2.40
-5.64
-8.77
-11.82
-15.02
-18.70
-23.32
-29.31
-36.92
-45.96
-55.62
-64.47
-70.76
-72.84
-69.70
-61.27
-48.47
-32.95
-16.56
-0.94
12.78
24.05
32.76
39.08
43.25
45.53
46.19
45.52
43.89
41.65
39.15
36.65
34.24
31.91
29.62
27.40
25.38
23.77
22.73
22.24
22.01
21.59
20.53
18.51
15.49
11.69
7.48
3.18
-1.00
-5.15
-9.57
-14.71
-20.97
-28.59
-37.44
-46.89
-55.77
-62.57
-65.74
-64.12
-57.30
-45.82
-31.14
-15.06
0.62
14.55
26.04
34.87
41.17
45.13
47.03
47.20
46.07
44.13
41.85
39.54
37.24
34.84
32.14
29.09
25.85
22.78
20.18
18.22
16.75
15.39
13.66
11.13
7.62
3.20
-1.87
-7.21
-12.39
-17.04
-20.89
-23.89
-26.26
-28.55
-31.50
-35.85
-41.98
-49.61
-57.73
-64.68
-68.61
-68.01
-62.19
-51.48
-37.12
-20.87
-4.49
10.58
23.40
33.51
40.80
45.38
47.58
47.90
46.91
45.17
43.08
40.80
38.31
35.50
32.36
28.98
25.57
22.33
19.48
17.11
15.25
13.87
12.85
11.97
10.95
9.44
7.16
3.97
-0.02
-4.48
-8.98
-13.18
-16.95
-20.41
-23.84
-27.66
-32.26
-38.04
-45.16
-53.43
-62.06
-69.65
-74.46
-74.87
-70.00
-60.05
-46.33
-30.76
-15.27
-1.32
10.44
19.92
27.37
33.05
37.18
39.89
41.35
41.75
41.29
40.07
38.14
35.45
31.99
27.95
23.65
19.53
15.99
13.32
11.59
10.64
10.19
9.90
9.44
8.51
6.88
4.49
1.40
-2.19
-5.97
-9.68
-13.13
-16.32
-19.45
-22.91
-27.21
-32.77
-39.81
-48.03
-56.51
-63.83
-68.36
-68.78
-64.39
-55.45
-43.04
-28.72
-14.12
-0.54
11.20
20.80
28.29
33.84
37.66
39.93
40.88
40.72
39.76
38.27
36.45
34.39
32.10
29.58
26.92
24.42
22.43
21.24
20.89
21.06
21.19
20.64
18.97
16.09
12.29
8.01
3.73
-0.32
-4.09
-7.82
-11.82
-16.43
-21.96
-28.60
-36.30
-44.62
-52.61
-58.87
-61.81
-60.17
-53.47
-42.23
-27.91
-12.46
2.23
14.85
24.84
32.21
37.27
40.41
41.84
41.75
40.35
38.02
35.19
32.29
29.59
27.19
25.02
22.96
20.95
19.09
17.54
16.51
16.03
15.94
15.85
15.25
13.69
10.89
6.88
1.94
-3.48
-8.91
-13.99
-18.62
-22.96
-27.39
-32.42
-38.47
-45.74
-53.90
-62.07
-68.91
-72.80
-72.34
-66.74
-56.14
-41.67
-25.08
-8.26
7.24
20.49
31.16
39.32
45.20
49.03
51.05
51.48
50.61
48.73
46.13
43.05
39.70
36.24
32.80
29.47
26.33
23.41
20.75
18.36
16.24
14.32
12.47
10.51
8.17
5.20
1.47
-3.04
-8.15
-13.54
-18.87
-23.89
-28.47
-32.68
-36.75
-41.00
-45.79
-51.33
-57.56
-63.95
-69.41
-72.51
-71.80
-66.37
-56.22
-42.33
-26.43
-10.43
4.03
16.08
25.47
32.51
37.67
41.43
44.11
45.83
46.67
46.61
45.69
44.00
41.70
38.98
36.01
32.86
29.58
26.10
22.47
18.78
15.20
12.05
9.48
7.49
5.88
4.25
2.26
-0.40
-3.82
-7.89
-12.42
-17.18
-21.95
-26.59
-30.96
-35.14
-39.30
-43.78
-48.93
-54.84
-61.17
-66.92
-70.73
-71.18
-67.29
-58.91
-46.76
-32.34
-17.37
-3.47
8.26
17.33
23.72
27.76
29.90
30.58
30.32
29.55
28.72
28.16
28.03
28.31
28.78
29.14
29.12
28.57
27.60
26.42
25.30
24.36
23.54
22.63
21.32
19.37
16.63
13.10
8.90
4.20
-0.72
-5.58
-10.13
-14.21
-17.85
-21.31
-25.02
-29.51
-35.23
-42.32
-50.46
-58.72
-65.66
-69.54
-68.90
-62.98
-52.07
-37.41
-20.92
-4.59
10.02
21.97
30.97
37.16
40.95
42.76
43.11
42.51
41.45
40.27
39.18
38.16
36.98
35.39
33.23
30.60
27.89
25.65
24.36
24.21
24.96
25.95
26.39
25.55
23.08
19.07
13.99
8.48
3.07
-1.96
-6.71
-11.51
-16.83
-23.09
-30.54
-39.18
-48.52
-57.62
-65.04
-69.20
-68.63
-62.64
-51.57
-36.79
-20.32
-4.24
9.87
21.18
29.56
35.34
38.98
40.86
41.29
40.53
38.91
36.75
34.37
32.02
29.73
27.42
24.96
22.31
19.49
16.70
14.16
12.00
10.20
8.52
6.58
3.97
0.38
-4.17
-9.39
-14.77
-19.72
-23.86
-27.06
-29.48
-31.59
-33.94
-37.14
-41.63
-47.51
-54.28
-60.82
-65.45
-66.47
-62.62
-53.62
-40.27
-24.24
-7.55
8.01
21.26
31.68
39.37
44.78
48.38
50.63
51.86
52.25
51.94
51.00
49.48
47.36
44.53
40.90
36.51
31.51
26.29
21.37
17.24
14.22
12.36
11.46
11.08
10.65
9.72
7.94
5.21
1.66
-2.45
-6.82
-11.29
-15.82
-20.51
-25.53
-31.13
-37.48
-44.78
-53.03
-61.82
-70.17
-76.63
-79.52
-77.50
-69.98
-57.49
-41.52
-24.09
-7.26
7.40
19.04
27.51
33.10
36.37
37.91
38.25
37.82
36.91
35.73
34.42
33.04
31.63
30.22
28.87
27.56
26.31
25.08
23.82
22.48
21.02
19.40
17.53
15.36
12.76
9.62
5.86
1.48
-3.43
-8.66
-13.92
-18.86
-23.28
-27.13
-30.58
-34.05
-37.98
-42.76
-48.52
-54.99
-61.50
-66.91
-69.86
-69.12
-63.89
-54.26
-41.17
-26.23
-11.21
2.37
13.62
22.25
28.38
32.31
34.31
34.68
33.72
31.88
29.67
27.57
25.92
24.83
24.20
23.78
23.35
22.76
22.11
21.54
21.29
21.48
22.00
22.55
22.72
22.12
20.56
18.09
14.95
11.48
7.98
4.56
1.13
-2.62
-7.10
-12.68
-19.62
-27.81
-36.66
-45.10
-51.67
-54.84
-53.51
-47.33
-36.91
-23.61
-9.19
4.71
16.99
27.07
34.91
40.65
44.49
46.56
47.02
46.08
44.07
41.50
38.83
36.47
34.54
32.93
31.36
29.58
27.50
25.22
22.99
21.05
19.45
18.00
16.38
14.21
11.24
7.50
3.18
-1.42
-6.05
-10.64
-15.28
-20.25
-25.85
-32.28
-39.75
-48.23
-57.43
-66.60
-74.46
-79.50
-80.22
-75.77
-66.22
-52.61
-36.62
-20.05
-4.42
9.29
20.65
29.57
36.14
40.57
43.14
44.22
44.28
43.76
42.97
42.03
40.83
39.16
36.85
33.82
30.22
26.30
22.31
18.47
14.91
11.71
8.89
6.43
4.21
1.93
-0.75
-4.11
-8.20
-12.77
-17.45
-21.86
-25.84
-29.52
-33.28
-37.63
-42.96
-49.39
-56.61
-63.82
-69.78
-73.09
-72.52
-67.44
-58.00
-45.15
-30.30
-15.03
-0.63
11.96
22.27
30.18
35.79
39.41
41.37
41.97
41.51
40.19
38.18
35.70
33.03
30.42
28.05
25.92
23.96
21.99
19.93
17.82
15.76
13.86
12.12
10.41
8.49
6.17
3.30
-0.16
-4.15
-8.56
-13.29
-18.21
-23.22
-28.25
-33.39
-38.89
-45.09
-52.20
-60.03
-67.83
-74.32
-77.93
-77.31
-71.70
-61.28
-47.06
-30.60
-13.62
2.44
16.58
28.16
36.89
42.63
45.49
45.86
44.38
41.86
39.08
36.61
34.57
32.79
30.86
28.42
25.37
21.92
18.54
15.71
13.79
12.79
12.43
12.19
11.57
10.17
7.86
4.75
1.11
-2.76
-6.63
-10.46
-14.43
-18.84
-24.11
-30.53
-38.07
-46.20
-53.80
-59.33
-61.17
-58.07
-49.70
-36.76
-20.84
-3.96
12.06
26.01
37.36
46.08
52.38
56.42
58.27
58.06
56.04
52.69
48.65
44.45
40.45
36.71
33.05
29.36
25.68
22.31
19.63
17.90
17.04
16.56
15.79
14.12
11.31
7.47
3.01
-1.57
-5.96
-10.17
-14.44
-19.18
-24.83
-31.76
-40.13
-49.79
-60.09
-69.79
-77.23
-80.64
-78.73
-71.16
-58.70
-43.03
-26.18
-9.91
4.64
17.11
27.56
36.23
43.25
48.58
52.16
53.99
54.28
53.36
51.58
49.18
46.22
42.68
38.60
34.11
29.59
25.46
22.08
19.57
17.70
16.05
14.06
11.27
7.47
2.73
-2.60
-8.04
-13.17
-17.76
-21.86
-25.83
-30.21
-35.60
-42.42
-50.77
-60.17
-69.53
-77.26
-81.65
-81.30
-75.59
-64.95
-50.67
-34.57
-18.50
-3.87
8.49
18.31
25.64
30.75
33.97
35.68
36.25
36.01
35.15
33.76
31.86
29.46
26.68
23.68
20.74
18.07
15.81
14.05
12.80
11.98
11.41
10.80
9.77
8.02
5.38
1.91
-2.05
-6.05
-9.70
-12.80
-15.51
-18.30
-21.79
-26.57
-33.00
-41.04
-50.05
-58.85
-65.85
-69.35
-67.99
-61.24
-49.54
-34.23
-17.18
-0.22
15.17
28.11
38.20
45.35
49.68
51.47
51.18
49.46
46.96
44.19
41.43
38.67
35.77
32.63
29.28
25.98
23.01
20.68
19.09
18.11
17.35
16.32
14.50
11.64
7.72
3.06
-1.86
-6.57
-10.72
-14.15
-17.01
-19.66
-22.69
-26.70
-32.12
-38.77
-45.75
-51.49
-54.13
-52.20
-45.06
-33.27
-18.35
-2.33
12.87
25.91
36.10
43.39
48.01
50.30
50.56
49.07
46.17
42.33
38.09
33.95
30.24
27.04
24.21
21.60
19.12
16.84
15.03
13.94
13.68
14.11
14.72
14.80
13.66
10.90
6.61
1.29
-4.29
-9.43
-13.84
-17.73
-21.82
-26.98
-33.91
-42.71
-52.67
-62.27
-69.55
-72.60
-70.18
-62.03
-49.01
-32.77
-15.31
1.53
16.34
28.27
37.01
42.71
45.77
46.86
46.64
45.68
44.36
42.84
41.07
38.85
35.99
32.36
28.08
23.46
19.02
15.31
12.64
11.02
10.08
9.21
7.76
5.27
1.55
-3.26
-8.78
-14.50
-19.99
-24.96
-29.38
-33.50
-37.85
-43.11
-49.81
-58.04
-67.17
-75.70
-81.59
-82.88
-78.28
-67.69
-52.28
-34.04
-15.27
2.21
17.19
29.26
38.48
45.05
49.25
51.39
51.81
50.94
49.31
47.41
45.52
43.71
41.84
39.72
37.22
34.36
31.37
28.54
26.03
23.81
21.63
19.05
15.63
11.05
5.28
