1677075739.00
64.000000
-0.00
-0.00
-0.00
-0.00
-0.00
-0.00
-0.00
-0.00
-0.00
-0.00
0.00
0.01
0.01
-0.00
-0.03
-0.05
-0.05
0.00
0.13
0.36
0.66
1.01
1.37
1.72
2.06
2.40
2.79
3.24
3.80
4.42
5.06
5.66
6.20
6.68
7.15
7.68
8.31
9.14
10.09
11.04
11.88
12.56
13.14
13.76
14.65
15.96
17.91
20.32
22.90
25.38
27.58
29.57
31.68
34.32
37.81
42.54
48.15
54.10
59.83
64.97
69.58
74.14
79.34
85.71
93.76
103.00
112.62
121.73
129.77
136.75
143.30
150.75
157.77
166.64
177.95
191.79
206.97
220.57
228.25
225.36
208.53
176.87
132.76
80.05
23.07
-34.94
-92.44
-149.16
-205.23
-260.37
-313.74
-363.87
-409.83
-450.91
-486.50
-515.74
-537.23
-549.22
-549.96
-538.37
-514.21
-478.67
-433.88
-382.45
-327.02
-269.84
-212.63
-156.66
-102.95
-52.37
-5.90
35.58
71.43
101.35
125.50
144.38
158.69
169.15
176.37
180.75
182.57
182.07
179.51
175.23
169.65
163.18
156.15
148.81
141.30
133.69
126.02
118.33
110.69
103.16
95.80
88.68
81.83
75.25
68.95
62.95
57.25
51.86
46.78
42.03
37.59
33.45
29.61
26.07
22.81
19.83
17.11
14.67
12.48
10.54
8.83
7.35
6.07
4.97
4.05
3.27
2.62
2.09
1.65
1.30
1.01
0.79
0.62
0.49
0.39
0.32
0.28
0.26
0.25
0.25
0.27
0.30
0.33
0.37
0.41
0.45
0.50
0.55
0.60
0.65
0.71
0.77
0.83
0.91
0.98
1.07
1.16
1.27
1.38
1.52
1.66
1.83
2.01
2.22
2.45
2.70
2.98
3.29
3.63
4.00
4.40
4.84
5.33
5.85
6.40
7.01
7.65
8.35
9.09
9.87
10.71
11.59
12.52
13.50
14.53
15.62
16.79
18.02
19.31
20.66
22.03
23.36
24.60
25.63
26.34
26.60
26.27
25.26
23.49
20.95
17.68
13.75
9.32
4.60
-0.20
-4.86
-9.13
-12.86
-15.88
-18.13
-19.57
-20.20
-20.14
-19.49
-18.43
-17.09
-15.63
-14.14
-12.66
-11.18
-9.67
-8.13
-6.55
-4.99
-3.44
-1.90
-0.35
1.28
3.08
5.18
7.49
9.95
12.46
14.90
17.20
19.36
21.49
23.79
26.54
29.62
32.92
36.22
39.31
42.01
44.34
46.51
48.97
52.22
56.12
60.39
64.59
68.14
70.65
72.01
72.58
73.04
74.16
75.78
77.42
78.14
76.82
72.36
64.01
51.28
33.42
14.03
-5.66
-25.30
-45.12
-65.73
-87.93
-112.61
-140.40
-171.14
-203.13
-233.51
-257.86
-271.60
-271.80
-258.40
-234.33
-204.24
-172.68
-142.53
-115.19
-90.58
-68.29
-48.43
-31.52
-18.01
-7.64
0.66
8.38
16.39
24.89
33.46
41.22
47.37
51.58
54.02
55.20
55.71
55.75
55.20
53.75
51.01
46.79
41.15
34.42
27.08
19.68
12.66
6.38
1.08
-3.14
-6.26
-8.37
-9.58
-9.99
-9.74
-9.00
-8.02
-7.09
-6.58
-6.82
-8.12
-10.76
-14.87
-20.34
-26.69
-33.09
-38.44
-41.76
-42.37
-40.08
-35.23
-28.42
-20.37
-11.82
-3.43
4.24
10.78
16.02
20.01
23.00
25.35
27.38
29.25
30.97
32.49
33.67
34.44
34.79
34.77
34.43
33.90
33.31
32.80
32.53
32.57
32.93
33.48
34.02
34.25
33.88
32.72
30.72
28.01
24.88
21.65
18.60
15.87
13.47
11.24
8.96
6.46
3.69
0.75
-2.21
-5.11
-8.02
-11.12
-14.55
-18.31
-22.21
-25.95
-29.28
-32.24
-35.11
-38.30
-42.18
-46.86
-52.13
-57.55
-62.57
-66.64
-69.25
-70.05
-68.83
-65.57
-60.40
-53.55
-45.29
-35.96
-25.96
-15.79
-6.01
2.88
10.61
17.18
22.91
28.27
33.76
39.67
46.05
52.72
59.33
65.41
70.48
74.12
76.04
76.23
74.89
72.51
69.65
66.84
64.37
62.23
60.09
57.47
53.89
49.11
43.15
36.38
29.36
22.72
16.97
12.41
9.00
6.50
4.52
2.65
0.58
-1.90
-4.91
-8.53
-12.77
-17.52
-22.45
-27.10
-31.02
-33.95
-36.00
-37.62
-39.40
-41.86
-45.20
-49.24
-53.47
-57.21
-59.80
-60.69
-59.52
-56.17
-50.75
-43.59
-35.19
-26.12
-16.94
-8.20
-0.27
6.58
12.32
17.06
21.09
24.67
27.95
30.94
33.55
35.71
37.44
38.89
40.20
41.43
42.49
43.20
43.49
43.41
43.17
43.05
43.21
43.62
44.03
44.10
43.47
41.93
39.43
36.14
32.35
28.32
24.24
20.12
15.84
11.29
6.45
1.41
-3.62
-8.46
-13.02
-17.25
-21.12
-24.48
-27.10
-28.77
-29.49
-29.49
-29.26
-29.34
-30.20
-32.00
-34.72
-38.12
-41.94
-45.93
-49.88
-53.58
-56.77
-59.06
-59.97
-59.10
-56.24
-51.57
-45.66
-39.31
-33.31
-28.05
-23.50
-19.15
-14.40
-8.86
-2.58
3.90
9.87
14.74
18.28
20.68
22.32
23.54
24.49
25.10
25.29
25.23
25.28
25.96
27.57
29.97
32.61
34.68
35.56
35.06
33.51
31.56
29.87
28.78
28.18
27.65
26.65
24.83
22.11
18.68
14.85
10.98
7.25
3.69
0.17
-3.53
-7.57
-11.95
-16.49
-20.89
-24.75
-27.80
-29.97
-31.39
-32.38
-33.29
-34.45
-36.00
-37.87
-39.77
-41.18
-41.42
-39.78
-35.72
-29.08
-20.23
-10.08
0.17
9.31
16.47
21.37
24.27
25.75
26.45
26.78
26.95
26.94
26.73
26.34
25.79
25.11
24.30
23.34
22.24
21.16
20.30
19.93
20.21
21.14
22.52
23.92
24.90
25.13
24.47
23.09
21.37
19.72
18.43
17.55
16.90
16.18
15.18
13.82
12.23
10.58
9.01
7.54
6.04
4.34
2.32
-0.02
-2.57
-5.19
-7.78
-10.34
-12.99
-15.86
-19.06
-22.63
-26.62
-31.05
-35.91
-41.04
-46.06
-50.36
-53.19
-53.81
-51.77
-47.02
-39.98
-31.38
-22.12
-13.00
-4.58
2.88
9.32
14.75
19.17
22.56
24.92
26.43
27.35
28.05
28.73
29.44
29.99
30.13
29.77
29.00
28.14
27.48
27.22
27.30
27.55
27.76
27.75
27.44
26.77
25.73
24.29
22.58
20.77
19.08
17.67
16.51
15.40
14.11
12.46
10.44
8.20
5.96
3.89
2.00
0.18
-1.72
-3.80
-6.05
-8.35
-10.58
-12.70
-14.82
-17.16
-19.94
-23.25
-27.01
-30.84
-34.21
-36.55
-37.37
-36.41
-33.70
-29.51
-24.32
-18.62
-12.85
-7.33
-2.28
2.15
5.81
8.56
10.28
10.94
10.59
9.44
7.73
5.76
3.84
2.25
1.16
0.66
0.68
1.02
1.42
1.64
1.52
1.10
0.55
0.08
-0.19
-0.29
-0.43
-0.89
-1.87
-3.38
-5.23
-7.13
-8.76
-9.91
-10.54
-10.74
-10.70
-10.63
-10.75
-11.18
-12.00
-13.15
-14.55
-16.09
-17.73
-19.48
-21.47
-23.84
-26.71
-30.02
-33.55
-36.86
-39.33
-40.29
-39.21
-35.84
-30.41
-23.49
-15.92
-8.52
-1.86
3.83
8.57
12.55
15.89
18.61
20.63
21.87
22.31
22.07
21.27
20.04
18.45
16.56
14.50
12.45
10.69
9.48
8.96
9.16
9.94
11.12
12.47
13.79
14.86
15.48
15.53
15.00
14.07
13.01
12.07
11.34
10.66
9.72
8.15
5.80
2.70
-0.84
-4.44
-7.72
-10.50
-12.75
-14.62
-16.31
-18.07
-20.14
-22.74
-26.02
-30.00
-34.48
-38.98
-42.83
-45.29
-45.74
-43.85
-39.69
-33.71
-26.65
-19.31
-12.37
-6.25
-1.09
3.20
6.83
10.03
12.94
15.63
18.14
20.45
22.53
24.34
25.79
26.79
27.34
27.55
27.66
27.97
28.70
29.87
31.23
32.36
32.82
32.41
31.17
29.43
27.64
26.17
25.16
24.47
23.79
22.77
21.11
18.77
15.84
12.55
9.11
5.70
2.45
-0.57
-3.33
-5.95
-8.57
-11.48
-14.92
-18.98
-23.60
-28.44
-33.15
-37.44
-41.29
-44.86
-48.36
-51.83
-54.95
-57.05
-57.30
-55.00
-49.88
-42.24
-32.84
-22.76
-13.03
-4.46
2.51
7.75
11.36
13.55
14.62
14.90
14.76
14.51
14.34
14.22
13.92
13.16
11.79
9.91
7.87
6.09
4.89
4.34
4.28
4.46
4.63
4.65
4.41
3.88
3.02
1.86
0.52
-0.77
-1.80
-2.43
-2.76
-3.04
-3.58
-4.63
-6.28
-8.43
-10.88
-13.37
-15.71
-17.87
-19.98
-22.24
-24.87
-27.93
-31.35
-34.93
-38.39
-41.38
-43.48
-44.28
-43.58
-41.56
-38.82
-36.22
-34.44
-33.64
-33.26
-32.31
-29.73
-24.83
-17.53
-8.12
2.87
14.96
27.64
40.24
51.93
61.82
69.24
73.95
76.25
76.86
76.79
77.08
78.47
81.19
84.76
88.14
90.03
89.53
86.53
81.90
77.07
73.51
71.96
72.20
73.29
74.06
73.76
72.29
70.10
67.81
65.77
64.01
62.19
60.00
57.38
54.55
51.85
49.42
47.09
44.37
40.74
35.90
29.98
23.45
16.92
10.87
5.54
0.96
-3.00
-6.48
-9.60
-12.53
-15.47
-18.57
-21.95
-25.61
-29.45
-33.29
-37.01
-40.62
-44.30
-48.33
-53.00
-58.37
-64.17
-69.79
-74.30
-76.81
-76.66
-73.69
-68.31
-61.31
-53.67
-46.26
-39.70
-34.29
-30.05
-26.83
-24.33
-22.21
-20.16
-18.01
-15.75
-13.59
-11.88
-10.94
-10.92
-11.74
-13.12
-14.65
-15.96
-16.80
-17.10
-16.93
-16.44
-15.84
-15.22
-14.58
-13.77
-12.46
-10.25
-6.82
-2.05
3.90
10.60
17.49
24.05
29.90
34.83
38.79
41.80
43.93
45.23
45.77
45.60
44.70
43.05
40.65
37.60
34.19
30.76
27.65
24.98
22.66
20.40
17.87
14.77
10.91
6.21
0.68
-5.60
-12.38
-19.27
-25.74
-31.22
-35.25
-37.60
-38.32
-37.69
-36.11
-33.95
-31.46
-28.77
-25.86
-22.75
-19.49
-16.22
-13.18
-10.59
-8.60
-7.11
-5.94
-4.84
-3.63
-2.30
-0.97
0.24
1.25
2.03
2.58
2.80
2.58
1.74
0.27
-1.73
-4.00
-6.28
-8.42
-10.46
-12.56
-14.93
-17.68
-20.81
-24.23
-27.80
-31.39
-34.90
-38.20
-41.20
-43.86
-46.20
-48.33
-50.45
-52.80
-55.55
-58.70
-62.05
-65.24
-67.87
-69.74
-70.97
-71.96
-73.28
-75.34
-78.18
-81.37
-84.13
-85.63
-85.18
-82.41
-77.22
-69.66
-59.85
-48.00
-34.43
-19.64
-4.23
11.18
26.08
40.16
53.20
65.11
75.77
85.08
93.03
99.69
105.25
109.92
113.89
117.19
119.72
121.22
121.35
119.81
116.45
111.32
104.75
97.21
89.21
81.25
73.65
66.59
60.08
53.99
48.12
42.21
36.07
29.62
22.95
16.25
9.81
3.91
-1.24
-5.53
-8.98
-11.76
-14.12
-16.35
-18.71
-21.29
-24.06
-26.78
-29.20
-31.04
-32.18
-32.62
-32.50
-32.06
-31.55
-31.24
-31.38
-32.14
-33.59
-35.59
-37.75
-39.45
-39.94
-38.59
-35.04
-29.43
-22.29
-14.45
-6.80
-0.12
5.13
8.79
11.03
12.15
12.50
12.35
11.85
11.01
9.80
8.17
6.21
4.03
1.80
-0.31
-2.15
-3.57
-4.42
-4.56
-3.94
-2.62
-0.84
1.14
3.03
4.64
5.87
6.72
7.20
7.31
7.10
6.61
5.86
4.82
3.43
1.57
-0.85
-3.80
-7.09
-10.48
-13.68
-16.50
-18.89
-20.96
-22.85
-24.77
-26.89
-29.32
-32.12
-35.21
-38.36
-41.24
-43.51
-44.96
-45.64
-45.86
-46.05
-46.66
-47.89
-49.62
-51.38
-52.48
-52.22
-50.05
-45.75
-39.52
-31.87
-23.49
-15.04
-7.03
0.32
6.92
12.79
18.00
22.64
26.82
30.66
34.24
37.53
40.42
42.72
44.25
44.97
44.95
44.37
43.37
42.04
40.31
38.12
35.35
31.98
28.10
23.88
19.58
15.41
11.55
8.01
4.79
1.88
-0.67
-2.71
-4.13
-4.90
-5.15
-5.16
-5.20
-5.48
-6.06
-6.90
-7.91
-9.12
-10.60
-12.48
-14.77
-17.34
-19.89
-22.14
-23.88
-25.16
-26.21
-27.39
-29.03
-31.31
-34.22
-37.53
-40.97
-44.20
-46.88
-48.64
-49.12
-47.95
-44.87
-39.86
-33.12
-25.23
-16.92
-8.96
-1.94
3.82
8.30
11.69
14.22
16.03
17.22
17.88
18.12
18.16
18.21
18.48
19.03
19.79
20.66
21.48
22.18
22.72
23.17
23.59
24.08
24.68
25.33
25.91
26.23
26.14
25.62
24.78
23.81
22.85
21.96
21.08
20.15
19.16
18.25
17.60
17.30
17.23
17.10
16.58
15.44
13.63
11.28
8.60
5.76
2.87
-0.05
-2.96
-5.87
-8.86
-12.05
-15.67
-19.80
-24.32
-28.72
-32.20
-33.88
-33.07
-29.60
-23.84
-16.60
-8.88
-1.55
4.84
10.08
14.27
17.69
20.59
23.20
25.65
27.96
30.03
31.73
32.95
33.63
33.78
33.50
32.90
32.10
31.22
30.40
29.78
29.48
29.48
29.60
29.58
29.09
27.96
26.19
23.99
21.64
19.36
17.20
15.08
12.85
10.37
7.61
4.66
1.68
-1.17
-3.77
-6.11
-8.24
-10.28
-12.34
-14.52
-16.84
-19.31
-21.86
-24.42
-26.90
-29.27
-31.52
-33.75
-36.11
-38.79
-41.97
-45.71
-49.85
-53.93
-57.29
-59.12
-58.71
-55.66
-50.01
-42.23
-33.15
-23.77
-14.97
-7.34
-1.07
4.01
8.25
12.01
15.47
18.57
21.17
23.12
24.37
25.01
25.25
25.20
24.96
24.53
24.01
23.51
23.25
23.44
24.16
25.29
26.56
27.63
28.23
28.23
27.67
26.69
25.42
23.98
22.41
20.73
18.95
17.09
15.13
13.03
10.73
8.22
5.50
2.64
-0.25
-3.11
-5.89
-8.64
-11.39
-14.18
-17.03
-19.92
-22.83
-25.73
-28.61
-31.51
-34.52
-37.78
-41.43
-45.49
-49.79
-53.86
-56.97
-58.29
-57.13
-53.15
-46.51
-37.85
-28.11
-18.26
-9.13
-1.26
5.15
10.16
14.05
17.16
19.80
22.21
24.48
26.49
28.06
29.00
29.19
28.68
27.66
26.44
25.34
24.63
24.45
24.82
25.59
26.51
27.28
27.63
27.39
26.53
25.20
23.66
22.17
20.89
19.80
18.78
17.69
16.50
15.31
14.26
13.45
12.82
12.20
11.40
10.28
8.84
7.19
5.51
4.01
2.89
2.23
2.03
2.14
2.26
2.12
1.49
0.37
-0.99
-2.10
-2.40
-1.30
1.64
6.66
13.76
22.61
32.65
43.14
53.39
62.83
71.26
78.67
85.16
90.77
95.32
98.60
100.43
100.89
100.29
98.98
97.10
94.49
90.82
85.83
79.61
72.60
65.42
58.53
51.99
45.52
38.71
31.34
23.45
15.30
7.15
-0.96
-9.22
-17.98
-27.55
-38.13
-49.68
-61.98
-74.63
-87.03
-98.44
-108.09
-115.37
-120.10
-122.64
-123.74
-124.32
-125.09
-126.41
-128.26
-130.49
-133.00
-135.80
-138.94
-142.37
-145.82
-148.83
-150.85
-151.39
-150.10
-146.74
-141.14
-133.15
-122.80
-110.31
-96.21
-81.24
-66.19
-51.74
-38.30
-25.97
-14.64
-4.14
5.71
15.00
23.77
31.97
39.51
46.22
51.87
56.34
59.62
61.95
63.79
65.60
67.75
70.26
72.80
74.79
75.62
74.93
72.73
69.43
65.75
62.42
59.92
58.34
57.35
56.46
55.18
53.26
50.69
47.57
44.00
40.01
35.59
30.70
25.41
19.77
13.85
7.65
1.13
-5.70
-12.77
-19.92
-27.07
-34.15
-41.19
-48.22
-55.19
-61.96
-68.25
-73.61
-77.48
-79.16
-78.04
-73.74
-66.37
-56.55
-45.35
-33.98
-23.52
-14.64
-7.54
-2.04
2.27
5.85
9.11
12.31
15.57
18.81
21.83
24.38
26.23
27.33
27.75
27.74
27.63
27.70
28.15
29.03
30.24
31.57
32.73
33.44
33.52
32.94
31.86
30.56
29.35
28.36
27.52
26.59
25.27
23.37
20.95
18.25
15.61
13.25
11.18
9.19
7.01
4.46
1.54
-1.63
-4.84
-7.96
-10.93
-13.78
-16.55
-19.30
-22.08
-25.02
-28.33
-32.26
-36.88
-41.98
-46.93
-50.73
-52.25
-50.65
-45.68
-37.81
-28.14
-18.01
-8.68
-0.91
5.04
9.41
12.67
15.30
17.66
19.95
22.14
24.15
25.83
27.00
27.55
27.49
26.91
26.08
25.33
25.00
25.32
26.34
27.85
29.42
30.54
30.77
29.91
28.06
25.56
22.89
20.43
18.41
16.78
15.34
13.79
11.92
9.62
6.96
4.15
1.42
-1.04
-3.23
-5.27
-7.36
-9.69
-12.32
-15.23
-18.30
-21.42
-24.48
-27.42
-30.16
-32.73
-35.25
-37.99
-41.25
-45.18
-49.58
-53.76
-56.71
-57.36
-54.98
-49.46
-41.36
-31.68
-21.55
-11.91
-3.26
4.22
10.62
16.10
20.70
24.43
27.24
29.19
30.47
31.37
32.12
32.81
33.34
33.53
33.25
32.54
31.70
31.13
31.15
31.84
32.93
33.97
34.43
33.99
32.60
30.47
27.98
25.49
23.20
21.16
19.32
17.55
15.74
13.77
11.53
9.01
6.21
3.27
0.28
-2.60
-5.35
-8.02
-10.71
-13.54
-16.59
-19.86
-23.29
-26.74
-30.05
-33.08
-35.76
-38.14
-40.51
-43.25
-46.72
-50.95
-55.52
-59.53
-61.82
-61.33
-57.48
-50.38
-40.78
-29.86
-18.88
-8.83
-0.33
6.41
11.49
15.23
17.99
20.17
22.08
23.91
25.71
27.42
28.94
30.13
30.90
31.25
31.22
30.92
30.50
30.17
30.09
30.35
30.86
31.36
31.53
31.12
30.02
28.37
26.41
24.42
22.58
20.91
19.36
17.79
16.16
14.51
12.89
11.40
10.05
8.79
7.50
6.03
4.23
2.04
-0.54
-3.46
-6.59
-9.76
-12.80
-15.53
-17.87
-19.89
-21.86
-24.19
-27.30
-31.45
-36.53
-41.94
-46.70
-49.64
-49.76
-46.54
-40.17
-31.41
-21.48
-11.58
-2.69
4.65
10.33
14.56
17.64
19.92
21.68
23.14
24.43
25.59
26.65
27.54
28.17
28.46
28.33
27.79
27.02
26.33
26.06
26.46
27.53
28.96
30.24
30.88
30.52
29.15
26.99
24.43
21.82
19.40
17.26
15.34
13.57
11.83
10.02
8.08
5.93
3.55
0.91
-1.99
-5.11
-8.39
-11.73
-15.03
-18.18
-21.08
-23.67
-25.96
-27.96
-29.78
-31.56
-33.50
-35.83
-38.74
-42.30
-46.29
-50.15
-53.04
-54.00
-52.29
-47.63
-40.39
-31.45
-21.96
-12.96
-5.13
1.29
6.43
10.60
14.11
17.16
19.84
22.19
24.23
25.94
27.29
28.22
28.64
28.56
28.05
27.37
26.78
26.51
26.66
27.12
27.64
27.95
27.83
27.21
26.17
24.82
23.28
21.62
19.89
18.12
16.34
14.54
12.69
10.73
8.64
6.43
4.23
2.17
0.33
-1.29
-2.83
-4.52
-6.56
-9.08
-12.07
-15.37
-18.78
-22.00
-24.83
-27.22
-29.30
-31.43
-34.05
-37.46
-41.66
-46.17
-50.14
-52.54
-52.52
-49.64
-44.06
-36.41
-27.59
-18.53
-10.00
-2.50
3.77
8.76
12.64
15.61
17.91
19.76
21.30
22.61
23.66
24.37
24.68
24.52
23.94
23.07
22.13
21.31
20.78
20.53
20.46
20.41
20.26
19.96
19.55
19.06
18.52
17.88
17.05
15.96
14.66
13.26
11.92
10.73
9.69
8.75
7.81
6.74
5.44
3.77
1.65
-0.96
-3.97
-7.24
-10.53
-13.61
-16.37
-18.87
-21.34
-24.10
-27.47
-31.68
-36.63
-41.94
-46.85
-50.39
-51.61
-49.92
-45.24
-38.07
-29.37
-20.21
-11.51
-3.86
2.51
7.66
11.74
14.99
17.57
19.67
21.40
22.81
23.85
24.38
24.24
23.42
22.06
20.49
19.13
18.33
18.22
18.73
19.56
20.37
20.89
20.93
20.46
19.52
18.24
16.78
15.31
13.94
12.69
11.50
10.22
8.73
6.96
4.95
2.80
0.61
-1.59
-3.83
-6.17
-8.65
-11.25
-13.92
-16.60
-19.30
-22.08
-25.01
-28.23
-31.84
-35.89
-40.33
-44.91
-49.09
-52.14
-53.24
-51.77
-47.49
-40.74
-32.25
-23.01
-13.97
-5.81
1.08
6.60
10.87
14.06
16.39
18.04
19.13
19.72
19.85
19.56
18.92
18.04
17.06
16.11
15.34
14.90
14.92
15.51
16.63
18.17
19.79
21.11
21.77
21.62
20.73
19.37
17.89
16.63
15.75
15.26
14.98
14.67
14.05
12.85
10.91
8.21
4.85
1.09
-2.76
-6.48
-10.05
-13.65
-17.61
-22.23
-27.55
-33.26
-38.68
-42.93
-45.15
-44.70
-41.40
-35.50
-27.68
-18.88
-10.06
-2.04
4.63
9.71
13.27
15.60
17.10
18.20
19.26
20.42
21.60
22.54
22.96
22.69
21.77
20.43
18.95
17.66
16.72
16.18
16.01
16.08
16.24
16.32
16.13
15.51
14.36
12.69
10.62
8.35
6.17
4.29
2.81
1.66
0.62
-0.59
-2.16
-4.14
-6.38
-8.68
-10.87
-12.96
-15.16
-17.74
-20.98
-24.98
-29.66
-34.76
-39.92
-44.67
-48.45
-50.67
-50.73
-48.27
-43.29
-36.31
-28.28
-20.31
-13.37
-8.02
-4.26
-1.67
0.30
2.12
3.97
5.82
7.49
8.80
9.67
10.11
10.22
10.15
10.09
10.21
10.68
11.58
12.82
14.20
15.44
16.30
16.64
16.51
15.95
15.04
13.77
12.10
10.03
7.69
5.29
3.04
1.03
-0.81
-2.62
-4.56
-6.63
-8.73
-10.75
-12.60
-14.26
-15.72
-16.91
-17.71
-18.01
-17.83
-17.37
-16.94
-16.80
-16.93
-17.02
-16.55
-14.90
-11.72
-7.03
-1.22
5.00
10.93
16.11
20.41
24.07
27.50
31.03
34.72
38.37
41.58
43.96
45.25
45.36
44.36
42.41
39.75
36.69
33.55
30.65
28.26
26.48
25.30
24.56
24.02
23.42
22.51
21.15
19.33
17.17
14.88
12.63
10.44
8.22
5.79
3.00
-0.10
-3.34
-6.46
-9.28
-11.77
-14.12
-16.56
-19.35
-22.62
-26.40
-30.70
-35.42
-40.37
-45.17
-49.14
-51.47
-51.36
-48.36
-42.61
-34.84
-26.17
-17.77
-10.47
-4.60
-0.00
3.70
6.87
9.71
12.29
14.60
16.70
18.64
20.39
21.83
22.78
23.09
22.79
22.08
21.28
20.69
20.40
20.38
20.44
20.37
20.04
19.36
18.30
16.77
14.71
12.09
9.00
5.57
2.07
-1.23
-4.14
-6.52
-8.40
-9.89
-11.13
-12.29
-13.52
-14.90
-16.50
-18.38
-20.54
-22.99
-25.70
-28.66
-31.89
-35.48
-39.51
-43.95
-48.53
-52.69
-55.63
-56.54
-54.88
-50.48
-43.71
-35.32
-26.23
-17.30
-9.17
-2.17
3.65
8.41
12.36
15.69
18.58
21.11
23.34
25.29
27.00
28.48
29.69
30.55
30.99
31.04
30.78
30.44
30.20
30.19
30.39
30.64
30.74
30.46
29.65
28.29
26.46
24.30
22.01
19.75
17.66
15.78
14.08
12.50
10.96
9.42
7.84
6.14
4.19
1.87
-0.89
-4.07
-7.49
-10.92
-14.09
-16.86
-19.24
-21.37
-23.48
-25.83
-28.62
-31.96
-35.82
-39.92
-43.77
-46.66
-47.79
-46.57
-42.81
-36.83
-29.37
-21.35
-13.57
-6.55
-0.51
4.58
8.78
12.23
15.03
17.32
19.25
20.93
22.44
23.73
24.76
25.45
25.79
25.80
25.55
25.16
24.81
24.67
24.89
25.52
26.40
27.32
27.98
28.17
27.77
26.82
25.39
23.61
21.58
19.41
17.20
15.06
13.04
11.19
9.44
7.69
5.82
3.80
1.65
-0.56
-2.73
-4.84
-6.92
-9.02
-11.15
-13.19
-14.93
-16.20
-16.96
-17.47
-18.18
-19.59
-22.00
-25.30
-29.03
-32.42
-34.64
-35.06
-33.35
-29.60
-24.20
-17.76
-10.95
-4.38
1.45
6.25
9.92
12.47
14.04
14.80
14.89
14.41
13.43
12.00
10.19
8.12
6.00
4.07
2.55
1.65
1.43
1.85
2.73
3.83
4.88
5.63
5.93
5.78
5.25
4.47
3.59
2.71
1.87
1.10
0.39
-0.28
-0.95
-1.67
-2.49
-3.39
-4.34
-5.24
-6.05
-6.84
-7.76
-9.02
-10.73
-12.89
-15.29
-17.62
-19.61
-21.17
-22.47
-23.86
-25.79
-28.56
-32.16
-36.25
-40.19
-43.19
-44.52
-43.68
-40.46
-35.01
-27.89
-19.85
-11.81
-4.52
1.52
6.16
9.64
12.34
14.69
16.95
19.19
21.38
23.40
25.14
26.53
27.47
27.87
27.69
26.99
26.00
25.05
24.45
24.35
24.69
25.27
25.75
25.86
25.44
24.46
23.05
21.42
19.78
18.27
16.97
15.83
14.74
13.56
12.18
10.57
8.78
6.88
4.94
3.00
1.03
-1.04
-3.33
-5.90
-8.79
-11.89
-15.02
-17.96
-20.53
-22.68
-24.55
-26.45
-28.72
-31.64
-35.17
-39.02
-42.58
-45.09
-45.88
-44.49
-40.82
-35.13
-27.99
-20.18
-12.54
-5.79
-0.39
3.50
6.09
7.78
9.04
10.23
11.50
12.83
14.08
15.14
15.97
16.59
17.01
17.23
17.25
17.11
16.90
16.75
16.78
17.01
17.31
17.50
17.34
16.66
15.48
13.96
12.37
10.99
10.00
9.40
9.02
8.58
7.81
6.53
4.78
2.74
0.69
-1.13
-2.57
-3.65
-4.46
-5.16
-5.89
-6.73
-7.74
-8.94
-10.38
-12.08
-14.07
-16.42
-19.17
-22.36
-25.95
-29.75
-33.42
-36.48
-38.37
-38.59
-36.89
-33.35
-28.34
-22.46
-16.37
-10.62
-5.56
-1.36
2.00
4.62
6.62
8.15
9.32
10.27
11.04
11.64
12.00
11.96
11.35
10.14
8.43
6.52
4.80
3.66
3.36
3.96
5.33
7.24
9.32
11.14
12.27
12.38
11.41
9.64
7.69
6.24
5.78
6.32
7.40
8.29
8.41
7.55
5.90
3.85
1.70
-0.52
-2.97
-5.84
-9.11
-12.55
-15.82
-18.68
-21.08
-23.15
-25.14
-27.21
-29.47
-31.92
-34.53
-37.17
-39.58
-41.32
-41.86
-40.70
-37.65
-32.81
-26.66
-19.83
-12.95
-6.52
-0.83
3.90
7.59
10.20
11.84
12.75
13.29
13.78
14.43
15.27
16.22
17.11
17.80
18.23
18.37
18.22
17.86
17.43
17.17
17.25
17.78
18.63
19.53
20.15
20.29
19.94
19.27
18.51
17.80
17.14
16.39
15.43
14.19
12.73
11.17
9.65
8.28
7.06
5.97
4.88
3.67
2.25
0.60
-1.19
-3.01
-4.73
-6.34
-7.88
-9.48
-11.28
-13.38
-15.80
-18.55
-21.47
-24.27
-26.49
-27.50
-26.77
-23.96
-19.26
-13.29
-6.92
-0.98
4.01
7.93
10.96
13.36
15.28
16.71
17.55
17.77
17.45
16.77
15.99
15.27
14.71
14.30
14.02
13.87
13.89
14.13
14.63
15.36
16.24
17.14
17.91
18.40
18.52
18.27
17.67
16.82
15.82
14.75
13.61
12.39
11.04
9.58
8.04
6.55
5.15
3.82
2.43
0.75
-1.39
-4.01
-6.99
-10.02
-12.78
-15.10
-16.96
-18.57
-20.26
-22.39
-25.17
-28.61
-32.42
-36.00
-38.52
-39.17
-37.33
-32.86
-26.17
-18.18
-10.02
-2.72
3.04
7.08
9.63
11.14
12.10
12.88
13.72
14.66
15.60
16.33
16.62
16.30
15.37
14.01
12.55
11.33
10.59
10.35
10.50
10.79
10.95
10.71
9.92
8.49
6.51
4.22
1.98
0.13
-1.18
-2.01
-2.65
-3.44
-4.61
-6.10
-7.63
-8.85
-9.55
-9.82
-9.98
-10.50
-11.78
-14.05
-17.19
-20.86
-24.60
-27.98
-30.69
-32.67
-34.00
-34.82
-35.16
-34.87
-33.72
-31.48
-28.08
-23.73
-18.83
-13.78
-8.94
-4.40
-0.13
3.98
8.02
11.94
15.61
18.73
21.01
22.20
22.21
21.17
19.45
17.51
15.85
14.75
14.33
14.54
15.21
16.13
17.07
17.78
18.08
17.84
17.11
16.06
14.93
13.90
12.98
12.06
11.01
9.73
8.26
6.68
5.08
3.45
1.73
-0.11
-2.09
-4.15
-6.26
-8.40
-10.61
-12.95
-15.42
-18.00
-20.70
-23.59
-26.83
-30.56
-34.74
-39.09
-42.99
-45.70
-46.51
-44.98
-41.08
-35.17
-27.88
-20.00
-12.30
-5.43
0.19
4.35
7.15
8.91
10.12
11.31
12.89
15.03
17.62
20.31
22.68
24.37
25.26
25.47
25.29
25.04
25.00
25.22
25.62
26.03
26.27
26.17
25.69
24.80
23.56
22.04
20.35
18.56
16.74
14.94
13.17
11.47
9.82
8.21
6.56
4.79
2.79
0.54
-1.95
-4.62
-7.35
-10.06
-12.70
-15.30
-17.94
-20.73
-23.80
-27.25
-31.14
-35.38
-39.74
-43.84
-47.09
-48.92
-48.81
-46.55
-42.28
-36.46
-29.75
-22.77
-15.98
-9.54
-3.48
2.25
7.68
12.66
17.06
20.69
23.45
25.38
26.61
27.37
27.94
28.56
29.35
30.37
31.56
32.80
33.98
35.04
35.98
36.83
37.59
38.19
38.50
38.40
37.86
36.92
35.73
34.37
32.87
31.08
28.87
26.16
23.00
19.57
16.09
12.71
9.48
6.35
3.22
-0.02
-3.42
-7.05
-10.87
-14.78
-18.65
-22.29
-25.59
-28.59
-31.50
-34.65
-38.29
-42.44
-46.77
-50.62
-53.13
-53.53
-51.38
-46.69
-39.91
-31.82
-23.27
-15.02
-7.59
-1.28
3.83
7.80
10.85
13.24
15.29
17.30
19.42
21.63
23.77
25.53
26.64
26.95
26.51
25.58
24.52
23.70
23.33
23.46
23.92
24.48
24.90
24.98
24.68
23.98
22.94
21.63
20.12
18.49
16.83
15.24
13.73
12.30
10.91
9.52
8.11
6.64
5.09
3.35
1.33
-1.06
-3.84
-6.95
-10.26
-13.64
-16.98
-20.18
-23.18
-26.00
-28.68
-31.35
-34.09
-36.87
-39.45
-41.32
-41.86
-40.53
-37.07
-31.61
-24.63
-16.82
-8.88
-1.42
5.16
10.57
14.71
17.61
19.45
20.50
21.08
21.50
21.94
22.46
22.97
23.34
23.40
23.09
22.48
21.74
21.12
20.82
20.91
21.27
21.65
21.72
21.26
20.18
18.56
16.60
14.57
12.67
11.03
9.66
8.53
7.58
6.74
5.94
5.11
4.17
3.00
1.57
-0.10
-1.89
-3.63
-5.13
-6.36
-7.35
-8.32
-9.47
-10.93
-12.75
-14.89
-17.27
-19.83
-22.49
-25.11
-27.36
-28.82
-29.02
-27.59
-24.52
-20.12
-14.94
-9.55
-4.39
0.36
4.68
8.57
11.95
14.61
16.37
17.16
17.11
16.52
15.69
14.88
14.22
13.76
13.46
13.34
13.35
13.47
13.57
13.55
13.36
12.99
12.52
12.00
11.45
10.75
9.83
8.61
7.10
5.33
3.38
1.28
-0.93
-3.20
-5.46
-7.59
-9.57
-11.49
-13.53
-15.91
-18.72
-21.92
-25.24
-28.46
-31.41
-34.18
-36.93
-39.79
-42.70
-45.37
-47.30
-47.95
-46.95
-44.20
-39.87
-34.39
-28.24
-21.97
-15.98
-10.54
-5.78
-1.69
1.83
4.91
7.67
10.17
12.43
14.39
15.97
17.14
17.91
18.33
18.55
18.66
18.75
18.82
18.83
18.76
18.56
18.28
17.93
17.56
17.13
16.63
15.98
15.16
14.14
12.94
11.55
9.91
8.05
5.96
3.77
1.57
-0.54
-2.55
-4.53
-6.55
-8.68
-10.87
-13.07
-15.18
-17.12
-18.88
-20.46
-21.95
-23.50
-25.31
-27.57
-30.38
-33.62
-36.91
-39.63
-41.06
-40.53
-37.69
-32.61
-25.81
-18.15
-10.57
-3.82
1.67
5.92
9.21
11.93
14.41
16.74
18.91
20.84
22.47
23.81
24.93
25.86
26.61
27.14
27.42
27.43
27.21
26.81
26.24
25.50
24.54
23.32
21.86
20.20
18.46
16.70
14.98
13.28
11.49
9.52
7.34
4.95
2.46
0.01
-2.26
-4.26
-5.93
-7.27
-8.34
-9.22
-10.05
-10.96
-12.00
-13.13
-14.30
-15.49
-16.76
-18.29
-20.23
-22.70
-25.68
-29.06
-32.64
-36.17
-39.30
-41.55
-42.35
-41.25
-38.04
-32.99
-26.73
-20.15
-13.99
-8.71
-4.34
-0.63
2.73
5.97
9.08
11.93
14.26
15.90
16.78
16.95
16.56
15.82
14.92
14.04
13.32
12.84
12.63
12.68
12.85
13.04
13.06
12.78
12.12
11.12
9.88
8.60
7.44
6.46
5.65
4.88
4.05
3.05
1.78
0.17
-1.83
-4.25
-7.03
-9.98
-12.88
-15.56
-18.00
-20.34
-22.85
-25.71
-28.99
-32.54
-36.04
-39.11
-41.29
-42.14
-41.34
-38.71
-34.37
-28.77
-22.62
-16.68
-11.59
-7.60
-4.62
-2.27
-0.06
2.35
5.07
7.99
10.85
13.42
15.57
17.37
18.96
20.47
21.92
23.26
24.41
25.34
26.13
26.91
27.71
28.46
28.93
28.88
28.21
26.97
25.38
23.72
22.14
20.62
19.08
17.36
15.39
13.27
11.11
9.05
7.11
5.21
3.17
0.85
-1.79
-4.63
-7.49
-10.18
-12.62
-14.84
-16.98
-19.22
-21.74
-24.65
-28.02
-31.76
-35.65
-39.15
-41.58
-42.16
-40.35
-35.97
-29.41
-21.45
-13.08
-5.21
1.55
7.01
11.29
14.68
17.54
20.06
22.29
24.18
25.57
26.34
26.46
26.01
25.16
24.12
23.12
22.38
22.05
22.19
22.72
23.41
23.93
24.01
23.45
22.30
20.72
18.95
17.21
15.63
14.26
13.08
12.05
11.09
10.08
8.84
7.25
5.23
2.85
0.32
-2.10
-4.20
-6.01
-7.70
-9.57
-11.85
-14.59
-17.63
-20.61
-23.19
-25.09
-26.18
-26.48
-26.15
-25.57
-25.19
-25.52
-26.87
-29.09
-31.57
-33.28
-33.15
-30.45
-25.07
-17.49
-8.67
0.36
8.69
15.75
21.31
25.44
28.44
30.70
32.64
34.54
36.46
38.31
39.91
41.06
41.64
41.61
40.97
39.78
38.17
36.33
34.48
32.76
31.15
29.40
27.07
23.72
19.17
13.61
7.65
2.10
-2.34
-5.33
-6.98
-7.75
-8.22
-8.82
-9.72
-10.88
-12.16
-13.47
-14.75
-15.95
-16.90
-17.39
-17.30
-16.76
-16.16
-16.09
-17.00
-19.01
-21.82
-24.71
-26.91
-27.80
-27.17
-25.25
-22.68
-20.45
-19.67
-21.22
-25.34
-31.28
-37.32
-41.21
-41.09
-36.17
-27.12
-15.75
-4.19
5.94
13.96
20.01
24.54
27.80
29.72
30.14
29.13
27.19
25.05
23.36
22.34
21.76
21.18
20.25
18.98
17.69
16.84
16.73
17.32
18.28
19.12
19.44
19.08
18.21
17.21
16.57
16.67
17.65
19.33
21.31
23.10
24.29
24.61
24.01
22.58
20.44
17.84
15.06
12.45
10.29
8.77
7.83
7.21
6.51
5.38
3.67
1.49
-0.89
-3.17
-5.24
-7.28
-9.63
-12.53
-16.00
-19.59
-22.59
-24.25
-24.05
-21.91
-18.10
-13.18
-7.72
-2.22
2.93
7.45
11.16
13.96
15.89
17.06
17.65
17.85
17.82
17.62
17.27
16.71
15.86
14.64
13.09
11.33
9.60
8.16
7.19
6.74
6.63
6.60
6.37
5.84
5.06
4.23
3.59
3.25
3.19
3.26
3.29
3.15
2.76
2.10
1.13
-0.18
-1.83
-3.72
-5.67
-7.49
-9.06
-10.38
-11.60
-12.92
-14.45
-16.24
-18.22
-20.31
-22.38
-24.35
-26.07
-27.49
-28.66
-29.78
-31.20
-33.29
-36.17
-39.59
-42.88
-45.15
-45.54
-43.58
-39.30
-33.20
-26.05
-18.60
-11.45
-5.00
0.56
5.11
8.62
11.15
12.83
13.88
14.53
14.93
15.19
15.32
15.35
15.33
15.35
15.45
15.61
15.71
15.63
15.35
14.95
14.57
14.38
14.40
14.56
14.68
14.65
14.42
14.03
13.53
12.95
12.21
11.28
10.15
8.92
7.68
6.49
5.32
4.07
2.61
0.94
-0.90
-2.81
-4.73
-6.63
-8.48
-10.22
-11.72
-12.89
-13.67
-14.20
-14.70
-15.42
-16.56
-18.25
-20.52
-23.40
-26.94
-31.11
-35.76
-40.46
-44.59
-47.39
-48.22
-46.71
-42.90
-37.24
-30.40
-23.18
-16.25
-10.09
-4.89
-0.66
2.73
5.46
7.68
9.54
11.16
12.66
14.08
15.41
16.53
17.37
17.90
18.27
18.65
19.22
20.02
20.93
21.69
22.07
21.92
21.24
20.12
18.63
16.86
14.86
12.80
10.84
9.15
7.85
6.94
6.36
5.99
5.75
5.51
5.12
4.43
3.27
1.60
-0.51
-2.83
-5.14
-7.23
-9.04
-10.56
-11.86
-12.94
-13.85
-14.61
-15.30
-16.03
-16.89
-17.99
-19.39
-21.11
-23.14
-25.32
-27.33
-28.71
-28.95
-27.69
-24.84
-20.58
-15.34
-9.66
-4.02
1.19
5.75
9.57
12.68
15.17
17.17
18.81
20.16
21.24
22.06
22.64
22.99
23.15
23.13
22.93
22.61
22.25
22.02
22.05
22.36
22.81
23.11
22.97
22.18
20.72
18.80
16.71
14.77
13.17
11.99
11.17
10.53
9.87
9.01
7.84
6.32
4.55
2.67
0.87
-0.69
-1.93
-2.92
-3.81
-4.83
-6.19
-8.03
-10.33
-12.95
-15.66
-18.25
-20.65
-22.89
-25.16
-27.56
-30.16
-32.76
-35.02
-36.48
-36.65
-35.21
-32.07
-27.41
-21.69
-15.54
-9.66
-4.61
-0.68
2.11
4.04
5.44
6.61
7.76
8.93
10.10
11.21
12.15
12.80
13.02
12.76
12.05
11.12
10.29
9.86
9.95
10.42
10.99
11.32
11.21
10.68
9.88
8.99
8.17
7.40
6.62
5.74
4.71
3.58
2.39
1.20
-0.00
-1.23
-2.50
-3.79
-5.03
-6.17
-7.22
-8.28
-9.47
-10.94
-12.73
-14.74
-16.85
-18.84
-20.61
-22.18
-23.71
-25.45
-27.68
-30.54
-33.95
-37.50
-40.55
-42.36
-42.29
-40.03
-35.70
-29.79
-22.99
-16.04
-9.51
-3.78
0.98
4.75
7.58
9.65
11.18
12.44
13.65
14.98
16.44
17.90
19.20
20.16
20.70
20.83
20.70
20.52
20.49
20.77
21.33
22.05
22.63
22.79
22.28
21.03
19.13
16.86
14.55
12.48
10.80
9.49
8.44
7.46
6.44
5.29
3.97
2.49
0.89
-0.80
-2.52
-4.25
-5.96
-7.69
-9.48
-11.39
-13.41
-15.47
-17.48
-19.36
-21.17
-23.07
-25.32
-28.13
-31.52
-35.23
-38.75
-41.38
-42.49
-41.64
-38.71
-33.93
-27.76
-20.80
-13.67
-6.97
-1.18
3.41
6.74
9.01
10.57
11.82
13.00
14.15
15.17
15.94
16.41
16.66
16.86
17.15
17.64
18.36
19.28
20.34
21.44
22.44
23.14
23.42
23.21
22.58
21.65
20.56
19.40
18.21
17.03
15.85
14.72
13.63
12.57
11.52
10.44
9.35
8.24
7.10
5.93
4.63
3.12
1.34
-0.70
-2.93
-5.20
-7.36
-9.32
-11.08
-12.81
-14.74
-17.16
-20.26
-24.08
-28.39
-32.75
-36.55
-39.13
-39.94
-38.64
-35.24
-30.15
-24.05
-17.73
-11.91
-7.02
-3.19
-0.21
2.25
4.50
6.71
8.83
10.69
12.15
13.19
13.95
14.63
15.42
16.36
17.38
18.35
19.18
19.88
20.49
21.01
21.31
21.23
20.58
19.38
17.76
16.01
14.36
12.93
11.65
10.38
9.00
7.44
5.77
4.11
2.56
1.14
-0.17
-1.50
-2.96
-4.69
-6.76
-9.18
-11.87
-14.64
-17.25
-19.52
-21.41
-23.08
-24.84
-27.10
-30.08
-33.75
-37.72
-41.37
-43.96
-44.89
-43.81
-40.67
-35.77
-29.62
-22.81
-15.94
-9.52
-3.91
0.73
4.45
7.48
10.15
12.73
15.38
18.01
20.38
22.21
23.34
23.85
23.99
24.13
24.53
25.31
26.36
27.49
28.43
28.95
28.91
28.25
27.03
25.43
23.67
21.95
20.39
18.98
17.59
16.08
14.33
12.35
10.23
8.13
6.17
4.43
2.87
1.35
-0.28
-2.22
-4.57
-7.30
-10.26
-13.23
-15.97
-18.31
-20.21
-21.78
-23.26
-24.98
-27.34
-30.62
-34.88
-39.78
-44.56
-48.19
-49.65
-48.34
-44.25
-37.98
-30.52
-22.87
-15.73
-9.45
-4.01
0.77
5.09
9.09
12.89
16.51
19.90
22.91
25.32
26.90
27.63
27.68
27.49
27.49
27.98
29.02
30.41
31.85
33.07
33.90
34.25
34.08
33.30
31.93
30.07
27.97
25.93
24.16
22.68
21.29
19.74
17.83
15.52
12.94
10.38
8.15
6.53
5.59
5.19
4.94
4.34
2.94
0.58
-2.58
-6.09
-9.40
-12.11
-14.09
-15.55
-16.92
-18.70
-21.29
-24.77
-28.90
-33.03
-36.33
-38.05
-37.76
-35.56
-31.95
-27.67
-23.45
-19.73
-16.69
-14.18
-11.83
-9.16
-5.72
-1.18
4.50
10.97
17.59
23.57
28.19
31.00
31.86
30.93
28.57
25.33
21.84
18.74
16.55
15.50
15.49
16.15
17.03
17.76
18.11
18.11
17.89
17.53
17.09
16.47
15.49
13.96
11.78
9.01
5.90
2.84
0.13
-2.04
-3.72
-5.10
-6.48
-8.07
-9.95
-12.08
-14.35
-16.63
-18.75
-20.63
-22.27
-23.87
-25.85
-28.63
-32.47
-37.17
-42.05
-46.06
-48.16
-47.59
-44.16
-38.21
-30.47
-21.81
-13.08
-4.94
2.17
8.01
12.61
16.21
19.15
21.72
24.11
26.30
28.15
29.50
30.28
30.53
30.42
30.14
29.91
29.86
30.08
30.58
31.28
32.00
32.50
32.51
31.86
30.49
28.54
26.27
23.95
21.80
19.91
18.23
16.66
15.04
13.23
11.21
9.02
6.81
4.78
3.08
1.77
0.72
-0.35
-1.74
-3.66
-6.16
-9.09
-12.21
-15.27
-18.10
-20.62
-22.81
-24.78
-26.67
-28.82
-31.59
-35.27
-39.83
-44.81
-49.29
-52.16
-52.47
-49.71
-44.09
-36.37
-27.63
-18.98
-11.25
-4.86
0.15
4.05
7.30
10.34
13.44
16.68
19.89
22.79
25.09
26.62
27.36
27.53
27.43
27.39
27.70
28.46
29.60
30.88
32.02
32.78
32.97
32.60
31.80
30.84
29.97
29.34
28.94
28.61
28.12
27.31
26.09
24.53
22.71
20.74
18.67
16.53
14.41
12.39
10.55
8.87
7.21
5.31
3.00
0.22
-2.96
-6.42
-10.12
-14.10
-18.51
-23.35
-28.39
-33.16
-37.09
-39.82
-41.28
-41.73
-41.50
-40.88
-39.87
-38.32
-36.09
-33.22
-29.92
-26.53
-23.27
-20.19
-17.10
-13.72
-9.76
-5.06
0.28
6.00
11.66
16.73
20.75
23.40
24.67
24.78
24.13
23.17
22.23
21.51
21.00
20.64
20.33
19.98
19.55
18.98
18.21
17.17
15.87
14.37
12.81
11.36
10.08
8.91
7.62
6.01
3.96
1.49
-1.18
-3.76
-5.94
-7.63
-8.87
-9.84
-10.85
-12.15
-13.94
-16.30
-19.19
-22.40
-25.65
-28.67
-31.29
-33.55
-35.71
-38.16
-41.25
-45.03
-49.21
-53.09
-55.79
-56.46
-54.51
-49.82
-42.78
-34.18
-25.04
-16.32
-8.69
-2.41
2.65
6.89
10.70
14.33
17.81
20.99
23.66
25.69
27.03
27.80
28.18
28.37
28.56
28.89
29.38
30.01
30.68
31.23
31.49
31.30
30.46
28.86
26.52
23.63
20.57
17.77
15.51
13.85
12.58
11.33
9.80
7.87
5.64
3.37
1.32
-0.41
-1.86
-3.22
-4.65
-6.31
-8.25
-10.51
-13.09
-15.94
-18.96
-21.97
-24.75
-27.09
-28.90
-30.33
-31.74
-33.61
-36.35
-40.06
-44.36
-48.43
-51.17
-51.57
-49.00
-43.47
-35.59
-26.39
-17.02
-8.39
-1.11
4.66
9.05
12.41
15.16
17.61
19.87
21.89
23.47
24.44
24.74
24.49
23.93
23.28
22.71
22.30
22.15
22.34
22.95
23.96
25.15
26.18
26.64
26.25
25.05
23.34
21.58
20.18
19.35
19.02
18.88
18.61
17.93
16.80
15.32
13.68
12.06
10.56
9.17
7.80
6.34
4.70
2.81
0.68
-1.66
-4.09
-6.47
-8.64
-10.49
-12.01
-13.30
-14.71
-16.64
-19.52
-23.55
-28.59
-34.12
-39.29
-43.12
-44.78
-43.73
-39.93
-33.84
-26.28
-18.22
-10.57
-3.93
1.50
5.83
9.35
12.29
14.78
16.74
18.05
18.65
18.57
17.97
17.04
16.03
15.15
14.55
14.37
14.69
15.53
16.81
18.40
20.03
21.49
22.53
23.08
23.17
23.02
22.81
22.71
22.70
22.64
22.25
21.31
19.70
17.45
14.70
11.65
8.58
5.77
3.47
1.80
0.65
-0.29
-1.46
-3.15
-5.43
-8.07
-10.65
-12.88
-14.73
-16.61
-19.18
-23.03
-28.40
-34.86
-41.44
-46.91
-50.17
-50.62
-48.27
-43.65
-37.55
-30.71
-23.74
-17.05
-10.94
-5.63
-1.24
2.28
5.12
7.58
9.89
12.15
14.28
16.13
17.58
18.61
19.23
19.52
19.49
19.16
18.59
17.93
17.35
16.99
16.81
16.69
16.39
15.75
14.77
13.57
12.32
11.13
10.02
8.93
7.79
6.57
5.27
3.87
2.40
0.90
-0.57
-1.92
-3.13
-4.28
-5.57
-7.20
-9.33
-11.95
-14.85
-17.77
-20.47
-22.84
-24.99
-27.18
-29.73
-32.92
-36.85
-41.32
-45.82
-49.59
-51.80
-51.78
-49.19
-44.17
-37.28
-29.30
-21.07
-13.28
-6.40
-0.67
3.88
7.36
9.93
11.86
13.33
14.48
15.30
15.74
15.74
15.34
14.70
14.10
13.78
13.93
14.59
15.62
16.84
18.02
18.93
19.36
19.20
18.44
17.17
15.60
14.02
12.67
11.68
11.09
10.82
10.78
10.89
11.10
11.39
11.70
11.88
11.75
11.10
9.74
7.64
4.87
1.62
-1.89
-5.42
-8.83
-12.05
-15.12
-18.16
-21.37
-24.96
-29.06
-33.60
-38.24
-42.33
-45.08
-45.73
-43.84
-39.39
-32.82
-24.96
-16.75
-9.10
-2.76
1.85
4.67
5.90
5.98
5.46
4.84
4.56
4.95
6.26
8.59
11.83
15.63
19.42
22.59
24.78
25.94
26.39
26.54
26.59
26.45
25.77
24.20
21.72
18.66
15.65
13.27
11.82
11.30
11.46
11.99
12.64
13.24
13.58
13.41
12.46
10.58
7.77
4.24
0.28
-3.77
-7.68
-11.30
-14.52
-17.30
-19.65
-21.65
-23.52
-25.51
-27.85
-30.63
-33.65
-36.48
-38.52
-39.15
-37.90
-34.62
-29.48
-22.92
-15.58
-8.09
-0.97
5.47
11.11
15.98
20.22
23.96
27.34
30.51
33.63
36.83
40.12
43.33
46.15
48.12
48.94
48.52
47.15
45.33
43.64
42.47
41.89
41.69
41.48
40.86
39.59
37.63
35.08
32.14
28.98
25.69
22.35
18.95
15.47
11.90
8.28
4.58
0.79
-3.12
-7.18
-11.40
-15.77
-20.23
-24.66
-28.90
-32.83
-36.39
-39.64
-42.74
-45.84
-48.95
-51.98
-54.77
-57.17
-59.15
-60.81
-62.07
-62.69
-62.10
-59.66
-54.93
-47.94
-39.28
-29.89
-20.72
-12.44
-5.32
0.68
5.74
9.94
13.30
15.75
17.33
18.15
18.41
18.35
18.15
17.97
17.93
18.06
18.35
18.75
19.20
19.69
20.25
20.93
21.73
22.61
23.42
24.03
24.40
24.62
24.83
25.09
25.33
25.28
24.58
22.96
20.34
16.88
12.89
8.76
4.70
0.75
-3.24
-7.48
-12.13
-17.13
-22.18
-26.83
-30.60
-33.21
-34.66
-35.23
-35.41
-35.64
-36.15
-36.88
-37.52
-37.58
-36.60
-34.23
-30.28
-24.71
-17.67
-9.48
-0.57
8.57
17.52
26.00
33.90
41.28
48.19
54.63
60.48
65.53
69.57
72.47
74.26
75.09
75.15
74.68
73.79
72.49
70.71
68.27
65.07
61.17
56.70
51.97
47.25
42.73
38.49
34.50
30.73
27.12
23.65
20.26
16.81
13.09
8.96
4.43
-0.21
-4.52
-8.08
-10.70
-12.50
-13.81
-15.10
-16.70
-18.70
-20.90
-22.97
-24.56
-25.49
-25.84
-25.90
-26.10
-26.84
-28.30
-30.41
-32.81
-34.92
-36.09
-35.72
-33.45
-29.19
-23.21
-16.11
-8.68
-1.74
3.97
7.92
9.87
9.88
8.29
5.71
2.79
0.14
-1.94
-3.49
-4.81
-6.26
-8.09
-10.27
-12.53
-14.51
-15.91
-16.58
-16.50
-15.79
-14.60
-13.15
-11.68
-10.43
-9.60
-9.30
-9.52
-10.13
-10.97
-11.82
-12.57
-13.17
-13.65
-14.15
-14.86
-16.01
-17.74
-20.12
-23.10
-26.52
-30.14
-33.69
-36.90
-39.50
-41.32
-42.33
-42.64
-42.54
-42.40
-42.66
-43.69
-45.76
-48.95
-53.16
-58.02
-63.00
-67.31
-70.14
-70.73
-68.63
-63.79
-56.66
-48.03
-38.94
-30.34
-22.93
-17.03
-12.62
-9.38
-6.89
-4.82
-2.93
-1.15
0.52
2.09
3.65
5.42
7.63
10.48
14.03
18.16
22.64
27.17
31.44
35.21
38.26
40.49
41.87
42.47
42.42
41.87
40.99
39.91
38.73
37.47
36.11
34.55
32.62
30.21
27.34
24.21
21.18
18.52
16.35
14.46
12.48
10.00
6.82
3.00
-1.20
-5.47
-9.60
-13.57
-17.47
-21.38
-25.32
-29.15
-32.63
-35.45
-37.29
-37.89
-37.06
-34.79
-31.19
-26.57
-21.33
-15.93
-10.81
-6.31
-2.67
0.01
1.76
2.72
3.12
3.23
3.36
3.76
4.54
5.58
6.49
6.73
5.80
3.53
0.22
-3.44
-6.56
-8.41
-8.64
-7.39
-5.18
-2.72
-0.65
0.53
0.62
-0.28
-1.73
-3.14
-3.87
-3.57
-2.27
-0.37
1.57
3.05
3.90
4.18
4.12
3.88
3.47
2.71
1.41
-0.61
-3.42
-7.02
-11.29
-16.02
-20.80
-25.04
-28.05
-29.22
-28.24
-25.20
-20.60
-15.19
-9.78
-5.04
-1.38
1.11
2.60
3.48
4.22
5.20
6.64
8.52
10.63
12.68
14.39
15.61
16.37
16.76
16.95
17.13
17.41
17.90
18.59
19.37
20.03
20.34
20.15
19.42
18.23
16.74
15.12
13.51
11.98
10.53
9.16
7.77
6.28
4.49
2.30
-0.30
-3.19
-6.11
-8.80
-11.09
-13.00
-14.71
-16.49
-18.58
-21.15
-24.21
-27.73
-31.55
-35.40
-38.82
-41.21
-41.96
-40.64
-37.26
-32.18
-26.10
-19.71
-13.53
-7.78
-2.50
2.35
6.79
10.75
14.19
17.09
19.51
21.52
23.19
24.50
25.45
26.09
26.48
26.76
26.98
27.18
27.28
27.20
26.89
26.36
25.68
24.92
24.15
23.35
22.43
21.28
19.76
17.80
15.42
12.78
10.17
7.92
6.29
5.40
5.10
5.06
4.89
4.27
3.04
1.19
-1.19
-3.94
-6.92
-9.89
-12.60
-14.83
-16.57
-18.09
-19.90
-22.50
-26.09
-30.32
-34.40
-37.29
-38.20
-36.83
-33.38
-28.34
-22.28
-15.59
-8.66
-1.93
4.01
8.60
11.61
13.36
14.63
16.32
19.02
22.76
27.07
31.35
35.15
38.34
40.96
42.99
44.26
44.49
43.56
41.62
39.17
36.75
34.74
33.10
31.44
29.24
26.10
22.00
17.23
12.34
7.84
4.05
1.07
-1.28
-3.25
-5.17
-7.26
-9.55
-11.87
-13.80
-14.83
-14.59
-13.03
-10.56
-7.87
-5.75
-4.75
-5.04
-6.39
-8.31
-10.23
-11.64
-12.09
-11.30
-9.11
-5.68
-1.45
2.89
6.71
9.67
11.94
14.21
17.30
21.77
27.63
34.12
40.10
44.42
46.40
46.04
43.95
40.99
37.95
35.22
32.85
30.59
28.20
25.51
22.44
19.02
15.30
11.33
7.15
2.87
-1.38
-5.36
-8.87
-11.77
-13.99
-15.60
-16.68
-17.28
-17.31
-16.56
-14.72
-11.54
-7.03
-1.48
4.46
10.10
14.82
18.31
20.58
21.83
22.30
22.08
21.11
19.22
16.35
12.67
8.68
5.06
2.46
1.26
1.45
2.67
4.38
6.02
7.22
7.85
7.94
7.60
6.96
6.17
5.40
4.83
4.56
4.59
4.77
4.89
4.71
4.09
3.01
1.55
-0.10
-1.79
-3.36
-4.68
-5.67
-6.32
-6.68
-6.90
-7.13
-7.50
-8.07
-8.81
-9.63
-10.47
-11.29
-12.16
-13.17
-14.37
-15.75
-17.26
-18.79
-20.22
-21.46
-22.43
-23.14
-23.65
-24.10
-24.62
-25.33
-26.28
-27.45
-28.81
-30.39
-32.32
-34.71
-37.63
-40.88
-44.00
-46.35
-47.28
-46.36
-43.47
-38.85
-32.99
-26.52
-20.10
-14.25
-9.33
-5.50
-2.68
-0.72
0.60
1.48
2.08
2.53
2.93
3.30
3.64
3.81
3.70
3.20
2.36
1.38
0.54
0.15
0.33
1.02
2.00
2.93
3.47
3.41
2.66
1.32
-0.41
-2.28
-4.07
-5.68
-7.06
-8.25
-9.27
-10.13
-10.81
-11.33
-11.78
-12.26
-12.85
-13.59
-14.37
-15.01
-15.31
-15.17
-14.64
-13.92
-13.33
-13.16
-13.64
-14.79
-16.42
-18.10
-19.27
-19.37
-17.99
-14.95
-10.43
-4.84
1.24
7.17
12.44
16.62
19.52
21.08
21.47
20.96
19.92
18.70
17.51
16.42
15.35
14.16
12.77
11.24
9.74
8.55
7.94
8.16
9.29
11.31
14.08
17.33
20.72
23.95
26.75
28.98
30.62
31.64
32.04
31.77
30.84
29.31
27.36
25.22
23.05
20.95
18.81
16.47
13.76
10.59
6.94
2.89
-1.47
-5.96
-10.41
-14.63
-18.49
-21.96
-25.19
-28.41
-31.85
-35.54
-39.33
-42.75
-45.22
-46.13
-45.12
-42.13
-37.46
-31.70
-25.55
-19.66
-14.51
-10.40
-7.35
-5.25
-3.89
-2.97
-2.26
-1.53
-0.63
0.49
1.76
3.08
4.28
5.28
6.08
6.78
7.53
8.44
9.52
10.64
11.58
12.15
12.24
11.84
11.00
9.82
8.41
6.89
5.39
4.04
2.90
1.94
1.01
-0.03
-1.28
-2.72
-4.25
-5.75
-7.15
-8.50
-9.85
-11.22
-12.55
-13.76
-14.78
-15.64
-16.39
-17.16
-18.06
-19.21
-20.73
-22.72
-25.19
-27.96
-30.58
-32.42
-32.79
-31.23
-27.68
-22.50
-16.37
-10.10
-4.43
0.14
3.40
5.42
6.47
6.93
7.14
7.35
7.69
8.24
8.99
9.93
10.97
11.96
12.71
13.02
12.80
12.13
11.24
10.40
9.76
9.30
8.84
8.19
7.24
6.04
4.76
3.56
2.54
1.69
0.93
0.18
-0.60
-1.42
-2.26
-3.07
-3.81
-4.44
-4.93
-5.31
-5.62
-5.97
-6.44
-7.10
-7.99
-9.09
-10.39
-11.78
-13.18
-14.44
-15.52
-16.46
-17.52
-18.97
-20.97
-23.41
-25.82
-27.44
-27.49
-25.41
-21.11
-14.94
-7.62
-0.02
7.07
13.11
17.83
21.18
23.30
24.41
24.79
24.73
24.54
24.44
24.54
24.79
25.05
25.16
25.02
24.67
24.22
23.85
23.71
23.90
24.40
25.12
25.88
26.45
26.62
26.29
25.49
24.41
23.28
22.32
21.58
20.93
20.13
18.89
17.03
14.52
11.53
8.30
5.10
2.08
-0.69
-3.23
-5.55
-7.60
-9.33
-10.76
-11.97
-13.19
-14.75
-16.90
-19.81
-23.44
-27.53
-31.60
-35.01
-37.05
-37.15
-35.02
-30.83
-25.20
-18.99
-13.12
-8.25
-4.66
-2.23
-0.56
0.83
2.30
3.95
5.66
7.19
8.31
9.01
9.42
9.82
10.45
11.42
12.67
14.09
15.52
16.90
18.20
19.42
20.52
21.36
21.84
21.84
21.32
20.34
19.03
17.54
16.04
14.64
13.36
12.16
10.99
9.79
8.53
7.19
5.77
4.24
2.60
0.87
-0.91
-2.70
-4.48
-6.28
-8.16
-10.12
-12.11
-14.06
-15.97
-17.96
-20.31
-23.28
-26.97
-31.23
-35.58
-39.32
-41.68
-42.05
-40.14
-36.11
-30.46
-23.98
-17.46
-11.55
-6.61
-2.65
0.47
3.00
5.17
7.11
8.90
10.58
12.19
13.65
14.91
15.89
16.55
16.93
17.18
17.40
17.74
18.21
18.76
19.35
19.88
20.29
20.47
20.34
19.79
18.82
17.55
16.14
14.77
13.52
12.38
11.24
10.03
8.73
7.41
6.18
5.10
4.19
3.40
2.68
1.96
1.18
0.29
-0.78
-2.02
-3.38
-4.76
-6.08
-7.35
-8.68
-10.20
-12.04
-14.28
-16.95
-20.01
-23.31
-26.52
-29.14
-30.48
-29.98
-27.34
-22.75
-16.86
-10.50
-4.44
0.88
5.37
9.16
12.40
15.13
17.35
19.00
20.16
20.93
21.47
21.89
22.24
22.54
22.79
23.03
23.30
23.61
24.00
24.44
24.93
25.48
26.05
26.59
27.01
27.23
27.18
26.82
26.15
25.23
24.10
22.83
21.44
19.91
18.23
16.33
14.24
11.99
9.66
7.33
5.05
2.89
0.90
-0.82
-2.19
-3.20
-3.96
-4.73
-5.83
-7.55
-10.02
-13.24
-17.07
-21.34
-25.92
-30.72
-35.65
-40.54
-45.11
-48.97
-51.77
-53.25
-53.34
-52.02
-49.24
-44.87
-38.79
-31.24
-23.01
-15.46
-10.10
-8.04
-9.55
-13.89
-19.71
-25.57
-30.55
-34.28
-36.86
-38.48
-39.21
-38.98
-37.77
-35.75
-33.20
-30.43
-27.56
-24.48
-20.96
-16.83
-12.15
-7.25
-2.68
0.98
3.31
4.23
4.02
3.16
2.16
1.31
0.57
-0.37
-1.89
-4.19
-7.15
-10.25
-12.75
-13.91
-13.24
-10.58
-6.18
-0.55
5.57
11.42
16.38
20.08
22.49
23.94
24.94
25.94
27.17
28.50
29.61
30.13
29.94
29.34
28.95
29.52
31.65
35.45
40.55
46.26
51.78
56.49
60.16
62.89
65.00
66.82
68.55
70.18
71.54
72.34
72.35
71.41
69.48
66.66
63.17
59.29
55.37
51.77
48.78
46.61
45.29
44.70
44.53
44.38
43.89
42.81
41.05
38.67
35.81
32.65
29.33
25.97
22.68
19.52
16.49
13.54
10.58
7.49
4.21
0.73
-2.90
-6.59
-10.27
-13.89
-17.44
-20.92
-24.35
-27.75
-31.09
-34.34
-37.47
-40.50
-43.51
-46.58
-49.71
-52.67
-55.02
-56.13
-55.43
-52.66
-48.01
-42.03
-35.46
-29.02
-23.14
-18.02
-13.65
-9.99
-7.01
-4.75
-3.19
-2.26
-1.71
-1.29
-0.79
-0.14
0.58
1.19
1.54
1.64
1.62
1.77
2.29
3.28
4.64
6.15
7.55
8.66
9.39
9.77
9.85
9.67
9.18
8.34
7.12
5.56
3.80
1.98
0.21
-1.48
-3.15
-4.89
-6.72
-8.62
-10.52
-12.37
-14.19
-16.10
-18.19
-20.52
-23.04
-25.67
-28.30
-30.92
-33.50
-36.11
-38.78
-41.56
-44.44
-47.33
-50.01
-52.12
-53.11
-52.48
-49.85
-45.22
-38.91
-31.55
-23.91
-16.69
-10.36
-5.15
-1.02
2.20
4.77
6.92
8.86
10.73
12.57
14.37
16.04
17.50
18.68
19.58
20.22
20.69
21.10
21.54
22.01
22.43
22.69
22.68
22.37
21.79
21.03
20.14
19.15
18.06
16.85
15.55
14.24
12.97
11.76
10.58
9.36
8.00
6.47
4.81
3.07
1.37
-0.23
-1.72
-3.16
-4.73
-6.61
-8.96
-11.81
-15.04
-18.39
-21.57
-24.38
-26.82
-29.12
-31.67
-34.85
-38.77
-43.20
-47.45
-50.59
-51.66
-50.04
-45.62
-38.85
-30.56
-21.79
-13.45
-6.23
-0.42
3.95
7.13
9.50
11.44
13.25
15.05
16.79
18.31
19.36
19.81
19.63
18.93
17.96
17.07
16.51
16.48
17.03
18.08
19.46
20.95
22.34
23.38
23.92
23.81
23.06
21.79
20.24
18.70
17.35
16.24
15.24
14.09
12.56
10.59
8.29
5.93
3.85
2.27
1.19
0.37
-0.51
-1.76
-3.50
-5.61
-7.90
-10.10
-12.09
-13.87
-15.54
-17.23
-19.04
-21.09
-23.52
-26.45
-29.90
-33.66
-37.16
-39.60
-40.17
-38.36
-34.15
-28.03
-20.78
-13.25
-6.10
0.26
5.63
9.92
13.12
15.31
16.64
17.40
17.87
18.30
18.77
19.20
19.48
19.51
19.31
18.98
18.68
18.54
18.63
18.90
19.20
19.37
19.30
18.91
18.26
17.42
16.47
15.47
14.45
13.37
12.16
10.71
8.96
6.85
4.45
1.91
-0.54
-2.69
-4.44
-5.83
-7.03
-8.27
-9.71
-11.44
-13.44
-15.64
-17.98
-20.38
-22.74
-24.96
-26.96
-28.82
-30.80
-33.29
-36.56
-40.63
-45.02
-48.81
-50.96
-50.57
-47.27
-41.24
-33.22
-24.20
-15.20
-7.05
-0.26
5.00
8.86
11.71
13.98
16.09
18.30
20.63
22.94
24.95
26.38
27.07
27.00
26.30
25.18
23.89
22.72
21.86
21.44
21.44
21.64
21.75
21.48
20.68
19.38
17.79
16.19
14.77
13.55
12.43
11.24
9.83
8.20
6.41
4.56
2.76
1.09
-0.40
-1.71
-2.89
-4.11
-5.58
-7.49
-9.90
-12.69
-15.63
-18.43
-20.89
-22.99
-24.81
-26.59
-28.61
-31.18
-34.47
-38.46
-42.77
-46.69
-49.32
-49.76
-47.48
-42.49
-35.37
-27.03
-18.52
-10.70
-4.10
1.17
5.25
8.51
11.29
13.84
16.24
18.44
20.33
21.82
22.85
23.45
23.63
23.43
22.93
22.26
21.60
21.19
21.22
21.71
22.54
23.43
24.07
24.22
23.84
23.02
22.02
21.07
20.29
19.61
18.86
17.80
16.29
14.41
12.35
10.38
8.65
7.13
5.64
3.99
2.01
-0.30
-2.84
-5.48
-8.14
-10.79
-13.43
-16.09
-18.77
-21.58
-24.65
-28.17
-32.16
-36.41
-40.37
-43.22
-44.14
-42.53
-38.25
-31.71
-23.73
-15.29
-7.29
-0.38
5.13
9.25
12.16
14.23
15.85
17.37
19.03
20.83
22.60
23.99
24.72
24.64
23.88
22.75
21.63
20.84
20.54
20.74
21.29
22.00
22.61
22.88
22.59
21.71
20.32
18.67
17.05
15.61
14.34
13.08
11.65
9.96
8.09
6.17
4.33
2.54
0.64
-1.53
-4.07
-6.87
-9.78
-12.60
-15.23
-17.72
-20.19
-22.77
-25.52
-28.50
-31.75
-35.28
-39.05
-42.87
-46.30
-48.66
-49.17
-47.13
-42.29
-34.94
-25.89
-16.32
-7.38
0.11
5.82
9.91
12.82
15.00
16.76
18.22
19.37
20.24
20.87
21.38
21.78
22.01
21.92
21.40
20.43
19.18
17.95
17.04
16.67
16.82
17.29
17.73
17.77
17.18
15.99
14.45
12.92
11.72
10.94
10.47
10.07
9.49
8.61
7.50
6.31
5.15
4.05
2.91
1.59
-0.02
-1.94
-4.12
-6.44
-8.81
-11.18
-13.54
-15.91
-18.29
-20.72
-23.32
-26.29
-29.88
-34.25
-39.24
-44.36
-48.80
-51.59
-51.95
-49.45
-44.18
-36.70
-27.90
-18.83
-10.42
-3.29
2.35
6.70
10.18
13.24
16.16
18.94
21.42
23.41
24.80
25.59
25.86
25.70
25.18
24.39
23.54
22.91
22.81
23.41
24.70
26.42
28.18
29.56
30.30
30.36
29.84
28.98
27.95
26.82
25.51
23.87
21.78
19.25
16.45
13.63
11.00
8.64
6.41
4.10
1.51
-1.37
-4.39
-7.30
-9.97
-12.37
-14.67
-17.11
-19.96
-23.40
-27.51
-32.27
-37.48
-42.74
-47.41
-50.66
-51.72
-50.08
-45.73
-39.15
-31.17
-22.72
-14.54
-7.15
-0.76
4.58
8.92
12.39
15.13
17.31
19.09
20.59
21.85
22.89
23.74
24.46
25.11
25.70
26.18
26.46
26.48
26.32
26.14
26.08
26.22
26.44
26.54
26.27
25.49
24.21
22.56
20.67
18.61
16.35
13.81
11.01
8.06
5.23
2.79
0.92
-0.44
-1.60
-3.01
-5.08
-7.98
-11.62
-15.63
-19.59
-23.17
-26.26
-28.99
-31.66
-34.64
-38.27
-42.72
-47.84
-53.12
-57.69
-60.50
-60.63
-57.55
-51.36
-42.72
-32.70
-22.40
-12.78
-4.43
2.44
7.93
12.36
16.11
19.46
22.53
25.27
27.51
29.07
29.89
30.04
29.70
29.09
28.40
27.74
27.20
26.85
26.73
26.85
27.12
27.39
27.50
27.31
26.85
26.20
25.46
24.65
23.68
22.37
20.57
18.26
15.54
12.63
9.75
7.03
4.57
2.35
0.32
-1.59
-3.53
-5.64
-8.11
-10.96
-14.12
-17.38
-20.50
-23.32
-25.93
-28.54
-31.57
-35.37
-40.18
-45.91
-52.08
-57.85
-62.11
-63.78
-62.07
-56.81
-48.49
-38.15
-27.08
-16.45
-7.11
0.62
6.75
11.52
15.20
18.08
20.41
22.40
24.22
25.96
27.59
28.99
30.00
30.52
30.57
30.33
30.03
29.90
30.06
30.49
31.08
31.65
32.01
32.02
31.61
30.76
29.52
28.01
26.36
24.72
23.12
21.58
20.02
18.31
16.37
14.19
11.86
9.56
7.43
5.52
3.68
1.68
-0.79
-3.86
-7.48
-11.36
-15.13
-18.46
-21.30
-23.90
-26.77
-30.51
-35.48
-41.58
-48.16
-54.07
-58.02
-58.93
-56.26
-50.15
-41.38
-31.08
-20.44
-10.46
-1.76
5.39
11.04
15.42
18.84
21.53
23.69
25.39
26.64
27.41
27.62
27.24
26.32
25.07
23.83
22.97
22.78
23.36
24.54
25.94
27.08
27.58
27.22
26.00
24.08
21.77
19.34
17.01
14.85
12.79
10.68
8.33
5.64
2.61
-0.61
-3.80
-6.72
-9.22
-11.32
-13.20
-15.13
-17.39
-20.11
-23.23
-26.52
-29.64
-32.38
-34.67
-36.71
-38.88
-41.63
-45.31
-49.99
-55.26
-60.24
-63.69
-64.35
-61.40
-54.73
-45.12
-33.92
-22.60
-12.31
-3.61
3.45
9.14
13.72
17.44
20.39
22.75
24.69
26.37
27.85
29.06
29.85
30.14
29.99
29.60
29.28
29.28
29.70
30.48
31.43
32.30
32.83
32.82
32.12
30.75
28.80
26.49
24.09
21.80
19.75
17.91
16.18
14.41
12.50
10.41
8.18
5.94
3.78
1.73
-0.23
-2.23
-4.47
-7.14
-10.37
-14.12
-18.18
-22.24
-25.96
-29.20
-32.08
-35.01
-38.46
-42.82
-48.04
-53.54
-58.24
-60.86
-60.27
-55.84
-47.75
-36.88
-24.71
-12.81
-2.54
5.31
10.60
13.71
15.39
16.43
17.48
18.90
20.77
22.90
25.00
26.73
27.84
28.23
27.93
27.17
26.22
25.41
24.97
25.02
25.50
26.18
26.74
26.85
26.37
25.33
23.94
22.43
20.94
19.45
17.81
15.89
13.68
11.30
8.98
6.87
4.95
3.06
0.94
-1.56
-4.44
-7.55
-10.65
-13.55
-16.16
-18.49
-20.70
-23.02
-25.73
-29.13
-33.41
-38.46
-43.84
-48.71
-52.07
-52.97
-50.81
-45.51
-37.58
-27.90
-17.57
-7.60
1.20
8.39
13.87
17.81
20.59
22.64
24.30
25.76
27.01
27.92
28.36
28.31
27.89
27.31
26.77
26.37
26.15
26.08
26.15
26.36
26.67
26.99
27.12
26.84
25.98
24.51
22.56
20.38
18.15
15.95
13.73
11.37
8.85
6.21
3.56
1.06
-1.25
-3.43
-5.68
-8.25
-11.29
-14.77
-18.46
-22.04
-25.21
-27.88
-30.24
-32.70
-35.81
-39.97
-45.25
-51.34
-57.47
-62.61
-65.62
-65.58
-62.02
-55.04
-45.37
-34.13
-22.61
-11.86
-2.63
4.86
10.68
15.16
18.65
21.53
24.05
26.32
28.35
30.00
31.10
31.55
31.36
30.69
29.78
28.92
28.34
28.16
28.36
28.81
29.23
29.35
28.97
28.03
26.61
24.88
23.01
21.11
19.22
17.26
15.15
12.84
10.34
7.72
5.07
2.52
0.10
-2.19
-4.43
-6.75
-9.32
-12.21
-15.41
-18.82
-22.21
-25.37
-28.14
-30.60
-33.06
-36.03
-40.01
-45.23
-51.44
-57.84
-63.18
-66.07
-65.42
-60.76
-52.42
-41.43
-29.26
-17.36
-6.84
1.73
8.31
13.18
16.80
19.55
21.78
23.69
25.44
27.04
28.43
29.44
29.91
29.80
29.27
28.64
28.28
28.45
29.19
30.30
31.43
32.20
32.33
31.71
30.46
28.82
27.14
25.68
24.52
23.59
22.66
21.43
19.77
17.66
15.18
12.53
9.86
7.34
5.10
3.20
1.59
0.06
-1.66
-3.84
-6.60
-9.84
-13.28
-16.59
-19.64
-22.57
-25.79
-29.82
-35.02
-41.31
-48.06
-54.20
-58.38
-59.47
-56.82
-50.54
-41.41
-30.65
-19.58
-9.31
-0.55
6.40
11.60
15.33
18.00
20.05
21.84
23.59
25.36
27.01
28.32
29.13
29.37
29.13
28.61
28.03
27.63
27.57
27.92
28.67
29.61
30.42
30.73
30.27
28.98
27.04
24.83
22.67
20.72
18.88
16.92
14.61
11.85
8.75
5.56
2.52
-0.17
-2.53
-4.65
-6.76
-9.05
-11.65
-14.62
-17.89
-21.33
-24.75
-28.01
-31.01
-33.81
-36.66
-39.94
-44.02
-49.09
-54.91
-60.70
-65.23
-67.14
-65.38
-59.61
-50.38
-38.92
-26.74
-15.16
-5.00
3.42
10.14
15.37
19.33
22.27
24.49
26.28
27.92
29.47
30.81
31.71
31.91
31.36
30.22
28.85
27.69
27.09
27.19
27.89
28.87
29.75
30.16
29.87
28.83
27.16
25.08
22.79
20.53
18.43
16.56
14.95
13.53
12.19
10.79
9.18
7.31
5.17
2.89
0.58
-1.68
-3.94
-6.32
-8.97
-12.01
-15.41
-19.07
-22.82
-26.54
-30.18
-33.78
-37.52
-41.63
-46.36
-51.81
-57.72
-63.38
-67.71
-69.49
-67.80
-62.30
-53.43
-42.27
-30.19
-18.57
-8.37
-0.13
6.12
10.71
14.16
17.00
19.58
22.07
24.37
26.31
27.70
28.45
28.56
28.13
27.30
26.25
25.21
24.48
24.35
24.98
26.29
27.95
29.51
30.51
30.69
30.07
28.85
27.33
25.74
24.18
22.60
20.94
19.14
17.21
15.19
13.09
10.95
8.76
6.50
4.19
1.81
-0.67
-3.34
-6.27
-9.52
-13.03
-16.68
-20.21
-23.40
-26.10
-28.44
-30.73
-33.48
-37.17
-42.00
-47.72
-53.55
-58.33
-60.78
-59.90
-55.24
-47.10
-36.40
-24.49
-12.74
-2.26
6.30
12.83
17.62
21.22
24.13
26.72
29.07
31.05
32.51
33.32
33.61
33.62
33.69
33.99
34.54
35.18
35.72
36.09
36.37
36.73
37.25
37.82
38.14
37.83
36.66
34.65
32.10
29.47
27.13
25.23
23.60
21.87
19.69
16.87
13.52
9.98
6.64
3.80
1.51
-0.44
-2.47
-5.02
-8.42
-12.74
-17.80
-23.13
-28.16
-32.38
-35.53
-37.71
-39.35
-41.07
-43.48
-46.93
-51.39
-56.34
-60.87
-63.83
-64.08
-60.85
-54.00
-44.12
-32.44
-20.53
-9.78
-1.14
5.14
9.33
12.04
13.90
15.35
16.60
17.72
18.66
19.35
19.71
19.69
19.29
18.59
17.75
17.07
16.86
17.39
18.79
20.98
23.65
26.32
28.50
29.70
29.70
28.54
26.54
24.18
21.92
20.01
18.43
16.95
15.29
13.33
11.13
8.86
6.71
4.71
2.76
0.66
-1.73
-4.47
-7.47
-10.52
-13.46
-16.13
-18.52
-20.72
-23.02
-25.81
-29.47
-34.17
-39.67
-45.29
-49.91
-52.33
-51.57
-47.28
-39.77
-30.01
-19.29
-8.84
0.40
7.88
13.51
17.45
20.03
21.63
22.58
23.17
23.57
23.81
23.80
23.43
22.63
21.44
20.03
18.66
17.59
17.00
16.99
17.48
18.29
19.12
19.69
19.79
19.34
18.36
16.99
15.36
13.58
11.68
9.68
7.61
5.56
3.62
1.84
0.17
-1.54
-3.51
-5.88
-8.70
-11.84
-15.14
-18.42
-21.57
-24.57
-27.42
-30.24
-33.16
-36.44
-40.34
-44.99
-50.24
-55.45
-59.58
-61.40
-59.95
-54.82
-46.45
-35.90
-24.59
-13.81
-4.43
3.26
9.37
14.20
18.04
21.04
23.27
24.80
25.75
26.26
26.47
26.42
26.07
25.41
24.49
23.52
22.81
22.67
23.22
24.34
25.62
26.56
26.76
26.07
24.69
23.01
21.42
20.07
18.86
17.54
15.89
13.89
11.71
9.58
7.60
5.76
3.87
1.73
-0.74
-3.64
-6.91
-10.55
-14.46
-18.52
-22.49
-26.08
-29.11
-31.64
-33.98
-36.61
-40.07
-44.63
-50.22
-56.31
-61.91
-65.82
-66.87
-64.24
-57.76
-48.03
-36.26
-24.02
-12.74
-3.44
3.55
8.47
11.93
14.58
16.89
19.07
21.12
22.96
24.54
25.77
26.64
27.10
27.15
26.83
26.36
25.99
25.98
26.42
27.20
27.98
28.42
28.22
27.30
25.77
23.87
21.88
20.05
18.49
17.23
16.14
15.08
13.87
12.40
10.67
8.74
6.75
4.84
3.10
1.52
-0.01
-1.68
-3.70
-6.23
-9.31
-12.75
-16.30
-19.67
-22.70
-25.41
-28.04
-31.00
-34.72
-39.46
-45.18
-51.41
-57.19
-61.24
-62.24
-59.25
-52.08
-41.38
-28.53
-15.21
-2.96
7.23
15.02
20.66
24.66
27.56
29.76
31.46
32.72
33.53
33.84
33.63
32.95
31.89
30.65
29.42
28.42
27.77
27.49
27.51
27.67
27.79
27.70
27.33
26.69
25.90
25.07
24.28
23.47
22.48
21.11
19.23
16.87
14.19
11.46
8.93
6.67
4.58
2.39
-0.23
-3.53
-7.58
-12.25
-17.19
-22.00
-26.31
-29.93
-32.95
-35.68
-38.55
-41.96
-46.12
-50.82
-55.46
-59.13
-60.82
-59.70
-55.35
-47.95
-38.18
-27.13
-16.04
-6.02
2.17
8.27
12.46
15.23
17.17
18.79
20.37
21.97
23.44
24.57
25.20
25.24
24.77
24.04
23.36
23.07
23.36
24.29
25.65
27.08
28.17
28.53
27.95
26.46
24.25
21.71
19.22
17.09
15.44
14.21
13.15
12.01
10.54
8.66
6.45
4.09
1.76
-0.46
-2.57
-4.70
-7.01
-9.60
-12.49
-15.62
-18.89
-22.22
-25.53
-28.78
-32.01
-35.37
-39.08
-43.37
-48.22
-53.25
-57.66
-60.37
-60.35
-56.97
-50.24
-40.89
-30.12
-19.23
-9.36
-1.18
5.08
9.61
12.87
15.35
17.54
19.72
21.99
24.24
26.21
27.59
28.16
27.91
27.05
25.96
25.07
24.66
24.81
25.40
26.14
26.73
26.92
26.55
25.63
24.25
22.61
20.90
19.29
17.81
16.39
14.90
13.21
11.29
9.21
7.12
5.16
3.40
1.84
0.35
-1.23
-3.02
-5.08
-7.39
-9.86
-12.40
-14.96
-17.56
-20.24
-23.16
-26.47
-30.31
-34.68
-39.33
-43.72
-47.06
-48.49
-47.32
-43.32
-36.76
-28.42
-19.30
-10.36
-2.34
4.36
9.64
13.63
16.55
18.66
20.19
21.31
22.13
22.63
22.79
22.61
22.10
21.47
20.98
20.87
21.27
22.16
23.30
24.45
25.32
25.75
25.73
25.31
24.58
23.64
22.53
21.21
19.61
17.67
15.36
12.75
9.96
7.17
4.49
1.96
-0.46
-2.85
-5.36
-8.07
-11.05
-14.31
-17.75
-21.23
-24.52
-27.48
-30.09
-32.56
-35.26
-38.66
-43.01
-48.19
-53.58
-58.14
-60.65
-60.07
-55.93
-48.46
-38.60
-27.62
-16.83
-7.20
0.77
7.03
11.81
15.45
18.26
20.53
22.45
24.17
25.75
27.10
28.09
28.52
28.35
27.68
26.79
25.97
25.49
25.41
25.62
25.88
25.91
25.51
24.56
23.09
21.25
19.23
17.29
15.62
14.28
13.10
11.81
10.11
7.87
5.20
2.45
0.00
-1.86
-3.11
-4.00
-4.92
-6.20
-8.06
-10.46
-13.19
-15.98
-18.60
-20.89
-22.87
-24.71
-26.78
-29.58
-33.49
-38.61
-44.53
-50.30
-54.65
-56.29
-54.41
-48.94
-40.59
-30.63
-20.50
-11.43
-4.15
1.17
4.83
7.37
9.40
11.41
13.70
16.34
19.23
22.09
24.58
26.38
27.29
27.31
26.68
25.79
25.06
24.82
25.19
26.11
27.33
28.55
29.45
29.78
29.41
28.38
26.90
25.27
23.79
22.60
21.57
20.44
18.89
16.78
14.18
11.38
8.74
6.47
4.58
2.90
1.17
-0.86
-3.30
-6.12
-9.23
-12.41
-15.45
-18.15
-20.42
-22.43
-24.56
-27.37
-31.33
-36.55
-42.57
-48.35
-52.52
-53.78
-51.36
-45.24
-36.19
-25.53
-14.71
-4.98
2.91
8.76
12.82
15.57
17.51
19.02
20.29
21.35
22.15
22.63
22.79
22.70
22.46
22.19
22.00
21.94
22.02
22.28
22.73
23.38
24.13
24.79
25.06
24.63
23.35
21.32
18.90
16.55
14.61
13.19
12.10
11.05
9.76
8.15
6.26
4.20
2.00
-0.41
-3.12
-6.14
-9.38
-12.61
-15.62
-18.27
-20.61
-22.83
-25.27
-28.30
-32.23
-37.15
-42.82
-48.63
-53.66
-56.84
-57.26
-54.46
-48.56
-40.28
-30.69
-20.92
-11.92
-4.22
2.00
6.86
10.60
13.51
15.85
17.83
19.59
21.20
22.64
23.87
24.79
25.34
25.52
25.40
25.10
24.72
24.39
24.18
24.08
24.01
23.84
23.44
22.66
21.43
19.76
17.74
15.54
13.33
11.25
9.34
7.56
5.76
3.88
1.88
-0.15
-2.10
-3.88
-5.46
-6.96
-8.55
-10.38
-12.52
-14.93
-17.49
-20.07
-22.60
-25.13
-27.86
-31.04
-34.88
-39.46
-44.57
-49.65
-53.83
-56.08
-55.51
-51.71
-44.89
-35.85
-25.81
-15.99
-7.29
-0.15
5.43
9.71
13.05
15.78
18.16
20.34
22.38
24.21
25.70
26.67
27.01
26.78
26.19
25.55
25.13
25.10
25.43
26.00
26.63
27.20
27.64
27.88
27.84
27.39
26.45
25.06
23.38
21.64
20.04
18.67
17.41
16.07
14.41
12.39
10.06
7.62
5.25
3.10
1.12
-0.79
-2.78
-4.96
-7.35
-9.86
-12.33
-14.65
-16.79
-18.86
-21.15
-23.98
-27.67
-32.32
-37.67
-43.14
-47.81
-50.67
-50.86
-47.92
-41.96
-33.58
-23.77
-13.65
-4.18
3.96
10.48
15.42
19.02
21.64
23.59
25.08
26.23
27.07
27.59
27.76
27.59
27.09
26.30
25.30
24.28
23.45
23.03
23.16
23.76
24.56
25.18
25.26
24.64
23.42
21.86
20.26
18.76
17.32
15.80
14.08
12.15
10.12
8.13
6.28
4.53
2.80
0.94
-1.11
-3.44
-6.06
-9.02
-12.30
-15.79
-19.32
-22.67
-25.72
-28.60
-31.60
-35.16
-39.55
-44.73
-50.15
-54.88
-57.72
-57.65
-54.10
-47.23
-37.89
-27.32
-16.83
-7.45
0.26
6.23
10.67
13.96
16.46
18.42
19.99
21.23
22.12
22.58
22.56
22.07
21.25
20.30
19.45
18.87
18.65
18.79
19.20
19.74
20.26
20.60
20.59
20.13
19.18
17.85
16.33
14.86
13.61
12.59
11.66
10.52
8.94
6.79
4.17
1.38
-1.24
-3.43
-5.19
-6.72
-8.33
-10.30
-12.69
-15.40
-18.14
-20.67
-22.81
-24.55
-25.99
-27.35
-28.93
-31.09
-34.14
-38.27
-43.26
-48.48
-52.88
-55.24
-54.54
-50.33
-42.89
-33.17
-22.49
-12.15
-3.15
4.07
9.51
13.51
16.56
19.03
21.21
23.18
24.98
26.53
27.77
28.60
28.91
28.68
28.02
27.09
26.19
25.58
25.37
25.55
25.93
26.28
26.42
26.27
25.84
25.18
24.31
23.21
21.86
20.31
18.67
17.08
15.64
14.35
13.11
11.78
10.28
8.67
7.09
5.66
4.43
3.25
1.87
0.06
-2.28
-5.03
-7.90
-10.50
-12.55
-14.01
-15.07
-16.23
-18.03
-20.95
-25.23
-30.68
-36.74
-42.50
-46.91
-49.00
-48.10
-44.06
-37.28
-28.61
-19.18
-10.08
-2.11
4.32
9.22
12.84
15.54
17.65
19.43
21.01
22.42
23.58
24.34
24.57
24.19
23.29
22.10
20.91
20.01
19.55
19.50
19.75
20.09
20.35
20.34
19.97
19.15
17.91
16.31
14.51
12.64
10.81
9.07
7.47
6.00
4.67
3.46
2.33
1.20
-0.02
-1.39
-2.98
-4.83
-6.96
-9.33
-11.84
-14.31
-16.56
-18.43
-19.96
-21.36
-23.07
-25.53
-29.07
-33.70
-39.06
-44.43
-48.85
-51.40
-51.32
-48.31
-42.51
-34.53
-25.27
-15.76
-6.92
0.60
6.52
10.90
14.01
16.26
17.99
19.39
20.56
21.44
21.97
22.11
21.88
21.35
20.67
19.98
19.43
19.12
19.08
19.28
19.64
20.01
20.24
20.19
19.83
19.16
18.27
17.22
16.08
14.86
13.54
12.13
10.65
9.12
7.55
5.92
4.19
2.35
0.45
-1.38
-3.10
-4.73
-6.46
-8.47
-10.95
-13.89
-17.11
-20.35
-23.38
-26.09
-28.60
-31.19
-34.23
-38.07
-42.81
-48.27
-53.83
-58.58
-61.44
-61.47
-58.11
-51.41
-42.02
-31.05
-19.79
-9.38
-0.60
6.21
11.19
14.72
17.33
19.45
21.32
23.02
24.45
25.46
25.94
25.87
25.37
24.66
23.99
23.58
23.47
23.61
23.77
23.71
23.23
22.31
21.09
19.80
18.66
17.74
16.93
16.01
14.82
13.33
11.67
10.03
8.58
7.31
6.07
4.69
3.09
1.37
-0.29
-1.76
-3.01
-4.22
-5.62
-7.44
-9.72
-12.36
-15.15
-17.84
-20.27
-22.36
-24.15
-25.82
-27.64
-30.04
-33.42
-37.98
-43.53
-49.40
-54.52
-57.72
-58.10
-55.32
-49.71
-42.16
-33.83
-25.84
-18.95
-13.42
-9.00
-5.13
-1.16
3.34
8.49
14.00
19.33
23.91
27.30
29.35
30.17
30.09
29.51
28.80
28.22
27.90
27.83
27.92
28.09
28.23
28.28
28.09
27.53
26.43
24.81
22.84
20.88
19.34
18.44
18.11
17.99
17.54
16.33
14.20
11.35
8.24
5.32
2.87
0.82
-1.15
-3.41
-6.18
-9.41
-12.77
-15.91
-18.60
-20.87
-23.01
-25.46
-28.62
-32.66
-37.53
-42.88
-48.10
-52.34
-54.69
-54.31
-50.78
-44.20
-35.33
-25.36
-15.56
-6.91
0.12
5.59
9.88
13.34
16.22
18.57
20.34
21.56
22.38
22.99
23.61
24.34
25.16
25.97
26.63
27.06
27.28
27.40
27.51
27.73
28.03
28.34
28.53
28.53
28.30
27.87
27.29
26.54
25.53
24.19
22.47
20.48
18.38
16.40
14.65
13.06
11.47
9.66
7.51
5.09
2.64
0.42
-1.40
-2.83
-4.10
-5.55
-7.49
-10.12
-13.36
-16.93
-20.52
-23.86
-26.92
-29.88
-32.99
-36.31
-39.55
-42.05
-42.87
-41.13
-36.22
-28.08
-17.16
-4.37
9.16
22.21
33.64
42.59
48.57
51.66
52.44
51.89
51.14
51.07
52.04
53.79
55.52
56.26
55.22
52.03
46.75
39.63
30.94
20.79
9.30
-3.19
-16.00
-28.14
-38.64
-46.87
-52.86
-57.16
-60.49
-63.24
-65.33
-66.30
-65.77
-63.78
-60.92
-58.04
-55.81
-54.41
-53.43
-52.22
-50.29
-47.51
-44.20
-40.88
-38.01
-35.83
-34.38
-33.48
-32.91
-32.37
-31.53
-30.14
-28.13
-25.64
-22.94
-20.32
-17.91
-15.61
-13.09
-9.83
-5.28
0.95
9.01
18.68
29.42
40.47
51.04
60.57
68.84
75.96
82.25
88.09
93.67
99.00
103.81
107.63
109.87
109.99
107.71
103.16
96.94
89.92
82.92
76.45
70.51
64.76
58.73
52.10
44.86
37.24
29.66
22.60
16.55
11.95
9.13
8.18
8.86
10.61
12.71
14.47
15.49
15.67
15.20
14.39
13.49
12.60
11.64
10.43
8.74
6.40
3.32
-0.48
-4.99
-10.13
-15.85
-22.01
-28.41
-34.82
-41.04
-46.99
-52.66
-58.02
-62.87
-66.77
-69.17
-69.64
-68.04
-64.64
-59.94
-54.48
-48.61
-42.46
-36.01
-29.33
-22.68
-16.44
-11.03
-6.71
-3.47
-1.08
0.80
2.49
4.14
5.68
6.92
7.56
7.37
6.26
4.32
1.83
-0.83
-3.21
-4.97
-5.91
-6.01
-5.46
-4.57
-3.75
-3.27
-3.30
-3.78
-4.49
-5.14
-5.48
-5.40
-4.93
-4.21
-3.45
-2.86
-2.61
-2.85
-3.71
-5.26
-7.57
-10.62
-14.41
-18.93
-24.18
-30.21
-36.95
-44.23
-51.67
-58.78
-65.07
-70.22
-74.21
-77.34
-80.12
-83.05
-86.41
-90.06
-93.56
-96.32
-97.81
-97.77
-96.20
-93.25
-89.12
-83.98
-77.99
-71.38
-64.55
-57.95
-51.96
-46.57
-41.30
-35.12
-26.83
-15.44
-0.52
17.61
37.99
59.30
80.20
99.64
116.86
131.52
143.58
153.31
161.25
168.06
174.41
180.73
186.97
192.66
196.93
198.75
197.31
192.17
183.44
171.64
157.63
142.51
127.43
113.53
101.77
92.72
86.44
82.43
79.89
77.90
75.74
72.99
69.52
65.31
60.36
54.58
47.90
40.35
32.14
23.66
15.41
7.91
1.55
-3.52
-7.44
-10.65
-13.71
-17.18
-21.45
-26.73
-33.00
-40.07
-47.67
-55.46
-63.14
-70.46
-77.27
-83.44
-88.92
-93.74
-98.02
-101.97
-105.83
-109.76
-113.76
-117.59
-120.84
-123.10
-124.07
-123.67
-122.06
-119.51
-116.38
-112.95
-109.42
-105.80
-102.00
-97.83
-93.10
-87.73
-81.75
-75.32
-68.63
-61.86
-55.13
-48.53
-42.16
-36.18
-30.77
-26.06
-22.19
-19.26
-17.36
-16.50
-16.56
-17.16
-17.73
-17.55
-16.03
-12.94
-8.46
-3.11
2.49
7.83
12.64
16.79
20.22
22.88
24.70
25.77
26.33
26.74
27.33
28.20
29.18
29.95
30.16
29.65
28.46
26.76
24.81
22.92
21.35
20.35
20.04
20.34
20.92
21.29
21.04
20.02
18.36
16.34
14.20
11.96
9.50
6.72
3.66
0.51
-2.52
-5.34
-7.96
-10.47
-12.82
-14.88
-16.52
-17.78
-18.86
-20.15
-22.00
-24.53
-27.54
-30.47
-32.57
-33.12
-31.64
-28.05
-22.75
-16.40
-9.77
-3.45
2.17
6.97
10.90
14.01
16.40
18.29
19.94
21.52
22.97
23.90
23.84
22.49
19.97
16.81
13.66
11.09
9.39
8.56
8.47
8.98
9.90
11.02
12.02
12.58
12.49
11.73
10.39
8.57
6.32
3.64
0.54
-2.87
-6.37
-9.71
-12.62
-14.92
-16.57
-17.63
-18.31
-18.95
-19.88
-21.32
-23.22
-25.31
-27.15
-28.27
-28.34
-27.16
-24.64
-20.87
-16.04
-10.51
-4.74
0.83
5.82
10.04
13.47
16.25
18.55
20.50
22.09
23.16
23.52
22.98
21.47
19.08
16.12
12.99
10.16
8.03
6.87
6.69
7.31
8.36
9.45
10.25
10.56
10.31
9.44
7.83
5.41
2.20
-1.56
-5.46
-9.09
-12.10
-14.38
-15.99
-17.16
-18.18
-19.33
-20.93
-23.14
-26.02
-29.43
-33.00
-36.18
-38.31
-38.75
-37.08
-33.19
-27.38
-20.27
-12.65
-5.25
1.44
7.22
12.09
16.20
19.67
22.55
24.79
26.27
26.84
26.41
25.02
22.89
20.47
18.27
16.74
16.05
16.10
16.59
17.14
17.48
17.41
16.83
15.66
13.85
11.36
8.24
4.68
0.95
-2.55
-5.47
-7.62
-8.97
-9.70
-10.07
-10.46
-11.29
-12.95
-15.80
-19.97
-25.36
-31.48
-37.46
-42.15
-44.30
-42.93
-37.70
-29.05
-18.20
-6.76
3.74
12.18
18.16
21.89
23.94
24.95
25.39
25.55
25.56
25.57
25.70
26.01
26.46
26.88
27.11
27.03
26.65
26.11
25.58
25.14
24.76
24.24
23.33
21.86
19.90
17.75
15.86
14.63
14.21
14.36
14.57
14.09
12.38
9.22
4.86
-0.09
-4.92
-9.05
-12.25
-14.69
-16.89
-19.48
-22.98
-27.44
-32.37
-36.74
-39.34
-39.12
-35.61
-29.05
-20.33
-10.71
-1.45
6.43
12.44
16.51
18.97
20.31
21.07
21.66
22.34
23.23
24.35
25.58
26.65
27.23
26.95
25.54
22.93
19.34
15.18
10.90
6.90
3.39
0.35
-2.45
-5.39
-8.91
-13.36
-18.91
-25.40
-32.40
-39.30
-45.45
-50.17
-52.95
-53.35
-51.15
-46.45
-39.72
-31.82
-23.78
-16.48
-10.46
-5.73
-1.98
1.28
4.39
7.54
10.83
14.45
18.79
24.28
31.18
39.24
47.71
55.48
61.48
65.06
66.19
65.32
63.15
60.24
56.89
53.14
48.96
44.41
39.68
35.07
30.81
26.97
23.51
20.29
17.25
14.44
12.00
10.05
8.61
7.56
6.63
5.57
4.19
2.45
0.48
-1.57
-3.56
-5.40
-7.14
-8.83
-10.58
-12.45
-14.47
-16.60
-18.75
-20.80
-22.63
-24.14
-25.33
-26.27
-27.12
-28.11
-29.43
-31.18
-33.22
-35.08
-36.11
-35.55
-32.81
-27.69
-20.54
-12.13
-3.43
4.64
11.44
16.65
20.29
22.56
23.76
24.23
24.27
24.08
23.71
23.12
22.15
20.70
18.76
16.49
14.11
11.89
10.02
8.61
7.66
7.05
6.63
6.23
5.65
4.78
3.54
2.00
0.29
-1.43
-3.04
-4.52
-5.95
-7.45
-9.10
-10.89
-12.73
-14.48
-16.12
-17.68
-19.25
-20.91
-22.65
-24.37
-25.97
-27.46
-29.00
-30.87
-33.29
-36.30
-39.67
-42.87
-45.32
-46.49
-45.98
-43.63
-39.49
-33.77
-26.94
-19.60
-12.40
-5.92
-0.49
3.85
7.29
10.08
12.44
14.46
16.17
17.58
18.78
19.87
20.92
21.92
22.76
23.38
23.74
23.90
23.96
23.96
23.85
23.48
22.74
21.56
19.99
18.17
16.24
14.27
12.22
10.06
7.80
5.57
3.56
1.97
0.86
0.14
-0.41
-1.11
-2.22
-3.86
-5.99
-8.46
-11.02
-13.47
-15.70
-17.72
-19.66
-21.72
-24.13
-27.16
-30.94
-35.37
-40.02
-44.13
-46.75
-46.99
-44.39
-39.07
-31.76
-23.55
-15.53
-8.52
-2.89
1.45
4.80
7.57
10.09
12.51
14.92
17.28
19.55
21.65
23.45
24.78
25.48
25.44
24.73
23.58
22.36
21.42
20.96
20.93
21.09
21.12
20.76
19.91
18.69
17.30
15.93
14.64
13.37
12.03
10.55
9.00
7.51
6.25
5.26
4.44
3.56
2.32
0.53
-1.85
-4.62
-7.45
-9.92
-11.69
-12.55
-12.51
-11.83
-10.96
-10.45
-10.77
-12.17
-14.52
-17.23
-19.45
-20.35
-19.40
-16.62
-12.41
-7.40
-2.18
2.86
7.47
11.47
14.64
16.85
18.14
18.76
19.18
19.78
20.80
22.24
23.91
25.69
27.54
29.45
31.31
32.93
34.04
34.51
34.42
34.05
33.66
33.34
32.95
32.20
30.88
29.04
26.93
24.88
23.16
21.86
20.89
20.14
19.52
19.01
18.54
17.95
17.02
15.51
13.24
10.19
6.52
2.49
-1.64
-5.74
-9.85
-14.15
-18.87
-24.14
-29.99
-36.34
-43.08
-50.18
-57.61
-65.20
-72.46
-78.63
-82.83
-84.36
-83.02
-79.16
-73.60
-67.28
-61.01
-55.29
-50.34
-46.24
-43.06
-40.86
-39.58
-38.99
-38.67
-38.15
-37.02
-35.14
-32.60
-29.64
-26.56
-23.55
-20.67
-17.87
-15.05
-12.12
-9.05
-5.79
-2.32
1.33
5.11
8.89
12.51
15.74
18.39
20.34
21.59
22.22
22.41
22.27
21.82
20.99
19.69
17.86
15.62
13.16
10.69
8.40
6.38
4.64
3.18
1.99
0.99
0.01
-1.20
-2.93
-5.41
-8.70
-12.66
-16.85
-20.65
-23.26
-23.97
-22.35
-18.43
-12.76
-6.23
0.22
5.92
10.60
14.27
17.10
19.17
20.52
21.18
21.29
21.04
20.70
20.41
20.20
20.02
19.82
19.62
19.53
19.61
19.89
20.30
20.73
21.07
21.23
21.15
20.79
20.15
19.30
18.34
17.34
16.34
15.27
13.97
12.37
10.47
8.43
6.51
4.89
3.64
2.65
1.70
0.59
-0.76
-2.34
-4.11
-6.01
-8.09
-10.34
-12.71
-15.10
-17.41
-19.69
-22.19
-25.22
-28.91
-32.95
-36.57
-38.68
-38.30
-34.97
-28.98
-21.24
-12.97
-5.25
1.27
6.48
10.58
13.89
16.70
19.17
21.44
23.68
26.07
28.68
31.39
33.92
35.90
37.03
37.32
37.03
36.60
36.47
36.88
37.83
39.02
40.06
40.49
40.02
38.58
36.37
33.73
31.04
28.51
26.05
23.41
20.28
16.51
12.19
7.60
3.04
-1.30
-5.41
-9.35
-13.18
-16.86
-20.34
-23.60
-26.74
-29.93
-33.35
-37.04
-40.92
-44.90
-48.95
-53.23
-57.90
-62.94
-67.95
-72.10
-74.39
-73.94
-70.35
-63.80
-54.94
-44.64
-33.74
-22.95
-12.76
-3.55
4.47
11.27
16.99
21.88
26.21
30.10
33.54
36.37
38.44
39.66
40.06
39.75
38.88
37.68
36.34
35.03
33.79
32.56
31.14
29.34
27.03
24.26
21.22
18.12
15.15
12.40
9.83
7.40
5.04
2.71
0.37
-2.00
-4.47
-7.04
-9.73
-12.48
-15.23
-17.94
-20.58
-23.19
-25.75
-28.27
-30.71
-33.09
-35.53
-38.20
-41.28
-44.82
-48.59
-52.09
-54.62
-55.47
-54.11
-50.35
-44.37
-36.62
-27.77
-18.50
-9.48
-1.30
5.64
11.11
15.08
17.77
19.54
20.80
21.90
23.02
24.13
25.10
25.77
26.10
26.18
26.22
26.42
26.82
27.36
27.92
28.42
28.85
29.27
29.70
30.11
30.36
30.33
29.93
29.16
28.05
26.66
24.97
23.04
20.92
18.72
16.53
14.38
12.19
9.78
7.00
3.77
0.15
-3.69
-7.51
-11.11
-14.35
-17.23
-19.83
-22.34
-25.08
-28.40
-32.56
-37.55
-42.95
-47.91
-51.31
-52.15
-49.83
-44.42
-36.66
-27.68
-18.66
-10.55
-3.83
1.34
5.14
7.85
9.83
11.44
12.95
14.50
16.11
17.63
18.89
19.80
20.39
20.79
21.25
21.92
22.88
24.10
25.41
26.65
27.62
28.22
28.42
28.30
27.95
27.49
26.93
26.22
25.29
24.13
22.81
21.48
20.29
19.30
18.46
17.65
16.74
15.63
14.32
12.82
11.15
9.29
7.19
4.83
2.17
-0.83
-4.20
-8.04
-12.42
-17.38
-22.73
-28.07
-32.74
-35.94
-36.97
-35.40
-31.29
-25.18
-18.00
-10.82
-4.56
0.20
3.36
5.16
6.06
6.54
6.95
7.41
7.89
8.30
8.54
8.56
8.40
8.15
7.92
7.83
7.96
8.35
9.04
10.01
11.24
12.62
14.00
15.14
15.78
15.78
15.12
13.95
12.55
11.19
10.02
9.04
8.17
7.27
6.23
4.94
3.33
1.37
-0.95
-3.52
-6.14
-8.54
-10.53
-12.09
-13.48
-15.17
-17.77
-21.66
-26.90
-33.04
-39.23
-44.37
-47.46
-47.84
-45.35
-40.35
-33.61
-26.04
-18.51
-11.70
-5.99
-1.51
1.82
4.28
6.20
7.92
9.73
11.73
13.81
15.74
17.27
18.24
18.66
18.69
18.53
18.36
18.32
18.54
19.06
19.86
20.81
21.64
22.02
21.74
20.76
19.29
17.70
16.27
15.09
14.03
12.82
11.23
9.20
6.84
4.34
1.84
-0.66
-3.29
-6.18
-9.40
-12.86
-16.39
-19.75
-22.76
-25.36
-27.61
-29.72
-32.00
-34.79
-38.36
-42.81
-47.91
-53.02
-57.20
-59.36
-58.67
-54.79
-47.99
-39.09
-29.21
-19.45
-10.65
-3.27
2.60
7.22
11.02
14.45
17.84
21.28
24.64
27.69
30.18
31.96
32.98
33.29
32.96
32.17
31.21
30.47
30.30
30.85
31.91
33.00
33.54
33.13
31.74
29.67
27.36
25.21
23.40
21.86
20.39
18.74
16.74
14.36
11.68
8.88
6.16
3.67
1.45
-0.58
-2.59
-4.73
-7.07
-9.53
-11.97
-14.25
-16.32
-18.27
-20.27
-22.56
-25.43
-29.10
-33.71
-39.13
-44.86
-50.06
-53.63
-54.54
-52.17
-46.54
-38.43
-29.08
-19.84
-11.72
-5.21
-0.26
3.55
6.73
9.72
12.77
15.95
19.24
22.46
25.37
27.71
29.23
29.88
29.79
29.23
28.56
28.09
27.98
28.25
28.80
29.43
29.87
29.91
29.46
28.59
27.56
26.63
25.96
25.46
24.87
23.91
22.44
20.56
18.54
16.60
14.81
13.03
11.04
8.68
5.97
3.00
-0.04
-3.03
-5.98
-8.93
-11.97
-15.16
-18.60
-22.41
-26.68
-31.41
-36.37
-41.04
-44.70
-46.53
-45.94
-42.70
-37.08
-29.75
-21.57
-13.42
-5.95
0.42
5.54
9.42
12.18
14.06
15.32
16.26
17.09
17.98
18.96
19.93
20.80
21.41
21.71
21.68
21.43
21.07
20.72
20.50
20.45
20.54
20.65
20.65
20.39
19.74
18.64
17.11
15.21
13.04
10.71
8.34
5.99
3.72
1.55
-0.55
-2.70
-5.08
-7.84
-11.02
-14.46
-17.85
-20.85
-23.27
-25.21
-27.07
-29.40
-32.72
-37.24
-42.74
-48.59
-53.82
-57.39
-58.44
-56.49
-51.63
-44.49
-36.09
-27.61
-20.00
-13.80
-9.04
-5.32
-2.04
1.34
5.08
9.14
13.20
16.90
19.96
22.29
23.98
25.20
26.13
26.89
27.52
28.09
28.61
29.07
29.38
29.37
28.84
27.71
26.06
24.13
22.24
20.70
19.62
18.94
18.43
17.82
16.89
15.59
13.97
12.20
10.40
8.58
6.64
4.43
1.82
-1.23
-4.64
-8.24
-11.90
-15.48
-18.87
-21.98
-24.76
-27.26
-29.71
-32.46
-35.94
-40.34
-45.48
-50.71
-54.94
-57.00
-56.04
-51.76
-44.54
-35.30
-25.21
-15.37
-6.60
0.66
6.32
10.56
13.79
16.45
18.94
21.46
23.97
26.24
28.02
29.09
29.45
29.21
28.61
27.86
27.15
26.60
26.34
26.40
26.72
27.16
27.50
27.52
27.10
26.24
25.04
23.63
22.14
20.63
19.12
17.57
15.92
14.11
12.14
10.09
8.05
6.18
4.58
3.28
2.21
1.17
-0.06
-1.69
-3.82
-6.40
-9.27
-12.19
-14.96
-17.41
-19.51
-21.39
-23.37
-25.86
-29.27
-33.84
-39.40
-45.30
-50.47
-53.66
-53.84
-50.54
-44.04
-35.30
-25.60
-16.16
-7.84
-0.95
4.57
9.07
12.89
16.28
19.32
21.99
24.17
25.76
26.70
27.00
26.75
26.08
25.18
24.25
23.47
22.98
22.86
23.11
23.63
24.26
24.79
25.06
24.94
24.45
23.67
22.72
21.66
20.51
19.18
17.65
15.90
14.01
12.10
10.21
8.33
6.32
4.07
1.49
-1.36
-4.34
-7.25
-9.97
-12.45
-14.72
-16.91
-19.16
-21.69
-24.77
-28.61
-33.24
-38.36
-43.32
-47.09
-48.66
-47.28
-42.78
-35.64
-26.81
-17.45
-8.55
-0.73
5.79
11.11
15.43
18.92
21.66
23.68
25.04
25.87
26.30
26.47
26.38
25.96
25.13
23.95
22.64
21.57
21.10
21.40
22.33
23.50
24.49
24.89
24.51
23.37
21.67
19.73
17.88
16.39
15.35
14.66
14.01
13.07
11.59
9.52
7.01
4.33
1.71
-0.80
-3.34
-6.07
-9.17
-12.66
-16.41
-20.21
-23.86
-27.17
-30.08
-32.65
-35.10
-37.78
-41.06
-45.18
-50.04
-55.06
-59.26
-61.50
-60.79
-56.69
-49.40
-39.71
-28.81
-17.92
-8.07
0.08
6.32
10.77
13.88
16.17
18.16
20.20
22.43
24.75
26.94
28.74
29.93
30.41
30.26
29.68
28.96
28.41
28.25
28.54
29.13
29.71
29.92
29.45
28.19
26.24
23.82
21.24
18.70
16.39
14.36
12.61
11.12
9.77
8.37
6.73
4.70
2.34
-0.15
-2.43
-4.25
-5.58
-6.63
-7.82
-9.51
-11.92
-15.02
-18.55
-22.17
-25.54
-28.45
-30.86
-32.98
-35.20
-38.00
-41.83
-46.87
-52.87
-59.02
-64.10
-66.80
-66.09
-61.56
-53.58
-43.12
-31.51
-20.03
-9.69
-1.10
5.59
10.50
14.03
16.64
18.82
20.90
23.00
25.03
26.77
27.99
28.54
28.41
27.70
26.60
25.36
24.27
23.61
23.55
24.08
24.99
25.93
26.49
26.41
25.62
24.24
22.51
20.71
19.06
17.70
16.68
15.93
15.29
14.56
13.54
12.14
10.42
8.57
6.83
5.39
4.30
3.42
2.41
0.91
-1.38
-4.51
-8.26
-12.19
-15.77
-18.64
-20.75
-22.43
-24.26
-26.81
-30.39
-34.84
-39.56
-43.63
-46.06
-46.09
-43.35
-38.01
-30.64
-22.13
-13.41
-5.29
1.68
7.22
11.35
14.22
16.10
17.28
18.09
18.76
19.47
20.28
21.14
21.91
22.45
22.70
22.67
22.47
22.20
21.93
21.72
21.61
21.66
21.91
22.33
22.75
22.86
22.36
21.06
19.02
16.49
13.81
11.17
8.60
5.99
3.25
0.39
-2.42
-5.03
-7.41
-9.73
-12.29
-15.39
-19.15
-23.54
-28.35
-33.31
-38.20
-42.87
-47.30
-51.64
-56.17
-61.19
-66.89
-73.18
-79.58
-85.26
-89.21
-90.49
-88.57
-83.50
-75.84
-66.56
-56.70
-47.17
-38.49
-30.87
-24.23
-18.39
-13.11
-8.16
-3.33
1.56
6.61
11.74
16.77
21.42
25.49
28.88
31.69
34.14
36.58
39.42
43.04
47.65
53.19
59.29
65.34
70.69
74.93
78.01
80.18
81.79
83.00
83.71
83.62
82.43
80.03
76.54
72.25
67.49
62.54
57.53
52.51
47.42
42.08
36.39
30.28
23.86
17.39
11.16
5.38
0.05
-4.93
-9.81
-14.72
-19.74
-24.88
-30.07
-35.27
-40.28
-44.80
-48.34
-50.35
-50.43
-48.52
-44.94
-40.25
-35.07
-29.82
-24.74
-19.96
-15.67
-12.17
-9.90
-9.18
-10.01
-11.98
-14.28
-15.96
-16.28
-14.88
-11.81
-7.41
-2.07
3.92
10.33
16.88
23.12
28.43
32.15
33.89
33.68
31.99
29.56
27.11
25.09
23.67
22.79
22.28
22.00
21.81
21.55
21.03
20.10
18.63
16.60
14.17
11.56
9.06
6.90
5.16
3.72
2.33
0.65
-1.56
-4.30
-7.41
-10.58
-13.51
-16.02
-18.01
-19.35
-19.81
-19.08
-16.78
-12.75
-7.02
0.01
7.77
15.65
23.20
30.15
36.42
41.99
46.83
50.81
53.77
55.69
56.76
57.36
57.86
58.42
58.80
58.39
56.58
53.00
47.79
41.51
34.94
28.72
23.20
18.48
14.52
11.31
8.79
6.81
4.97
2.73
-0.30
-4.05
-7.86
-10.69
-11.59
-10.18
-6.95
-3.02
0.31
2.10
1.99
0.24
-2.51
-5.51
-8.07
-9.54
-9.44
-7.57
-4.14
0.08
3.71
5.39
4.23
0.18
-6.11
-13.59
-21.10
-27.71
-32.82
-36.24
-37.88
-37.56
-35.13
-30.72
-24.91
-18.79
-13.63
-10.54
-10.48
-13.40
-18.09
-22.56
-24.91
-24.18
-20.65
-15.74
-11.38
-10.48
-14.62
-23.30
-34.40
-45.57
-55.24
-62.88
-68.69
-72.94
-78.47
-87.04
-98.36
-110.53
-121.62
-130.56
-137.07
-141.23
-143.19
-147.59
-157.78
-174.10
-193.92
-213.92
-231.74
-246.00
-256.12
-261.72
-268.60
-281.02
-299.33
-320.05
-338.85
-352.75
-360.33
-361.59
-325.28
-239.49
-116.27
15.36
130.15
217.52
277.91
316.05
335.03
341.92
336.76
320.72
298.20
275.49
257.05
243.53
234.38
227.62
222.41
214.50
201.90
185.70
168.96
154.23
142.28
132.70
124.67
118.09
110.19
99.27
85.50
70.62
56.64
44.80
35.63
29.02
24.61
20.21
13.93
5.06
-5.73
-17.07
-27.64
-36.57
-43.70
-49.26
-54.34
-59.74
-65.53
-71.17
-75.95
-79.47
-81.79
-83.31
-84.46
-85.54
-86.58
-87.52
-88.28
-88.98
-89.88
-91.28
-93.40
-96.18
-99.33
-102.35
-104.62
-105.42
-104.06
-99.95
-92.73
-82.49
-69.73
-55.26
-39.92
-24.30
-8.65
6.98
22.53
37.68
51.84
64.29
74.45
82.11
87.43
90.81
92.59
92.94
91.82
89.18
85.13
80.13
74.92
70.35
67.13
65.52
65.34
66.06
67.01
67.65
67.69
67.00
65.52
63.21
60.05
56.12
51.76
47.43
43.62
40.58
38.24
36.20
34.00
31.31
28.09
24.43
20.45
16.13
11.30
5.82
-0.20
-6.36
-12.04
-16.64
-19.86
-21.81
-22.98
-24.05
-25.60
-27.87
-30.64
-33.30
-35.03
-35.02
-32.74
-28.12
-21.54
-13.77
-5.70
1.90
8.52
14.01
18.41
21.84
24.39
26.09
27.00
27.22
26.98
26.55
26.10
25.65
25.06
24.12
22.68
20.73
18.38
15.86
13.37
11.04
8.93
6.99
5.13
3.19
0.97
-1.65
-4.64
-7.80
-10.77
-13.14
-14.58
-15.01
-14.58
-13.69
-12.76
-12.16
-12.08
-12.54
-13.39
-14.44
-15.57
-16.71
-17.91
-19.27
-20.97
-23.23
-26.35
-30.72
-36.64
-44.34
-53.80
-64.75
-76.68
-88.77
-100.01
-109.21
-115.22
-117.24
-115.08
-109.32
-101.19
-92.23
-83.85
-76.87
-71.37
-66.84
-62.58
-58.10
-53.40
-49.00
-45.63
-43.83
-43.59
-44.30
-44.95
-44.56
-42.56
-38.97
-34.26
-29.03
-23.76
-18.66
-13.66
-8.62
-3.38
2.07
7.65
13.29
18.87
24.32
29.56
34.49
38.98
42.93
46.25
48.95
51.06
52.64
53.69
54.15
53.96
53.04
51.43
49.23
46.54
43.43
39.88
35.79
31.01
25.45
19.09
12.11
4.95
-1.69
-6.88
-9.67
-9.29
-5.46
1.53
10.87
21.40
31.93
41.46
49.32
55.28
59.43
62.13
63.82
64.94
65.76
66.40
66.85
67.06
66.98
66.60
65.98
65.10
63.93
62.44
60.70
58.88
57.18
55.78
54.70
53.78
52.66
50.97
48.40
44.88
40.53
35.67
30.65
25.72
21.02
16.51
12.05
7.44
2.50
-2.87
-8.63
-14.58
-20.45
-25.95
-30.98
-35.59
-40.07
-44.82
-50.25
-56.64
-64.05
-72.10
-79.94
-86.29
-89.67
-88.78
-83.02
-72.71
-59.09
-43.96
-29.10
-15.85
-4.89
3.76
10.45
15.75
20.23
24.31
28.22
31.97
35.34
38.06
39.88
40.73
40.71
40.15
39.44
38.95
38.96
39.57
40.67
42.00
43.15
43.75
43.49
42.30
40.30
37.79
35.07
32.37
29.78
27.23
24.53
21.53
18.15
14.45
10.57
6.67
2.78
-1.22
-5.51
-10.31
-15.62
-21.26
-26.83
-31.88
-36.08
-39.37
-41.99
-44.36
-46.98
-50.16
-53.82
-57.40
-59.90
-60.11
-56.90
-49.67
-38.59
-24.66
-9.44
5.31
18.11
28.12
35.16
39.74
42.65
44.79
46.85
49.22
51.97
54.94
57.81
60.20
61.73
62.18
61.49
59.89
57.78
55.72
54.12
53.16
52.69
52.25
51.32
49.50
46.69
43.05
38.93
34.73
30.65
26.81
23.15
19.57
15.97
12.29
8.50
4.63
0.70
-3.24
-7.16
-10.97
-14.58
-17.95
-21.07
-23.99
-26.81
-29.66
-32.68
-36.01
-39.80
-44.22
-49.31
-54.95
-60.71
-65.82
-69.21
-69.86
-66.96
-60.34
-50.46
-38.37
-25.38
-12.75
-1.41
8.13
15.74
21.59
25.98
29.28
31.86
34.06
36.12
38.14
40.11
41.89
43.36
44.39
44.96
45.13
45.02
44.82
44.73
44.93
45.49
46.31
47.16
47.72
47.78
47.24
46.24
45.01
43.80
42.72
41.80
40.92
40.01
39.02
38.01
37.07
36.26
35.57
34.90
34.07
32.83
30.88
27.84
23.32
16.95
8.54
-1.76
-13.48
-25.87
-38.10
-49.47
-59.53
-68.12
-75.27
-81.09
-85.64
-88.90
-90.79
-91.19
-90.07
-87.59
-84.04
-79.89
-75.63
-71.71
-68.41
-65.73
-63.47
-61.32
-58.97
-56.21
-53.00
-49.37
-45.39
-41.14
-36.69
-32.15
-27.67
-23.44
-19.61
-16.28
-13.40
-10.86
-8.53
-6.32
-4.24
-2.34
-0.66
0.79
2.04
3.17
4.19
5.07
5.73
6.10
6.19
6.14
6.21
6.60
7.38
8.36
9.15
9.37
8.82
7.61
6.08
4.64
3.55
2.78
1.98
0.59
-1.94
-5.93
-11.23
-17.16
-22.57
-26.21
-27.09
-24.83
-19.80
-12.91
-5.30
2.05
8.46
13.55
17.17
19.29
20.02
19.65
18.70
17.71
17.10
16.99
17.23
17.43
17.22
16.40
15.03
13.40
11.92
10.95
10.66
11.02
11.79
12.63
13.27
13.59
13.60
13.39
13.00
12.41
11.53
10.39
9.07
7.74
6.57
5.59
4.72
3.83
2.81
1.65
0.44
-0.70
-1.73
-2.65
-3.58
-4.63
-5.94
-7.64
-9.85
-12.70
-16.31
-20.70
-25.73
-31.06
-36.13
-40.24
-42.66
-42.79
-40.44
-35.85
-29.67
-22.78
-16.04
-10.04
-5.08
-1.16
1.83
4.09
5.77
7.02
8.03
8.94
9.85
10.82
11.77
12.65
13.37
13.98
14.51
15.08
15.72
16.47
17.27
18.08
18.80
19.32
19.54
19.35
18.63
17.37
15.60
13.48
11.21
9.00
6.94
5.08
3.35
1.67
-0.10
-2.05
-4.25
-6.72
-9.40
-12.17
-14.85
-17.36
-19.76
-22.30
-25.33
-29.17
-33.84
-38.98
-43.88
-47.62
-49.37
-48.55
-45.04
-39.07
-31.23
-22.28
-13.08
-4.41
3.10
9.11
13.54
16.64
18.83
20.51
22.02
23.42
24.62
25.41
25.62
25.24
24.34
23.14
21.84
20.55
19.37
18.30
17.35
16.49
15.62
14.67
13.56
12.24
10.78
9.30
7.91
6.67
5.54
4.46
3.33
2.09
0.75
-0.68
-2.18
-3.78
-5.49
-7.36
-9.42
-11.69
-14.26
-17.13
-20.26
-23.48
-26.59
-29.47
-32.16
-34.90
-37.98
-41.54
-45.36
-48.84
-51.15
-51.43
-49.06
-43.92
-36.29
-26.82
-16.39
-5.89
3.86
12.22
18.84
23.69
26.99
29.19
30.75
32.04
33.25
34.35
35.21
35.67
35.62
35.10
34.23
33.18
32.12
31.18
30.49
30.12
30.06
30.23
30.47
30.59
30.42
29.82
28.76
27.30
25.50
23.45
21.21
18.83
16.37
13.98
11.84
10.13
8.95
8.24
7.78
7.29
6.45
5.06
3.02
0.35
-2.86
-6.49
-10.40
-14.39
-18.34
-22.14
-25.79
-29.31
-32.65
-35.57
-37.61
-38.28
-37.17
-34.17
-29.47
-23.52
-16.88
-10.10
-3.61
2.24
7.17
11.00
13.68
15.35
16.30
16.92
17.55
18.33
19.29
20.24
21.00
21.46
21.60
21.57
21.54
21.66
21.94
22.34
22.73
23.03
23.20
23.22
23.09
22.76
22.15
21.19
19.91
18.43
16.94
15.61
14.51
13.56
12.58
11.35
9.69
7.48
4.74
1.61
-1.67
-4.80
-7.54
-9.79
-11.68
-13.57
-15.93
-19.17
-23.46
-28.62
-34.10
-39.09
-42.68
-44.09
-42.86
-38.97
-32.83
-25.19
-16.96
-9.00
-1.99
3.74
8.14
11.41
13.87
15.78
17.34
18.59
19.48
19.94
19.97
19.62
19.03
18.34
17.72
17.28
17.16
17.41
18.00
18.80
19.55
19.93
19.71
18.83
17.40
15.71
14.06
12.64
11.50
10.53
9.49
8.23
6.63
4.67
2.43
-0.00
-2.51
-5.01
-7.45
-9.83
-12.23
-14.79
-17.61
-20.74
-24.08
-27.53
-30.95
-34.38
-37.93
-41.77
-45.94
-50.24
-54.23
-57.29
-58.78
-58.17
-55.19
-49.86
-42.54
-33.89
-24.73
-15.94
-8.20
-1.85
3.11
6.95
10.07
12.76
15.18
17.34
19.16
20.57
21.55
22.10
22.25
22.02
21.49
20.78
20.05
19.47
19.14
19.04
19.04
18.91
18.42
17.39
15.80
13.77
11.46
9.10
6.78
4.57
2.43
0.35
-1.65
-3.48
-5.02
-6.21
-7.07
-7.73
-8.34
-9.07
-9.94
-10.93
-11.93
-12.84
-13.59
-14.17
-14.68
-15.29
-16.25
-17.79
-20.02
-22.79
-25.67
-27.96
-28.93
-28.05
-25.13
-20.39
-14.37
-7.69
-0.92
5.53
11.32
16.19
19.91
22.28
23.25
23.00
21.85
20.25
18.55
17.01
15.66
14.46
13.28
12.10
10.92
9.82
8.92
8.29
7.94
7.75
7.61
7.35
6.91
6.26
5.46
4.54
3.55
2.45
1.20
-0.19
-1.63
-2.94
-3.97
-4.67
-5.18
-5.77
-6.72
-8.21
-10.21
-12.53
-14.89
-17.09
-19.14
-21.18
-23.48
-26.29
-29.76
-33.85
-38.31
-42.67
-46.32
-48.65
-49.18
-47.66
-44.24
-39.40
-33.78
-27.97
-22.44
-17.50
-13.39
-10.26
-8.15
-7.01
-6.74
-7.07
-7.59
-8.03
-8.45
-9.28
-11.07
-14.17
-18.54
-23.84
-29.19
-33.42
-35.42
-34.65
-31.30
-26.15
-20.15
-14.16
-8.79
-3.78
2.12
10.78
23.92
42.48
66.36
94.52
125.19
154.94
178.66
191.61
192.23
183.03
168.77
154.28
143.13
137.97
137.66
140.21
143.43
145.26
143.93
138.17
127.20
110.79
89.80
65.42
39.34
13.52
-10.08
-29.93
-45.25
-56.04
-62.98
-67.10
-69.79
-72.12
-74.66
-77.50
-80.46
-83.36
-86.13
-88.69
-91.03
-93.27
-95.29
-96.81
-97.45
-96.91
-95.14
-92.29
-88.71
-84.70
-80.53
-76.25
-71.71
-66.77
-61.38
-55.76
-50.28
-45.36
-41.26
-37.98
-35.13
-32.09
-28.11
-22.69
-15.70
-7.52
1.01
8.93
15.47
20.27
23.43
25.37
26.47
26.94
26.66
25.37
22.96
19.55
15.57
11.58
7.89
4.51
1.09
-2.86
-7.71
-13.48
-19.72
-25.63
-30.19
-32.46
-31.80
-27.96
-21.17
-12.10
-1.74
8.75
18.22
25.80
31.06
34.02
35.17
35.13
34.49
33.58
32.48
31.11
29.40
27.35
25.07
22.70
20.34
18.10
16.12
14.56
13.50
12.89
12.46
11.82
10.65
8.82
6.45
3.83
1.25
-1.16
-3.43
-5.72
-8.16
-10.83
-13.67
-16.55
-19.26
-21.64
-23.59
-25.14
-26.47
-27.79
-29.29
-31.07
-33.05
-35.03
-36.70
-37.77
-38.03
-37.44
-36.16
-34.46
-32.69
-31.04
-29.48
-27.61
-24.81
-20.40
-13.88
-5.17
5.30
16.68
27.92
37.95
45.97
51.58
54.81
55.98
55.63
54.33
52.52
50.44
47.91
44.67
40.52
35.44
29.55
23.11
16.36
9.47
2.67
-3.89
-9.93
-15.17
-19.44
-23.12
-26.84
-31.24
-36.64
-42.74
-49.02
-54.76
-59.26
-62.22
-64.26
-66.25
-68.76
-71.84
-74.69
-77.02
-78.62
-79.35
-79.31
-79.94
-82.59
-87.82
-95.20
-102.92
-110.34
-117.06
-122.44
-125.73
-127.70
-128.59
-127.83
-124.41
-116.47
-105.17
-92.49
-79.71
-67.58
-58.46
-54.05
-54.96
-60.54
-67.80
-76.38
-86.30
-97.17
-93.34
-66.35
-18.20
39.22
81.17
105.99
117.06
117.73
114.40
109.76
102.94
92.96
79.96
65.64
54.05
46.24
42.17
41.57
43.48
45.19
44.58
41.02
35.69
31.94
30.86
32.50
36.45
41.63
45.96
47.87
46.90
43.75
40.56
38.07
36.47
35.82
35.76
35.42
34.08
31.39
27.59
23.60
19.74
16.13
12.79
9.52
5.95
1.78
-3.02
-8.13
-12.90
-16.89
-19.81
-21.54
-22.18
-21.92
-20.91
-19.22
-16.76
-13.38
-8.96
-3.54
2.66
9.25
15.81
21.86
27.00
30.94
33.52
34.77
34.94
34.37
33.35
31.98
30.12
27.38
23.35
17.75
10.56
2.15
-6.76
-15.05
-21.48
-24.96
-24.99
-21.81
-16.50
-10.54
-5.33
-1.72
0.18
0.82
0.89
0.88
1.02
1.27
1.49
1.63
1.62
1.42
0.82
-0.38
-2.37
-5.11
-8.27
-11.36
-13.83
-15.35
-15.78
-15.17
-13.53
-10.88
-7.20
-2.61
2.68
8.46
14.66
21.53
29.45
38.79
49.58
61.41
73.54
85.09
95.33
103.79
110.11
114.03
115.28
113.70
109.47
103.18
95.76
88.23
81.38
75.50
70.41
65.60
60.54
55.01
49.11
43.22
37.73
32.88
28.66
24.91
21.44
18.19
15.30
12.98
11.42
10.60
10.18
9.65
8.44
6.25
3.09
-0.67
-4.57
-8.20
-11.46
-14.49
-17.58
-20.91
-24.39
-27.72
-30.53
-32.57
-33.89
-34.72
-35.38
-36.02
-36.63
-37.14
-37.52
-37.96
-38.67
-39.74
-40.85
-41.28
-40.06
-36.45
-30.18
-21.68
-11.85
-1.82
7.48
15.40
21.67
26.23
29.12
30.41
30.32
29.18
27.47
25.64
23.97
22.39
20.60
18.28
15.31
11.90
8.50
5.58
3.43
1.99
0.98
0.04
-1.06
-2.45
-4.14
-6.14
-8.49
-11.17
-14.11
-17.16
-20.06
-22.59
-24.63
-26.22
-27.48
-28.60
-29.70
-30.84
-31.99
-33.09
-34.08
-34.95
-35.72
-36.46
-37.23
-38.03
-38.79
-39.43
-39.93
-40.39
-41.06
-42.21
-43.95
-46.14
-48.18
-49.21
-48.26
-44.65
-38.30
-29.80
-20.21
-10.78
-2.49
4.17
9.17
12.79
15.34
17.05
17.99
18.24
17.96
17.36
16.65
15.86
14.91
13.74
12.37
11.01
9.98
9.46
9.46
9.75
9.95
9.85
9.45
8.95
8.67
8.77
9.17
9.63
9.79
9.42
8.58
7.57
6.88
6.95
7.99
9.85
12.15
14.47
16.48
18.07
19.32
20.53
22.20
25.00
29.63
36.51
45.40
55.14
63.77
69.04
69.24
63.88
53.97
41.64
29.37
19.07
11.62
6.89
4.15
2.68
2.11
2.40
3.61
5.51
7.46
8.53
7.98
5.62
1.98
-1.84
-4.71
-5.92
-5.46
-3.88
-1.94
-0.24
0.83
0.96
-0.15
-2.53
-5.54
-7.56
-6.53
-0.91
9.21
21.76
33.62
42.08
46.03
46.15
44.09
41.13
37.57
33.08
27.53
21.84
17.76
17.00
20.19
26.49
33.94
40.42
44.35
44.97
42.14
36.04
27.00
15.60
2.66
-10.70
-23.39
-34.50
-43.69
-51.06
-57.09
-62.33
-67.12
-71.48
-75.10
-77.42
-77.86
-76.00
-71.77
-65.53
-58.11
-50.55
-43.95
-39.09
-36.30
-35.38
-35.81
-36.88
-38.03
-38.91
-39.40
-39.54
-39.43
-39.18
-38.85
-38.40
-37.73
-36.67
-35.03
-32.72
-29.69
-26.06
-21.99
-17.68
-13.34
-9.19
-5.42
-2.22
0.25
1.96
3.00
3.58
3.95
4.26
4.56
4.77
4.76
4.48
3.96
3.28
2.50
1.61
0.54
-0.87
-2.81
-5.45
-8.82
-12.83
-17.16
-21.27
-24.53
-26.33
-26.18
-23.90
-19.62
-13.77
-6.96
0.09
6.75
12.60
17.46
21.43
24.75
27.67
30.29
32.60
34.40
35.56
36.03
35.91
35.43
34.87
34.47
34.30
34.36
34.48
34.47
34.22
33.65
32.78
31.64
30.25
28.51
26.30
23.51
20.10
16.14
11.79
7.22
2.57
-2.06
-6.61
-11.03
-15.26
-19.23
-22.87
-26.14
-29.06
-31.75
-34.40
-37.26
-40.57
-44.46
-48.87
-53.44
-57.58
-60.57
-61.68
-60.36
-56.39
-49.92
-41.48
-31.82
-21.77
-12.11
-3.36
4.21
10.57
15.85
20.22
23.81
26.71
28.99
30.66
31.77
32.38
32.57
32.45
32.10
31.60
30.98
30.29
29.54
28.82
28.19
27.69
27.30
26.86
26.14
24.90
22.99
20.40
17.30
13.98
10.75
7.83
5.33
3.21
1.29
-0.68
-2.93
-5.60
-8.69
-12.05
-15.42
-18.62
-21.59
-24.46
-27.48
-30.93
-35.01
-39.74
-44.89
-49.99
-54.32
-57.04
-57.36
-54.75
-49.09
-40.79
-30.71
-19.94
-9.54
-0.35
7.21
13.11
17.60
21.07
23.91
26.35
28.50
30.28
31.56
32.23
32.24
31.67
30.66
29.44
28.27
27.32
26.69
26.36
26.26
26.22
26.05
25.60
24.73
23.40
21.64
19.57
17.35
15.09
12.89
10.76
8.71
6.73
4.79
2.88
0.91
-1.19
-3.49
-5.97
-8.53
-10.99
-13.25
-15.30
-17.33
-19.63
-22.51
-26.13
-30.48
-35.25
-39.92
-43.78
-46.11
-46.25
-43.83
-38.86
-31.77
-23.34
-14.55
-6.22
1.05
7.11
12.09
16.33
20.10
23.51
26.51
28.91
30.55
31.37
31.43
30.95
30.14
29.22
28.30
27.45
26.66
25.94
25.27
24.61
23.88
22.97
21.75
20.17
18.22
16.01
13.69
11.42
9.27
7.23
5.17
3.01
0.69
-1.70
-4.00
-5.98
-7.53
-8.69
-9.67
-10.80
-12.36
-14.48
-17.10
-19.98
-22.87
-25.62
-28.24
-30.91
-33.85
-37.25
-41.16
-45.37
-49.43
-52.64
-54.19
-53.28
-49.46
-42.76
-33.78
-23.54
-13.23
-3.83
4.03
10.18
14.77
18.16
20.71
22.67
24.21
25.38
26.18
26.63
26.75
26.61
26.28
25.85
25.40
25.03
24.84
24.91
25.24
25.71
26.10
26.11
25.54
24.30
22.45
20.18
17.69
15.14
12.63
10.22
7.97
5.94
4.15
2.62
1.27
-0.02
-1.38
-2.94
-4.79
-6.99
-9.50
-12.27
-15.17
-18.08
-20.96
-23.89
-27.04
-30.58
-34.61
-39.02
-43.51
-47.54
-50.47
-51.60
-50.37
-46.48
-40.02
-31.52
-21.81
-11.87
-2.53
5.63
12.47
18.05
22.62
26.45
29.73
32.57
34.98
36.95
38.42
39.36
39.81
39.80
39.41
38.71
37.78
36.73
35.76
35.04
34.68
34.58
34.49
34.05
32.96
31.13
28.66
25.81
22.82
19.87
16.99
14.14
11.25
8.27
5.18
2.03
-1.15
-4.32
-7.45
-10.57
-13.77
-17.15
-20.77
-24.62
-28.55
-32.37
-35.94
-39.23
-42.32
-45.41
-48.69
-52.34
-56.55
-61.40
-66.94
-73.03
-79.25
-84.86
-88.90
-90.46
-89.01
-84.50
-77.20
-67.56
-55.97
-42.76
-28.26
-13.05
1.93
15.54
26.78
35.22
41.05
44.95
47.58
49.60
51.31
52.58
53.08
52.60
51.25
49.28
46.80
43.56
39.39
34.27
28.09
20.83
12.67
4.15
-4.16
-11.90
-19.12
-25.40
-30.09
-32.86
-33.92
-33.74
-32.58
-30.36
-26.74
-21.18
-12.15
2.19
22.54
47.71
75.21
102.39
127.41
149.79
163.38
163.64
151.00
130.60
108.23
86.53
65.04
42.26
17.32
-7.52
-31.01
-50.48
-63.32
-68.33
-65.97
-58.02
-47.05
-35.77
-26.07
-18.88
-13.36
-8.12
-2.21
4.42
11.14
16.99
21.03
22.69
22.12
20.36
18.34
16.53
15.24
14.77
15.55
17.81
21.35
25.54
29.80
33.39
35.55
35.72
33.82
30.13
25.12
19.28
12.96
6.48
-0.09
-6.88
-13.96
-21.20
-28.11
-34.13
-38.80
-42.09
-44.39
-46.44
-49.09
-53.02
-58.58
-65.67
-73.79
-82.05
-89.36
-94.66
-97.18
-96.73
-93.79
-89.33
-84.36
-79.34
-73.89
-66.82
-56.68
-42.51
-24.50
-4.19
15.95
33.34
46.09
53.55
56.26
55.48
52.68
49.04
45.35
42.14
39.73
38.24
37.58
37.38
37.10
36.23
34.48
31.94
29.05
26.41
24.60
23.96
24.46
25.71
27.03
27.65
26.98
24.86
21.60
17.84
14.34
11.61
9.80
8.66
7.75
6.63
5.07
3.07
0.84
-1.41
-3.49
-5.29
-6.87
-8.27
-9.68
-11.25
-13.18
-15.60
-18.58
-22.10
-26.07
-30.37
-34.82
-39.19
-43.14
-46.23
-47.93
-47.81
-45.68
-41.73
-36.48
-30.66
-25.02
-20.06
-16.01
-12.82
-10.24
-7.96
-5.76
-3.50
-1.18
1.12
3.29
5.13
6.50
7.31
7.53
7.25
6.61
5.76
4.89
4.14
3.62
3.46
3.67
4.24
5.02
5.74
6.11
5.88
5.01
3.62
1.97
0.32
-1.16
-2.43
-3.52
-4.41
-5.03
-5.22
-4.86
-3.93
-2.63
-1.30
-0.35
-0.15
-0.90
-2.62
-5.10
-8.00
-10.97
-13.74
-16.20
-18.44
-20.70
-23.22
-26.15
-29.49
-33.06
-36.53
-39.48
-41.49
-42.22
-41.50
-39.32
-35.86
-31.46
-26.52
-21.45
-16.60
-12.18
-8.29
-4.93
-2.05
0.38
2.34
3.79
4.73
5.27
5.62
6.08
6.95
8.40
10.48
13.09
16.04
19.11
22.04
24.66
26.84
28.54
29.73
30.45
30.72
30.59
30.17
29.58
28.95
28.39
27.82
27.07
25.89
24.05
21.56
18.60
15.48
12.46
9.64
6.87
3.89
0.46
-3.47
-7.71
-11.96
-15.98
-19.70
-23.22
-26.76
-30.50
-34.53
-38.84
-43.37
-47.90
-52.00
-55.07
-56.34
-55.11
-51.05
-44.42
-36.02
-26.96
-18.30
-10.73
-4.45
0.78
5.32
9.52
13.48
17.16
20.39
22.97
24.76
25.80
26.26
26.38
26.45
26.71
27.23
27.95
28.70
29.30
29.60
29.50
28.93
27.76
25.95
23.51
20.61
17.54
14.65
12.17
10.14
8.43
6.90
5.43
4.09
3.08
2.58
2.66
3.21
4.02
4.84
5.51
6.01
6.36
6.61
6.73
6.73
6.54
6.12
5.39
4.27
2.69
0.71
-1.40
-3.13
-3.84
-2.95
-0.15
4.49
10.55
17.43
24.49
31.18
37.05
41.69
44.69
45.80
44.93
42.40
38.78
34.76
30.91
27.54
24.60
21.90
19.22
16.47
13.75
11.20
8.99
7.18
5.75
4.63
3.78
3.18
2.79
2.54
2.27
1.82
1.02
-0.21
-1.88
-3.91
-6.11
-8.28
-10.23
-11.86
-13.22
-14.46
-15.77
-17.28
-18.99
-20.83
-22.67
-24.45
-26.21
-28.08
-30.05
-32.06
-33.81
-34.99
-35.48
-35.41
-35.20
-35.37
-36.25
-37.78
-39.49
-40.58
-40.25
-37.96
-33.55
-27.36
-20.01
-12.27
-4.83
1.85
7.51
12.14
15.84
18.72
20.84
22.21
22.88
22.99
22.73
22.26
21.68
20.90
19.77
18.20
16.28
14.22
12.29
10.73
9.65
9.11
9.19
10.00
11.64
14.07
17.01
19.98
22.40
23.80
23.94
22.87
20.87
18.32
15.57
12.85
10.24
7.70
5.13
2.49
-0.24
-2.98
-5.60
-8.02
-10.18
-12.06
-13.70
-15.20
-16.72
-18.51
-20.77
-23.55
-26.62
-29.39
-31.08
-30.91
-28.33
-23.26
-16.19
-8.02
0.09
7.08
12.18
15.19
16.38
16.38
15.91
15.52
15.50
15.86
16.44
17.04
17.42
17.43
16.98
16.10
14.93
13.66
12.53
11.69
11.13
10.70
10.17
9.31
8.02
6.33
4.35
2.23
0.11
-1.96
-3.93
-5.76
-7.41
-8.80
-9.96
-10.94
-11.90
-13.01
-14.35
-15.93
-17.63
-19.34
-20.93
-22.36
-23.69
-25.03
-26.64
-28.74
-31.48
-34.83
-38.47
-41.83
-44.17
-44.76
-43.13
-39.20
-33.25
-25.89
-17.89
-9.99
-2.78
3.37
8.28
11.98
14.55
16.19
17.11
17.59
17.94
18.41
19.15
20.06
20.85
21.16
20.72
19.55
17.90
16.16
14.70
13.67
12.98
12.43
11.85
11.21
10.55
9.93
9.25
8.28
6.73
4.50
1.76
-1.06
-3.46
-5.07
-5.91
-6.27
-6.60
-7.29
-8.49
-10.10
-11.94
-13.88
-15.92
-18.18
-20.76
-23.78
-27.23
-31.00
-34.81
-38.20
-40.54
-41.14
-39.51
-35.53
-29.52
-22.20
-14.43
-6.98
-0.35
5.25
9.89
13.64
16.65
19.09
21.12
22.96
24.73
26.47
28.05
29.27
29.92
29.91
29.30
28.30
27.19
26.24
25.65
25.48
25.70
26.18
26.71
27.07
26.98
26.23
24.71
22.47
19.71
16.74
13.83
11.11
8.49
5.71
2.52
-1.27
-5.59
-10.20
-14.74
-18.91
-22.56
-25.74
-28.71
-31.74
-35.11
-38.89
-43.05
-47.41
-51.82
-56.22
-60.70
-65.35
-70.22
-75.21
-80.11
-84.56
-88.05
-89.75
-88.51
-82.93
-71.82
-54.86
-33.05
-8.82
14.53
33.81
46.87
53.21
53.84
50.68
45.66
40.16
34.78
29.56
24.45
19.55
15.23
11.87
9.60
8.10
6.75
4.88
2.16
-1.18
-4.54
-7.20
-8.66
-8.91
-8.26
-7.23
-6.29
-5.68
-5.46
-5.64
-6.17
-7.11
-8.48
-10.23
-12.17
-14.04
-15.58
-16.77
-17.88
-19.48
-22.25
-26.77
-33.24
-41.44
-50.75
-60.20
-68.71
-75.15
-78.58
-78.48
-74.87
-68.42
-60.11
-50.88
-41.10
-30.49
-18.42
-4.55
10.49
25.09
37.20
45.37
49.48
50.87
51.49
52.79
54.83
56.44
56.10
53.10
48.24
43.41
40.56
40.58
42.81
45.53
46.96
46.16
43.32
39.41
35.44
31.96
28.97
26.21
23.42
20.43
17.11
13.22
8.50
2.95
-2.97
-8.40
-12.44
-14.62
-15.32
-15.51
-16.30
-18.25
-21.17
-24.22
-26.32
-26.61
-24.64
-20.37
-14.09
-6.43
1.63
8.82
13.90
16.12
15.72
13.91
12.49
13.14
16.70
22.99
31.04
39.56
47.45
54.02
58.93
62.21
64.14
65.32
66.62
69.01
73.20
79.29
86.67
94.16
100.46
104.70
106.67
106.86
106.09
105.12
104.36
103.74
102.85
101.14
98.25
94.03
88.56
82.08
74.84
66.99
58.63
49.76
40.40
30.50
20.02
8.87
-3.02
-15.57
-28.56
-41.55
-53.96
-65.27
-75.13
-83.50
-90.59
-96.79
-102.47
-107.83
-112.88
-117.50
-121.59
-125.31
-128.98
-132.95
-137.34
-141.82
-145.58
-147.56
-146.83
-142.84
-135.62
-125.66
-113.79
-100.90
-87.82
-75.22
-63.61
-53.27
-44.27
-36.48
-29.64
-23.53
-18.09
-13.39
-9.61
-6.87
-5.13
-4.19
-3.72
-3.43
-3.11
-2.71
-2.26
-1.78
-1.27
-0.69
-0.04
0.57
0.90
0.68
-0.33
-2.19
-4.79
-7.85
-11.07
-14.13
-16.79
-18.85
-20.23
-21.00
-21.41
-21.95
-23.17
-25.47
-28.85
-32.71
-36.02
-37.62
-36.70
-33.13
-27.55
-21.15
-15.23
-10.72
-7.90
-6.30
-4.89
-2.30
2.84
11.57
24.36
41.02
60.60
81.67
102.62
121.89
138.24
150.76
158.87
162.29
161.05
155.53
146.46
134.74
121.31
106.90
91.87
76.36
60.38
44.17
28.32
13.83
1.88
-6.44
-10.57
-10.67
-7.63
-2.80
2.53
7.47
11.81
15.86
20.08
24.70
29.40
33.36
35.44
34.48
29.62
20.30
6.52
-11.02
-30.58
-49.51
-64.67
-73.54
-75.16
-70.70
-63.05
-55.68
-51.27
-50.85
-53.75
-58.34
-62.94
-66.46
-68.43
-68.70
-67.03
-63.08
-56.51
-47.31
-35.91
-23.10
-9.82
3.23
15.75
27.91
40.03
52.25
64.04
74.09
80.52
81.55
76.22
64.89
49.20
31.48
13.95
-1.98
-15.88
-28.05
-39.03
-49.05
-57.88
-64.96
-69.66
-71.59
-70.66
-67.06
-61.15
-53.29
-43.73
-32.63
-20.19
-6.76
7.10
20.65
33.21
44.28
53.62
61.21
67.04
71.01
72.99
72.95
71.07
67.78
63.63
59.03
54.09
48.58
42.21
34.83
26.62
18.16
10.16
3.18
-2.62
-7.57
-12.28
-17.36
-23.05
-29.14
-34.95
-39.61
-42.29
-42.40
-39.66
-34.07
-25.89
-15.59
-3.87
8.41
20.29
30.98
39.91
46.94
52.33
56.63
60.47
64.36
68.40
72.33
75.58
77.60
78.12
77.32
75.81
74.38
73.73
74.22
75.78
78.02
80.33
82.20
83.24
83.30
82.43
80.74
78.28
74.87
70.10
63.30
53.83
41.34
25.98
8.50
-9.86
-27.70
-43.81
-57.45
-68.45
-77.21
-84.45
-91.08
-97.92
-105.48
-113.74
-122.08
-129.42
-134.55
-136.63
-135.47
-131.55
-125.73
-118.73
-110.78
-101.53
-90.29
-76.53
-60.22
-41.94
-22.70
-3.58
14.53
30.92
45.07
56.53
65.02
70.54
73.60
75.01
75.68
76.18
76.47
76.00
73.95
69.74
63.31
55.16
46.17
37.29
29.30
22.63
17.43
13.54
10.59
8.11
5.61
2.68
-0.90
-5.15
-9.96
-15.15
-20.48
-25.74
-30.77
-35.45
-39.68
-43.44
-46.66
-49.30
-51.24
-52.40
-52.77
-52.42
-51.54
-50.36
-49.07
-47.69
-46.09
-44.09
-41.50
-38.29
-34.57
-30.57
-26.56
-22.74
-19.13
-15.47
-11.30
-6.04
0.78
9.36
19.42
30.30
41.07
50.79
58.74
64.54
68.11
69.74
69.86
69.00
67.62
66.07
64.43
62.64
60.59
58.18
55.34
52.14
48.58
44.71
40.60
36.46
32.58
29.34
27.00
25.59
24.86
24.39
23.76
22.68
21.09
19.08
16.82
14.44
12.04
9.65
7.25
4.84
2.40
-0.07
-2.56
-5.05
-7.44
-9.62
-11.49
-13.00
-14.14
-15.03
-15.88
-16.86
-18.15
-19.75
-21.67
-23.82
-26.20
-28.89
-32.03
-35.72
-39.93
-44.46
-49.01
-53.21
-56.69
-59.03
-59.82
-58.70
-55.51
-50.42
-43.98
-36.97
-30.20
-24.28
-19.47
-15.79
-13.09
-11.20
-9.98
-9.26
-8.81
-8.37
-7.71
-6.74
-5.52
-4.25
-3.09
-2.11
-1.29
-0.50
0.35
1.27
2.14
2.78
3.05
2.90
2.38
1.63
0.81
0.02
-0.64
-1.11
-1.34
-1.31
-1.11
-0.90
-0.84
-1.05
-1.48
-2.01
-2.48
-2.81
-3.05
-3.35
-3.81
-4.48
-5.36
-6.47
-7.86
-9.65
-11.93
-14.63
-17.47
-20.04
-21.90
-22.75
-22.42
-20.91
-18.27
-14.54
-9.74
-3.94
2.63
9.52
16.19
22.03
26.68
30.05
32.38
34.02
35.33
36.48
37.46
38.10
38.25
37.70
36.29
33.87
30.29
25.53
19.80
13.60
7.73
3.13
0.62
0.68
3.20
7.47
12.33
16.52
19.12
19.78
18.76
16.77
14.54
12.60
11.16
10.19
9.61
9.35
9.35
9.47
9.38
8.71
7.15
4.66
1.43
-2.21
-5.97
-9.74
-13.58
-17.59
-21.89
-26.49
-31.35
-36.44
-41.72
-47.03
-52.02
-56.02
-58.15
-57.57
-53.76
-46.72
-37.01
-25.58
-13.46
-1.52
9.74
20.11
29.64
38.44
46.57
54.02
60.61
66.12
70.27
72.81
73.61
72.64
70.07
66.19
61.45
56.33
51.32
46.78
42.77
39.21
35.88
32.62
29.47
26.65
24.39
22.79
21.68
20.67
19.29
17.19
14.20
10.41
6.02
1.32
-3.37
-7.78
-11.70
-15.07
-18.03
-20.93
-24.19
-28.16
-33.01
-38.57
-44.42
-49.95
-54.56
-57.88
-59.88
-60.87
-61.47
-62.35
-64.04
-66.64
-69.78
-72.67
-74.29
-73.69
-70.31
-64.17
-55.78
-46.02
-35.85
-26.01
-16.92
-8.60
-0.85
6.61
13.88
20.89
27.29
32.60
36.31
38.08
37.82
35.80
32.66
29.19
26.18
24.14
23.25
23.33
24.00
24.86
25.55
25.82
25.54
24.69
23.35
21.72
20.06
18.58
17.32
16.11
14.68
12.75
10.20
7.14
3.82
0.54
-2.42
-4.86
-6.72
-8.02
-8.93
-9.73
-10.77
-12.32
-14.48
-17.14
-20.03
-22.85
-25.43
-27.83
-30.39
-33.51
-37.53
-42.52
-48.13
-53.56
-57.74
-59.55
-58.12
-53.09
-44.78
-34.08
-22.27
-10.68
-0.35
8.15
14.72
19.67
23.45
26.48
28.97
30.95
32.25
32.67
32.08
30.53
28.27
25.71
23.26
21.26
19.93
19.31
19.40
20.02
20.91
21.65
21.82
21.11
19.50
17.33
15.10
13.32
12.20
11.64
11.34
10.95
10.26
9.20
7.79
6.00
3.82
1.20
-1.79
-5.00
-8.33
-11.73
-15.30
-19.16
-23.37
-27.80
-32.17
-36.25
-40.02
-43.79
-48.11
-53.49
-60.01
-67.17
-73.87
-78.71
-80.52
-78.66
-73.32
-65.31
-55.81
-45.98
-36.64
-28.24
-20.88
-14.37
-8.33
-2.33
4.01
10.80
17.80
24.42
29.93
33.77
35.75
36.09
35.30
33.96
32.55
31.40
30.79
30.89
31.81
33.44
35.50
37.59
39.32
40.44
40.92
40.82
40.19
38.99
37.09
34.36
30.73
26.32
21.44
16.53
12.07
8.41
5.71
3.81
2.30
0.61
-1.80
-5.28
-9.91
-15.42
-21.35
-27.19
-32.49
-37.07
-40.97
-44.49
-48.00
-51.79
-55.98
-60.37
-64.46
-67.50
-68.58
-66.84
-61.76
-53.43
-42.65
-30.75
-19.21
-9.20
-1.27
4.76
9.51
13.66
17.69
21.78
25.93
30.10
34.32
38.56
42.64
46.18
48.72
49.96
49.94
49.04
47.95
47.33
47.68
49.08
51.25
53.67
55.71
56.87
56.86
55.63
53.25
49.87
45.64
40.70
35.30
29.82
24.72
20.44
17.29
15.36
14.54
14.60
15.36
16.63
18.31
20.29
22.44
24.55
26.42
27.89
28.78
28.99
28.50
27.38
25.79
23.97
22.17
20.68
19.77
19.77
20.97
23.59
27.63
32.83
38.63
44.31
49.17
52.76
54.91
55.70
55.25
53.65
50.87
46.83
41.56
35.27
28.36
21.35
14.78
9.03
4.28
0.56
-2.29
-4.52
-6.40
-8.23
-10.20
-12.39
-14.81
-17.35
-19.94
-22.54
-25.16
-27.82
-30.49
-33.13
-35.68
-38.09
-40.33
-42.41
-44.28
-45.92
-47.23
-48.21
-48.90
-49.47
-50.16
-51.16
-52.58
-54.33
-56.18
-57.85
-59.17
-60.13
-60.94
-61.97
-63.55
-65.83
-68.66
-71.57
-73.87
-74.82
-73.77
-70.39
-64.68
-57.00
-48.09
-38.91
-30.40
-23.35
-18.14
-14.71
-12.63
-11.35
-10.34
-9.26
-7.99
-6.59
-5.16
-3.84
-2.74
-1.92
-1.36
-0.93
-0.43
0.32
1.40
2.69
3.96
4.94
5.47
5.60
5.49
5.31
5.11
4.88
4.52
4.07
3.62
3.33
3.33
3.60
4.08
4.67
5.31
6.05
6.92
7.88
8.70
8.99
8.33
6.34
2.90
-1.80
-7.29
-12.98
-18.39
-23.26
-27.62
-31.68
-35.71
-39.84
-44.02
-47.99
-51.32
-53.52
-54.13
-52.84
-49.56
-44.48
-38.00
-30.62
-22.83
-15.02
-7.47
-0.33
6.32
12.47
18.10
23.08
27.16
30.03
31.41
31.24
29.73
27.38
24.81
22.59
21.06
20.33
20.24
20.49
20.65
20.38
19.48
17.93
15.92
13.66
11.37
9.13
6.96
4.88
2.89
1.08
-0.47
-1.69
-2.54
-3.07
-3.38
-3.68
-4.20
-5.13
-6.49
-8.12
-9.75
-11.09
-11.93
-12.25
-12.05
-11.38
-10.21
-8.66
-6.89
-5.30
-4.27
-3.96
-4.21
-4.51
-4.24
-2.90
-0.46
2.76
6.08
8.81
10.41
10.67
9.70
7.81
5.38
2.68
-0.06
-2.76
-5.36
-7.82
-10.14
-12.31
-14.38
-16.38
-18.26
-19.84
-20.85
-20.99
-20.06
-18.09
-15.31
-12.08
-8.79
-5.84
-3.47
-1.87
-1.08
-1.00
-1.41
-2.09
-2.81
-3.48
-4.15
-4.85
-5.65
-6.48
-7.24
-7.89
-8.51
-9.25
-10.20
-11.33
-12.46
-13.44
-14.20
-14.89
-15.68
-16.67
-17.79
-18.87
-19.81
-20.72
-21.84
-23.41
-25.37
-27.36
-28.71
-28.66
-26.66
-22.49
-16.34
-8.76
-0.51
7.64
14.96
21.02
25.59
28.69
30.45
31.05
30.66
29.44
27.66
25.66
23.77
22.23
21.12
20.34
19.72
19.11
18.41
17.60
16.65
15.60
14.46
13.37
12.49
11.98
11.86
12.01
12.19
12.13
11.64
10.72
9.48
8.04
6.53
4.97
3.35
1.65
-0.17
-2.19
-4.48
-7.14
-10.15
-13.36
-16.55
-19.49
-22.00
-24.11
-25.89
-27.43
-28.80
-30.08
-31.37
-32.86
-34.82
-37.33
-40.19
-42.88
-44.63
-44.72
-42.73
-38.62
-32.78
-25.81
-18.44
-11.34
-4.95
0.46
4.86
8.38
11.26
13.67
15.71
17.32
18.37
18.76
18.54
17.81
16.79
15.72
14.76
14.07
13.75
13.84
14.35
15.21
16.26
17.34
18.28
18.93
19.22
19.08
18.48
17.43
15.95
14.06
11.80
9.24
6.52
3.83
1.43
-0.44
-1.69
-2.41
-2.81
-3.19
-3.73
-4.55
-5.63
-6.89
-8.19
-9.44
-10.49
-11.22
-11.58
-11.66
-11.68
-11.92
-12.67
-14.02
-15.86
-17.83
-19.41
-20.04
-19.21
-16.63
-12.33
-6.66
-0.30
5.93
11.27
15.30
17.94
19.46
20.30
20.86
21.37
21.90
22.35
22.60
22.57
22.22
21.54
20.53
19.26
17.88
16.66
15.89
15.75
16.21
16.93
17.43
17.29
16.29
14.52
12.30
9.95
7.72
5.68
3.76
1.89
0.03
-1.81
-3.59
-5.23
-6.70
-7.93
-8.81
-9.38
-9.78
-10.23
-11.06
-12.44
-14.32
-16.43
-18.39
-19.94
-21.09
-22.08
-23.34
-25.23
-27.88
-31.12
-34.48
-37.33
-38.95
-38.69
-36.10
-31.06
-23.87
-15.17
-5.92
2.85
10.24
15.75
19.29
21.17
21.94
22.11
22.04
21.86
21.55
21.01
20.16
18.97
17.41
15.55
13.46
11.34
9.47
8.14
7.57
7.74
8.39
9.06
9.20
8.44
6.64
4.00
0.97
-1.92
-4.34
-6.27
-8.00
-10.01
-12.70
-16.21
-20.35
-24.73
-28.89
-32.60
-35.88
-39.04
-42.51
-46.63
-51.51
-56.94
-62.52
-67.91
-73.01
-78.14
-84.01
-91.40
-100.93
-112.81
-126.64
-141.49
-155.85
-167.83
-175.45
-177.01
-171.57
-159.33
-141.50
-119.92
-96.33
-71.80
-46.53
-20.17
7.53
36.16
64.47
90.60
112.75
129.63
140.90
146.99
148.80
147.30
143.37
137.69
130.97
124.00
117.71
112.93
110.09
109.09
109.20
109.40
108.69
106.48
102.72
97.85
92.46
87.08
81.98
77.12
72.28
67.26
61.95
56.44
50.89
45.42
40.03
34.54
28.72
22.43
15.72
8.87
2.24
-3.86
-9.31
-14.20
-18.68
-23.02
-27.40
-32.03
-37.05
-42.57
-48.46
-54.32
-59.40
-62.78
-63.56
-61.17
-55.57
-47.31
-37.36
-26.94
-17.16
-8.69
-1.76
3.84
8.57
12.82
16.79
20.40
23.45
25.78
27.37
28.38
29.03
29.51
29.89
30.10
30.11
29.92
29.67
29.58
29.80
30.32
30.90
31.18
30.79
29.56
27.49
24.87
22.03
19.23
16.62
14.14
11.63
8.96
6.10
3.14
0.23
-2.51
-5.15
-7.87
-10.92
-14.50
-18.65
-23.19
-27.92
-32.57
-37.04
-41.39
-45.89
-50.89
-56.77
-63.75
-71.63
-79.83
-87.25
-92.62
-94.79
-93.07
-87.48
-78.65
-67.70
-55.90
-44.38
-33.94
-24.98
-17.50
-11.17
-5.42
0.21
6.00
11.85
17.50
22.61
26.93
30.34
32.83
34.56
35.68
36.16
35.88
34.61
32.27
29.04
25.43
22.18
20.26
20.28
22.19
25.31
28.63
31.29
32.75
32.81
31.48
29.50
27.46
25.50
23.27
20.28
16.07
10.37
3.08
-5.42
-12.78
-16.39
-14.27
-5.74
8.80
28.02
49.66
70.71
88.02
101.23
110.76
116.92
119.39
117.91
112.90
105.56
97.60
91.12
90.97
100.68
120.57
147.26
175.80
201.94
222.98
237.79
229.37
189.21
121.78
42.91
-31.43
-92.50
-138.25
-169.81
-189.05
-197.77
-195.21
-182.01
-161.20
-138.52
-119.90
-108.96
-106.21
-109.62
-115.84
-119.51
-117.81
-110.11
-98.53
-86.04
-74.71
-65.36
-58.04
-52.61
-47.91
-43.30
-39.05
-36.34
-36.24
-38.99
-44.05
-50.50
-57.42
-63.49
-67.91
-70.61
-72.49
-74.73
-78.15
-82.91
-88.61
-94.38
-99.11
-102.02
-102.91
-102.32
-101.02
-99.52
-97.87
-95.60
-91.97
-86.30
-78.10
-67.23
-53.81
-38.16
-20.63
-1.65
18.39
39.06
60.02
81.02
101.91
122.41
142.00
159.83
174.87
186.21
193.35
196.41
196.00
192.95
188.08
181.98
175.09
167.76
160.43
153.51
147.34
142.00
137.16
132.15
126.15
118.41
108.56
96.75
83.65
70.19
57.18
45.12
34.04
23.74
14.05
4.98
-3.21
-10.31
-16.37
-21.81
-27.26
-33.31
-40.26
-48.01
-56.14
-64.18
-71.74
-78.64
-84.99
-91.04
-97.11
-103.35
-109.59
-115.21
-119.32
-120.91
-119.18
-113.85
-105.18
-93.93
-81.08
-67.63
-54.41
-41.98
-30.67
-20.69
-12.08
-4.77
1.41
6.72
11.45
15.82
19.89
23.61
26.80
29.31
31.08
32.25
33.06
33.80
34.71
35.93
37.41
38.99
40.37
41.25
41.32
40.46
38.68
36.19
33.28
30.22
27.21
24.32
21.54
18.87
16.33
14.00
11.93
10.08
8.28
6.22
3.57
0.10
-4.22
-9.16
-14.31
-19.23
-23.59
-27.32
-30.60
-33.79
-37.32
-41.57
-46.68
-52.48
-58.38
-63.44
-66.53
-66.60
-63.02
-55.80
-45.62
-33.64
-21.24
-9.68
0.12
7.64
12.81
15.89
17.38
17.82
17.76
17.69
18.04
19.24
21.69
25.70
31.32
38.42
46.65
55.58
64.74
73.80
82.56
91.06
99.61
108.64
118.52
129.23
140.20
150.44
158.83
164.46
166.79
165.63
160.93
152.77
141.27
126.81
110.05
91.75
72.61
53.10
33.48
14.06
-4.68
-22.09
-37.54
-50.66
-61.46
-70.20
-77.25
-82.88
-87.36
-91.02
-94.37
-98.07
-102.70
-108.56
-115.43
-122.56
-128.86
-133.27
-135.07
-134.07
-130.68
-125.63
-119.67
-113.28
-106.59
-99.41
-91.45
-82.49
-72.52
-61.72
-50.44
-39.07
-27.94
-17.30
-7.29
1.95
10.28
17.48
23.28
27.49
30.12
31.38
31.78
31.88
32.20
33.01
34.32
35.91
37.44
38.52
38.81
38.07
36.17
33.19
29.35
24.97
20.38
15.92
11.89
8.53
6.02
4.40
3.54
2.99
2.18
0.63
-1.90
-5.21
-8.84
-12.24
-15.08
-17.33
-19.19
-20.99
-23.02
-25.47
-28.43
-31.98
-36.12
-40.69
-45.37
-49.52
-52.44
-53.45
-52.17
-48.55
-42.92
-35.85
-27.99
-19.95
-12.17
-4.90
1.79
7.90
13.45
18.42
22.73
26.30
29.13
31.29
32.93
34.13
34.91
35.15
34.73
33.61
31.95
30.02
28.17
26.61
25.40
24.41
23.48
22.45
21.24
19.85
18.32
16.63
14.79
12.80
10.73
8.69
6.80
5.10
3.55
2.03
0.43
-1.33
-3.30
-5.50
-7.97
-10.71
-13.65
-16.63
-19.51
-22.20
-24.73
-27.31
-30.18
-33.52
-37.42
-41.82
-46.50
-51.13
-55.16
-57.94
-58.78
-57.16
-52.94
-46.43
-38.33
-29.50
-20.75
-12.67
-5.55
0.53
5.68
10.10
13.96
17.40
20.44
23.00
25.00
26.40
27.24
27.63
27.64
27.33
26.75
25.98
25.19
24.52
24.05
23.74
23.42
22.90
22.05
20.88
19.46
17.88
16.17
14.28
12.20
9.92
7.54
5.18
2.99
0.99
-0.80
-2.45
-4.03
-5.67
-7.52
-9.81
-12.70
-16.31
-20.53
-25.06
-29.51
-33.54
-37.00
-40.06
-43.15
-46.75
-51.19
-56.55
-62.55
-68.64
-74.06
-78.01
-79.71
-78.62
-74.62
-68.00
-59.46
-49.88
-40.11
-30.78
-22.19
-14.41
-7.48
-1.47
3.54
7.53
10.62
13.12
15.33
17.49
19.63
21.70
23.65
25.57
27.63
30.02
32.78
35.68
38.28
40.08
40.77
40.37
39.25
38.08
37.55
38.20
40.27
43.72
48.12
52.85
57.19
60.43
62.18
62.42
61.61
60.52
59.99
60.62
62.53
65.37
68.47
71.21
73.37
75.27
77.79
81.86
87.93
95.51
103.12
108.70
110.37
107.01
98.60
85.95
70.20
52.48
33.72
14.91
-2.76
-17.91
-29.37
-36.74
-40.63
-42.51
-44.00
-46.25
-49.52
-53.33
-56.92
-59.84
-62.23
-64.67
-67.85
-72.11
-77.16
-82.14
-85.93
-87.51
-86.30
-82.30
-76.04
-68.37
-60.20
-52.28
-45.05
-38.68
-33.13
-28.28
-24.07
-20.45
-17.38
-14.84
-12.74
-11.03
-9.61
-8.45
-7.48
-6.74
-6.31
-6.32
-6.93
-8.20
-10.09
-12.47
-15.19
-18.09
-21.09
-24.16
-27.20
-30.15
-32.90
-35.44
-37.86
-40.42
-43.44
-47.16
-51.56
-56.21
-60.32
-62.86
-62.95
-60.04
-54.17
-45.97
-36.42
-26.61
-17.43
-9.44
-2.80
2.60
7.05
10.82
14.12
17.09
19.68
21.83
23.42
24.44
24.89
24.86
24.51
24.01
23.58
23.43
23.74
24.53
25.73
27.09
28.29
29.07
29.28
28.95
28.19
27.18
25.97
24.51
22.67
20.26
17.20
13.47
9.28
4.94
0.91
-2.47
-5.06
-6.97
-8.56
-10.20
-12.19
-14.58
-17.25
-19.94
-22.46
-24.73
-26.79
-28.78
-30.87
-33.30
-36.26
-39.91
-44.21
-48.82
-53.06
-55.99
-56.67
-54.43
-49.16
-41.30
-31.72
-21.42
-11.30
-1.97
6.30
13.39
19.35
24.27
28.24
31.40
33.87
35.77
37.17
38.13
38.67
38.85
38.73
38.41
37.97
37.52
37.10
36.76
36.47
36.14
35.70
35.04
34.17
33.14
31.99
30.78
29.48
28.05
26.42
24.57
22.51
20.28
17.92
15.46
12.91
10.29
7.67
5.11
2.62
0.15
-2.41
-5.14
-8.10
-11.21
-14.38
-17.49
-20.50
-23.43
-26.36
-29.39
-32.68
-36.40
-40.70
-45.58
-50.75
-55.51
-58.85
-59.74
-57.44
-51.77
-43.25
-32.93
-22.04
-11.69
-2.62
4.91
10.99
15.93
20.03
23.53
26.52
29.02
31.04
32.65
33.93
34.89
35.51
35.67
35.31
34.47
33.29
32.03
30.90
30.00
29.33
28.83
28.41
28.07
27.78
27.47
27.03
26.34
25.27
23.83
22.10
20.19
18.21
16.23
14.26
12.27
10.16
7.82
5.16
2.13
-1.24
-4.76
-8.20
-11.30
-13.94
-16.12
-18.03
-19.99
-22.38
-25.48
-29.44
-34.19
-39.36
-44.28
-48.09
-49.89
-48.96
-44.94
-37.97
-28.58
-17.61
-5.96
5.53
16.19
25.60
33.57
40.07
45.27
49.39
52.68
55.29
57.36
58.90
59.92
60.27
59.69
57.71
53.91
48.12
40.83
33.19
26.82
23.24
23.22
26.44
31.51
36.61
40.08
41.01
39.36
35.66
30.62
24.81
18.74
12.98
8.35
5.80
6.02
8.91
13.34
17.28
18.47
15.29
7.32
-4.51
-18.41
-32.35
-44.77
-54.80
-62.22
-67.25
-70.30
-71.82
-72.28
-72.04
-71.29
-70.01
-67.94
-64.80
-60.42
-54.94
-48.81
-42.71
-37.40
-33.55
-31.45
-30.90
-31.09
-30.74
-28.54
-23.61
-16.03
-6.95
1.70
7.83
9.97
7.85
2.55
-3.80
-8.70
-10.06
-6.77
1.05
12.31
25.48
39.13
52.31
64.57
75.68
85.35
92.98
97.76
98.95
96.27
90.10
81.48
71.80
62.45
54.56
48.76
45.25
43.76
43.78
44.56
45.23
45.01
43.24
39.61
34.11
27.04
18.90
10.30
1.86
-5.94
-12.81
-18.76
-24.06
-29.11
-34.27
-39.74
-45.50
-51.43
-57.43
-63.37
-69.06
-74.07
-77.79
-79.55
-78.93
-75.85
-70.63
-63.71
-55.36
-45.64
-34.41
-21.70
-8.04
5.54
17.67
27.12
33.18
35.86
35.79
33.82
30.69
26.78
22.09
16.40
9.42
1.00
-8.88
-20.13
-32.52
-45.68
-59.10
-72.16
-84.30
-95.25
-105.12
-114.46
-123.96
-134.04
-144.31
-153.24
-158.11
-155.78
-143.68
-120.95
-89.17
-52.11
-14.83
17.81
42.30
57.10
62.44
59.85
51.39
39.36
25.95
12.94
1.42
-8.61
-18.08
-28.35
-40.30
-53.47
-65.81
-74.30
-76.28
-70.81
-59.58
-46.51
-36.48
-33.33
-38.33
-49.77
-63.61
-75.23
-81.06
-79.58
-71.13
-57.23
-39.49
-19.29
2.15
23.71
44.75
65.78
88.57
115.22
146.30
179.09
207.50
224.05
223.30
204.88
174.03
139.55
109.92
90.06
80.13
77.02
76.87
77.32
77.93
79.37
82.00
85.17
87.41
87.25
83.96
77.81
69.80
61.02
52.22
43.58
34.89
25.81
16.26
6.63
-2.33
-9.75
-15.12
-18.63
-21.29
-24.54
-29.58
-36.78
-45.30
-53.35
-58.92
-60.50
-57.61
-50.82
-41.37
-30.64
-19.81
-9.59
-0.33
7.88
15.11
21.48
27.12
32.06
36.27
39.50
41.49
42.02
41.04
38.71
35.38
31.55
27.64
24.03
20.87
18.17
15.80
13.58
11.32
8.87
6.14
3.12
-0.05
-3.15
-5.85
-7.88
-9.18
-9.88
-10.34
-10.92
-11.92
-13.35
-15.05
-16.74
-18.19
-19.38
-20.45
-21.69
-23.27
-25.25
-27.44
-29.59
-31.46
-32.91
-33.99
-34.87
-35.79
-36.95
-38.68
-41.15
-44.47
-48.40
-52.29
-55.12
-55.81
-53.50
-47.94
-39.61
-29.52
-18.92
-9.01
-0.64
5.67
9.83
12.07
12.93
13.09
13.20
13.65
14.45
15.25
15.62
15.25
14.14
12.62
11.12
10.03
9.54
9.67
10.32
11.31
12.45
13.52
14.23
14.41
13.91
12.83
11.35
9.73
8.19
6.83
5.59
4.29
2.67
0.56
-2.08
-5.00
-7.84
-10.21
-11.94
-13.15
-14.24
-15.67
-17.70
-20.28
-23.07
-25.68
-27.85
-29.65
-31.47
-33.79
-37.03
-41.21
-45.99
-50.58
-54.03
-55.40
-54.05
-49.79
-42.83
-33.87
-23.81
-13.67
-4.42
3.22
8.92
12.81
15.37
17.30
19.24
21.54
24.13
26.64
28.55
29.44
29.21
28.05
26.42
24.78
23.54
22.86
22.69
22.83
23.06
23.14
22.91
22.28
21.15
19.54
17.51
15.19
12.76
10.39
8.19
6.19
4.37
2.64
0.89
-1.01
-3.14
-5.50
-8.04
-10.61
-13.04
-15.26
-17.28
-19.22
-21.21
-23.34
-25.71
-28.40
-31.54
-35.32
-39.81
-44.82
-49.88
-54.11
-56.58
-56.43
-53.20
-47.01
-38.48
-28.64
-18.58
-9.24
-1.18
5.42
10.67
14.80
18.09
20.74
22.92
24.81
26.54
28.20
29.72
30.90
31.54
31.49
30.79
29.68
28.49
27.48
26.79
26.40
26.20
26.04
25.78
25.25
24.28
22.74
20.56
17.87
14.96
12.20
9.88
8.15
6.88
5.73
4.35
2.48
0.13
-2.53
-5.16
-7.52
-9.57
-11.51
-13.69
-16.38
-19.60
-23.03
-26.22
-28.80
-30.73
-32.36
-34.33
-37.23
-41.41
-46.73
-52.57
-57.96
-61.79
-62.98
-60.83
-55.07
-46.09
-34.80
-22.48
-10.45
0.22
8.95
15.58
20.34
23.68
26.07
27.91
29.42
30.71
31.73
32.36
32.52
32.22
31.55
30.67
29.72
28.76
27.86
27.02
26.36
25.92
25.75
25.66
25.42
24.76
23.58
21.98
20.26
18.64
17.27
16.05
14.81
13.39
11.75
9.96
8.12
6.24
4.24
2.03
-0.42
-3.07
-5.85
-8.71
-11.69
-14.90
-18.43
-22.21
-26.00
-29.57
-32.65
-35.27
-37.70
-40.38
-43.76
-48.00
-52.90
-57.78
-61.64
-63.45
-62.37
-58.04
-50.63
-40.85
-29.78
-18.60
-8.31
0.42
7.40
12.85
17.19
20.92
24.35
27.59
30.51
32.87
34.48
35.29
35.38
34.88
34.00
33.01
32.16
31.63
31.39
31.37
31.45
31.54
31.46
31.16
30.64
29.99
29.26
28.41
27.37
26.10
24.65
22.92
20.99
19.15
17.79
17.18
17.32
18.01
18.96
19.93
20.13
19.32
18.04
17.31
18.02
20.22
23.18
25.59
26.04
21.61
10.60
-6.78
-28.62
-52.13
-74.81
-94.60
-110.11
-120.79
-129.77
-139.98
-153.05
-169.02
-187.10
-206.94
-228.14
-249.51
-268.82
-286.25
-300.45
-308.56
-307.74
-297.02
-279.51
-260.68
-245.86
-217.27
-167.52
-101.57
-33.47
24.39
67.79
97.09
114.45
122.81
125.14
121.52
113.50
104.89
99.76
104.31
120.77
147.17
178.79
208.65
227.33
228.44
211.29
176.25
133.53
95.57
71.71
66.79
76.99
94.30
111.24
123.30
129.35
131.56
131.86
126.66
114.58
94.88
67.48
33.81
-2.78
-37.59
-65.29
-83.02
-90.78
-90.08
-83.98
-75.58
-67.00
-59.02
-51.32
-42.94
-33.91
-25.22
-17.69
-12.04
-7.96
-4.26
0.63
7.87
17.77
29.04
39.43
47.06
50.88
51.27
49.68
47.96
47.53
49.02
52.03
55.54
58.55
60.35
60.64
59.63
57.92
56.13
54.88
54.41
54.72
55.55
56.49
57.15
57.29
56.84
55.88
54.51
52.75
50.44
47.24
42.80
36.88
29.52
21.13
12.31
3.70
-4.30
-11.61
-18.43
-25.08
-31.82
-38.79
-45.98
-53.41
-61.03
-68.86
-76.76
-84.45
-91.46
-97.23
-101.26
-103.19
-102.92
-100.51
-96.11
-89.76
-81.33
-70.58
-57.36
-41.90
-24.90
-7.54
8.84
23.03
34.27
42.39
47.70
50.80
52.35
52.95
53.03
52.91
52.79
52.73
52.71
52.63
52.43
52.09
51.65
51.08
50.23
48.76
46.26
42.42
37.07
30.25
22.14
13.15
4.04
-3.96
-9.29
-10.57
-7.17
0.27
9.99
19.71
27.56
32.75
35.63
37.18
38.24
39.11
39.54
39.10
37.52
34.88
31.39
27.16
22.26
16.80
11.27
6.57
3.91
4.34
8.45
16.08
26.38
38.12
50.02
61.09
70.74
78.77
85.19
89.99
93.05
94.20
93.21
90.07
85.06
78.64
71.31
63.36
54.71
44.99
33.66
20.31
4.82
-12.58
-31.41
-50.95
-70.35
-88.67
-104.90
-118.15
-127.81
-133.64
-135.68
-134.12
-129.06
-120.54
-108.70
-94.12
-77.85
-61.36
-46.16
-33.38
-23.53
-16.48
-11.78
-8.92
-7.60
-7.72
-9.25
-12.02
-15.70
-19.76
-23.63
-26.93
-29.60
-31.97
-34.72
-38.57
-44.04
-51.04
-58.80
-65.91
-70.77
-72.10
-69.27
-62.61
-53.12
-42.16
-30.96
-20.35
-10.68
-1.98
5.91
13.12
19.73
25.82
31.43
36.55
41.08
44.80
47.39
48.65
48.50
47.21
45.24
43.27
41.86
41.41
41.97
43.42
45.43
47.64
49.71
51.36
52.33
52.44
51.59
49.81
47.31
44.36
41.21
37.99
34.67
31.09
27.12
22.75
18.14
13.61
9.44
5.79
2.60
-0.35
-3.30
-6.43
-9.76
-13.20
-16.71
-20.24
-23.84
-27.54
-31.32
-35.11
-38.92
-42.96
-47.54
-52.86
-58.71
-64.22
-68.10
-68.95
-65.85
-58.74
-48.41
-36.26
-23.73
-11.92
-1.44
7.50
14.89
20.78
25.25
28.51
30.88
32.73
34.33
35.78
36.90
37.47
37.27
36.26
34.69
32.97
31.57
30.81
30.79
31.33
32.10
32.69
32.81
32.31
31.18
29.55
27.58
25.41
23.19
20.98
18.73
16.32
13.58
10.45
7.02
3.55
0.30
-2.57
-5.14
-7.68
-10.53
-13.89
-17.77
-21.98
-26.24
-30.31
-34.05
-37.49
-40.79
-44.28
-48.36
-53.38
-59.31
-65.68
-71.40
-75.05
-75.33
-71.47
-63.56
-52.46
-39.52
-26.17
-13.57
-2.45
6.91
14.54
20.64
25.52
29.50
32.83
35.69
38.18
40.27
41.86
42.82
43.04
42.50
41.34
39.87
38.52
37.70
37.61
38.18
39.07
39.81
39.97
39.29
37.77
35.61
33.12
30.56
28.08
25.66
23.15
20.37
17.20
13.64
9.80
5.84
1.97
-1.70
-5.05
-8.13
-11.04
-13.99
-17.22
-20.93
-25.13
-29.63
-34.08
-38.11
-41.55
-44.52
-47.48
-51.05
-55.75
-61.72
-68.50
-75.04
-79.96
-81.90
-79.97
-73.95
-64.37
-52.24
-38.85
-25.41
-12.99
-2.30
6.27
12.77
17.59
21.37
24.73
28.09
31.53
34.86
37.72
39.74
40.69
40.49
39.26
37.32
35.15
33.26
32.13
31.96
32.63
33.72
34.67
35.02
34.49
33.06
30.90
28.28
25.51
22.81
20.35
18.11
15.96
13.70
11.18
8.40
5.49
2.65
0.06
-2.25
-4.33
-6.32
-8.39
-10.66
-13.22
-16.13
-19.38
-22.90
-26.56
-30.26
-33.95
-37.70
-41.78
-46.51
-52.10
-58.47
-65.08
-70.92
-74.70
-75.20
-71.70
-64.22
-53.56
-40.95
-27.76
-15.09
-3.67
6.18
14.36
20.96
26.20
30.35
33.73
36.52
38.79
40.40
41.20
41.08
40.12
38.55
36.72
34.97
33.59
32.74
32.39
32.36
32.40
32.24
31.72
30.86
29.80
28.70
27.67
26.66
25.50
23.97
21.83
18.96
15.39
11.27
6.90
2.58
-1.37
-4.82
-7.77
-10.38
-12.91
-15.59
-18.61
-22.02
-25.77
-29.66
-33.47
-37.08
-40.52
-44.10
-48.32
-53.64
-60.19
-67.57
-74.73
-80.25
-82.68
-80.99
-74.89
-64.88
-52.11
-38.04
-24.08
-11.35
-0.47
8.36
15.32
20.83
25.35
29.31
32.89
36.06
38.58
40.12
40.53
39.82
38.23
36.13
33.90
31.88
30.37
29.54
29.51
30.20
31.36
32.54
33.29
33.28
32.44
30.97
29.17
27.32
25.53
23.71
21.67
19.24
16.31
12.94
9.28
5.54
1.97
-1.30
-4.26
-7.06
-9.99
-13.38
-17.47
-22.22
-27.39
-32.51
-37.19
-41.30
-45.05
-48.97
-53.63
-59.39
-66.13
-73.14
-79.23
-83.08
-83.52
-79.90
-72.21
-61.13
-47.74
-33.41
-19.44
-6.87
3.69
12.05
18.46
23.43
27.53
31.22
34.76
38.19
41.39
44.14
46.22
47.52
47.98
47.73
47.00
46.14
45.54
45.45
45.92
46.81
47.77
48.43
48.48
47.75
46.25
44.11
41.58
38.89
36.25
33.73
31.24
28.58
25.52
21.93
17.87
13.59
9.45
5.75
2.62
-0.03
-2.50
-5.15
-8.29
-12.03
-16.32
-20.93
-25.56
-30.02
-34.37
-38.86
-43.93
-50.02
-57.32
-65.57
-73.99
-81.34
-86.18
-87.30
-83.97
-76.18
-64.64
-50.56
-35.40
-20.58
-7.22
4.00
12.85
19.54
24.59
28.62
32.14
35.42
38.44
40.98
42.76
43.64
43.67
43.06
42.16
41.35
40.92
41.10
41.94
43.33
45.00
46.55
47.57
47.66
46.59
44.39
41.33
37.87
34.49
31.53
29.04
26.83
24.56
21.95
18.94
15.66
12.34
9.18
6.18
3.21
0.05
-3.45
-7.33
-11.54
-15.95
-20.47
-25.03
-29.65
-34.47
-39.76
-45.90
-53.27
-61.95
-71.53
-80.98
-88.80
-93.34
-93.38
-88.44
-78.95
-66.08
-51.33
-36.20
-21.89
-9.14
1.67
10.50
17.58
23.30
28.19
32.72
37.18
41.55
45.50
48.55
50.22
50.34
49.09
46.94
44.56
42.59
41.46
41.39
42.31
43.99
46.01
47.91
49.29
49.91
49.80
49.21
48.47
47.95
47.81
48.06
48.46
48.68
48.34
47.17
45.02
41.93
38.11
33.80
29.28
24.76
20.40
16.31
12.58
9.30
6.56
4.38
2.77
1.63
0.77
-0.17
-1.56
-3.79
-7.08
-11.35
-16.21
-21.07
-25.27
-28.30
-29.92
-30.15
-29.23
-27.52
-25.43
-23.44
-22.04
-21.70
-22.82
-25.57
-29.89
-35.46
-41.80
-48.42
-55.00
-61.42
-67.73
-73.91
-79.51
-83.51
-84.45
-80.89
-72.08
-58.42
-41.48
-23.48
-6.48
8.17
19.98
29.04
35.45
39.19
40.29
39.31
37.61
36.87
38.27
41.72
45.66
47.77
46.25
40.81
33.00
25.48
20.72
19.80
22.06
25.66
28.43
28.94
26.84
22.75
17.73
12.59
7.31
1.38
-5.88
-15.00
-26.03
-38.62
-51.93
-64.81
-75.94
-84.29
-88.89
-89.15
-85.20
-78.06
-69.73
-62.45
-57.91
-56.53
-57.69
-59.43
-59.27
-55.32
-46.84
-34.79
-20.98
-7.29
7.63
23.71
40.23
56.25
69.98
81.13
88.89
92.30
90.40
83.04
70.71
54.97
37.76
20.74
5.03
-8.95
-20.95
-30.52
-37.16
-41.02
-42.86
-44.01
-46.00
-49.81
-55.55
-62.25
-68.23
-71.97
-72.95
-71.57
-68.85
-65.85
-63.20
-61.05
-59.16
-57.18
-54.96
-52.67
-50.61
-48.99
-47.91
-47.37
-47.28
-47.52
-47.77
-47.49
-45.96
-42.36
-35.93
-26.20
-13.06
3.10
21.53
41.20
61.00
79.85
96.86
111.34
122.81
130.92
135.45
136.35
133.82
128.31
120.42
110.68
99.47
86.95
73.23
58.64
43.81
29.67
17.15
6.88
-1.04
-7.02
-11.80
-16.08
-20.25
-24.38
-28.16
-31.22
-33.32
-34.44
-34.84
-34.88
-34.90
-35.08
-35.42
-35.84
-36.24
-36.56
-36.77
-36.90
-36.94
-36.95
-37.00
-37.24
-37.80
-38.79
-40.24
-42.08
-44.20
-46.52
-48.99
-51.69
-54.78
-58.50
-63.14
-68.81
-75.37
-82.23
-88.34
-92.37
-93.07
-89.62
-81.96
-70.78
-57.36
-43.18
-29.56
-17.40
-7.04
1.58
8.84
15.21
21.11
26.81
32.33
37.49
41.98
45.51
47.92
49.30
49.93
50.22
50.58
51.26
52.33
53.72
55.24
56.70
57.92
58.78
59.15
58.98
58.26
57.04
55.46
53.67
51.77
49.74
47.44
44.68
41.34
37.45
33.24
29.06
25.27
21.96
19.04
16.12
12.80
8.78
4.03
-1.20
-6.58
-11.81
-16.76
-21.54
-26.37
-31.54
-37.28
-43.73
-50.88
-58.37
-65.48
-71.06
-73.88
-72.94
-67.88
-59.14
-47.81
-35.28
-22.80
-11.22
-0.95
7.92
15.48
21.92
27.46
32.37
36.82
40.92
44.54
47.46
49.47
50.48
50.65
50.29
49.83
49.60
49.78
50.38
51.23
52.07
52.60
52.58
51.87
50.47
48.51
46.19
43.72
41.24
38.79
36.32
33.72
30.91
27.84
24.54
21.17
17.92
14.94
12.25
9.70
7.07
4.11
0.67
-3.25
-7.53
-12.00
-16.52
-21.09
-25.77
-30.67
-35.96
-41.76
-48.14
-55.02
-62.03
-68.45
-73.29
-75.41
-73.90
-68.38
-59.19
-47.40
-34.46
-21.82
-10.58
-1.28
6.03
11.65
16.01
19.50
22.44
25.03
27.41
29.64
31.70
33.52
35.04
36.20
37.02
37.49
37.68
37.66
37.48
37.18
36.71
35.94
34.71
32.90
30.55
27.83
25.02
22.40
20.11
18.13
16.31
14.46
12.45
10.26
7.98
5.77
3.81
2.22
1.02
0.12
-0.65
-1.54
-2.77
-4.49
-6.76
-9.54
-12.70
-16.03
-19.34
-22.49
-25.43
-28.28
-31.27
-34.61
-38.33
-42.07
-45.12
-46.52
-45.37
-41.15
-33.95
-24.48
-13.85
-3.28
6.25
14.17
20.36
24.98
28.37
30.82
32.60
33.83
34.58
34.81
34.45
33.44
31.76
29.55
27.06
24.63
22.66
21.43
21.07
21.45
22.28
23.15
23.68
23.63
22.98
21.88
20.55
19.15
17.76
16.28
14.65
12.88
11.04
9.27
7.66
6.19
4.75
3.19
1.38
-0.70
-3.04
-5.60
-8.29
-11.07
-13.91
-16.77
-19.69
-22.74
-26.10
-30.04
-34.80
-40.49
-46.90
-53.40
-58.94
-62.33
-62.53
-59.03
-52.02
-42.35
-31.26
-20.01
-9.63
-0.73
6.47
12.02
16.13
19.09
21.26
22.96
24.46
25.95
27.46
28.89
30.07
30.80
30.98
30.65
29.97
29.25
28.76
28.64
28.89
29.35
29.74
29.81
29.43
28.56
27.27
25.73
24.04
22.32
20.59
18.85
17.05
15.14
13.03
10.70
8.13
5.36
2.46
-0.53
-3.61
-6.82
-10.20
-13.74
-17.33
-20.74
-23.78
-26.39
-28.74
-31.25
-34.46
-38.77
-44.22
-50.38
-56.39
-61.16
-63.59
-62.85
-58.56
-50.87
-40.40
-28.11
-15.12
-2.40
9.42
20.07
29.62
38.25
46.07
53.01
58.86
63.45
66.77
69.08
70.82
72.43
74.12
75.78
76.96
76.96
74.98
70.36
62.65
51.84
38.42
23.42
8.19
-5.84
-17.52
-26.25
-32.09
-35.54
-37.31
-37.97
-37.87
-37.24
-36.29
-35.28
-34.47
-34.03
-33.90
-33.87
-33.71
-33.37
-33.09
-33.26
-34.21
-36.08
-38.57
-41.15
-43.26
-44.56
-45.04
-45.10
-45.37
-46.48
-48.81
-52.33
-56.49
-60.33
-62.72
-62.67
-59.59
-53.52
-45.08
-35.37
-25.57
-16.71
-9.43
-3.90
0.12
3.08
5.52
7.90
10.46
13.24
16.07
18.61
20.54
21.65
21.89
21.50
20.84
20.36
20.41
21.11
22.34
23.78
24.96
25.46
24.99
23.50
21.09
18.06
14.75
11.49
8.51
5.89
3.51
1.22
-1.20
-3.85
-6.68
-9.50
-12.03
-14.03
-15.41
-16.27
-16.86
-17.47
-18.37
-19.63
-21.16
-22.76
-24.16
-25.18
-25.73
-25.94
-26.07
-26.47
-27.49
-29.29
-31.75
-34.40
-36.40
-36.76
-34.60
-29.50
-21.64
-11.88
-1.48
8.25
16.32
22.25
26.03
28.04
28.78
28.77
28.41
28.02
27.74
27.60
27.51
27.32
26.86
26.12
25.18
24.25
23.56
23.30
23.56
24.31
25.40
26.61
27.68
28.40
28.59
28.21
27.34
26.14
24.79
23.41
21.98
20.41
18.58
16.44
14.03
11.49
8.93
6.39
3.86
1.26
-1.53
-4.60
-8.00
-11.69
-15.59
-19.48
-23.12
-26.42
-29.41
-32.36
-35.59
-39.36
-43.56
-47.71
-50.96
-52.36
-51.15
-47.01
-40.19
-31.42
-21.77
-12.35
-4.05
2.63
7.60
11.07
13.47
15.24
16.70
18.02
19.20
20.09
20.50
20.27
19.33
17.77
15.82
13.82
12.16
11.20
11.13
11.95
13.42
15.09
16.46
17.11
16.84
15.72
14.00
12.02
10.01
8.09
6.27
4.55
2.98
1.61
0.51
-0.38
-1.21
-2.23
-3.65
-5.57
-7.94
-10.54
-13.17
-15.66
-17.96
-20.16
-22.38
-24.78
-27.48
-30.59
-34.14
-38.05
-42.03
-45.47
-47.52
-47.26
-44.06
-37.81
-29.11
-18.98
-8.65
0.86
8.93
15.32
20.10
23.47
25.65
26.88
27.44
27.56
27.47
27.30
27.07
26.78
26.38
25.94
25.55
25.34
25.35
25.63
26.09
26.62
27.14
27.54
27.81
27.87
27.64
26.96
25.70
23.75
21.15
18.00
14.54
10.99
7.62
4.62
2.11
0.12
-1.49
-2.99
-4.74
-7.06
-10.11
-13.79
-17.80
-21.73
-25.29
-28.41
-31.30
-34.35
-38.00
-42.55
-47.99
-53.92
-59.51
-63.66
-65.18
-63.18
-57.35
-48.08
-36.46
-23.93
-11.90
-1.46
6.88
13.09
17.49
20.56
22.74
24.42
25.81
27.01
28.05
28.89
29.46
29.75
29.79
29.68
29.54
29.52
29.70
30.11
30.63
31.10
31.28
31.00
30.22
29.00
27.50
25.84
24.05
22.08
19.82
17.21
14.29
11.19
8.11
5.22
2.61
0.25
-1.97
-4.26
-6.86
-9.97
-13.64
-17.79
-22.14
-26.36
-30.20
-33.58
