1675321429.00
64.000000
-0.00
-0.00
-0.00
-0.00
-0.00
-0.00
-0.00
-0.00
-0.00
-0.00
0.00
0.01
0.01
-0.00
-0.03
-0.05
-0.05
0.00
0.13
0.36
0.66
1.01
1.37
1.72
2.06
2.40
2.79
3.24
3.80
4.42
5.06
5.66
6.20
6.68
7.15
7.68
8.31
9.14
10.09
11.04
11.88
12.56
13.14
13.76
14.65
15.96
17.91
20.32
22.90
25.38
27.58
29.57
31.68
34.32
37.81
42.54
48.15
54.10
59.83
64.97
69.58
74.14
79.34
85.71
93.76
103.00
112.62
121.73
129.77
136.75
143.30
150.75
157.77
166.64
177.95
191.79
206.97
220.57
228.25
225.36
208.53
176.87
132.76
80.05
23.07
-34.94
-92.44
-149.16
-205.23
-260.37
-313.74
-363.87
-409.83
-450.91
-486.50
-515.74
-537.23
-549.22
-549.96
-538.37
-514.21
-478.67
-433.88
-382.45
-327.02
-269.84
-212.63
-156.66
-102.95
-52.37
-5.90
35.58
71.43
101.35
125.50
144.38
158.69
169.15
176.37
180.75
182.57
182.07
179.51
175.23
169.65
163.18
156.15
148.81
141.30
133.69
126.02
118.33
110.69
103.16
95.80
88.68
81.83
75.25
68.95
62.95
57.25
51.86
46.78
42.03
37.59
33.45
29.61
26.07
22.81
19.83
17.11
14.67
12.48
10.54
8.83
7.35
6.07
4.97
4.05
3.27
2.62
2.09
1.65
1.30
1.01
0.79
0.61
0.47
0.37
0.28
0.22
0.18
0.15
0.13
0.12
0.12
0.13
0.14
0.16
0.19
0.23
0.26
0.31
0.35
0.40
0.45
0.51
0.57
0.63
0.70
0.77
0.84
0.92
1.00
1.09
1.19
1.29
1.39
1.51
1.64
1.78
1.94
2.13
2.35
2.59
2.85
3.10
3.35
3.60
3.87
4.18
4.57
5.05
5.60
6.21
6.84
7.46
8.09
8.74
9.45
10.26
11.18
12.20
13.25
14.30
15.29
16.23
17.17
18.21
19.38
20.70
22.05
23.23
24.02
24.18
23.62
22.33
20.41
17.95
15.01
11.54
7.35
2.30
-3.62
-10.20
-17.02
-23.58
-29.46
-34.45
-38.67
-42.45
-46.19
-50.20
-54.38
-58.35
-61.53
-63.47
-63.92
-63.00
-61.06
-58.59
-56.11
-54.07
-52.94
-53.00
-53.93
-54.49
-52.67
-46.35
-34.42
-17.59
1.71
19.75
32.87
38.78
37.56
31.44
23.83
17.70
14.63
14.66
16.19
16.70
14.09
7.84
-0.72
-9.06
-14.77
-16.50
-13.97
-8.19
-0.95
5.77
10.36
11.48
7.95
-0.87
-13.53
-25.50
-30.89
-25.08
-6.81
21.43
54.81
88.78
118.65
139.06
150.23
158.30
170.42
188.11
205.02
210.51
196.30
161.15
112.25
62.33
22.94
-0.62
-10.36
-12.23
-12.94
-15.10
-18.33
-21.40
-23.35
-24.75
-26.86
-30.09
-32.53
-30.56
-20.75
-2.20
22.92
50.64
76.76
98.78
114.68
124.40
128.89
128.83
123.56
111.33
90.53
60.73
23.49
-18.18
-60.11
-98.77
-132.76
-163.61
-195.37
-232.30
-276.81
-326.23
-372.58
-404.26
-410.35
-384.71
-328.02
-247.91
-156.41
-67.35
8.33
64.12
98.69
113.92
113.36
104.42
95.06
83.28
62.63
31.76
-9.26
-57.23
-106.86
-152.09
-187.01
-207.98
-199.36
-158.06
-97.26
-37.39
9.13
41.31
63.93
81.19
93.43
98.36
92.27
75.67
53.79
34.73
25.04
26.95
38.53
54.94
69.97
75.84
67.32
43.80
10.17
-24.38
-49.19
-55.49
-39.88
-6.08
35.06
71.56
95.03
101.46
94.37
82.01
72.53
70.65
77.12
89.19
103.87
118.44
130.28
137.18
136.88
127.92
110.44
88.37
63.40
38.99
18.56
4.19
-3.50
-5.94
-5.98
-6.69
-10.14
-17.06
-26.07
-34.85
-42.14
-47.98
-53.45
-59.70
-66.85
-73.75
-79.20
-82.12
-82.77
-82.44
-82.14
-81.88
-80.67
-77.77
-72.40
-65.55
-58.81
-54.02
-52.19
-52.91
-54.61
-55.44
-54.10
-50.28
-44.80
-38.51
-32.23
-26.37
-20.78
-15.11
-9.16
-3.23
1.96
5.39
6.71
5.94
3.63
0.67
-1.92
-3.19
-2.28
1.83
7.52
14.33
21.83
29.54
36.92
43.56
49.19
53.71
57.11
59.26
60.34
60.42
59.62
58.19
56.42
54.52
52.41
49.74
46.03
41.21
35.46
29.22
23.10
17.58
12.90
9.00
5.67
2.61
-0.22
-2.92
-5.65
-8.64
-12.08
-15.89
-19.60
-22.45
-23.59
-22.40
-18.85
-13.53
-7.39
-1.41
3.68
7.57
10.25
11.87
12.63
12.64
11.96
10.61
8.71
6.48
4.24
2.34
1.00
0.30
0.14
0.32
0.71
1.29
2.13
3.24
4.49
5.54
6.06
5.81
4.85
3.47
2.02
0.73
-0.39
-1.44
-2.58
-3.83
-5.05
-6.05
-6.66
-6.86
-6.78
-6.76
-7.23
-8.59
-11.07
-14.60
-18.70
-22.60
-25.41
-26.39
-25.14
-21.66
-16.33
-9.67
-2.28
5.25
12.35
18.46
23.15
26.15
27.47
27.31
26.04
24.04
21.67
19.24
17.06
15.36
14.34
14.04
14.33
15.02
15.82
16.51
16.88
16.81
16.23
15.13
13.57
11.69
9.64
7.52
5.35
3.07
0.59
-2.12
-5.02
-7.94
-10.71
-13.18
-15.26
-16.97
-18.45
-19.95
-21.75
-24.11
-27.08
-30.39
-33.43
-35.39
-35.47
-33.20
-28.58
-22.01
-14.22
-6.03
1.84
8.82
14.56
18.90
21.86
23.56
24.22
24.05
23.22
21.94
20.40
18.88
17.69
17.03
16.94
17.28
17.78
18.20
18.37
18.27
17.91
17.29
16.32
14.88
12.90
10.45
7.74
5.06
2.60
0.41
-1.61
-3.63
-5.74
-7.92
-10.07
-12.11
-14.09
-16.17
-18.58
-21.37
-24.41
-27.24
-29.20
-29.61
-27.95
-24.04
-18.12
-10.77
-2.75
5.16
12.32
18.31
22.88
25.94
27.54
27.86
27.18
25.85
24.23
22.56
21.07
19.83
18.90
18.28
17.93
17.76
17.63
17.40
16.92
16.12
14.92
13.37
11.51
9.42
7.21
4.96
2.72
0.49
-1.72
-3.92
-5.98
-7.82
-9.38
-10.66
-11.78
-12.89
-14.15
-15.64
-17.41
-19.38
-21.40
-23.18
-24.28
-24.23
-22.56
-19.09
-13.95
-7.61
-0.81
5.69
11.28
15.61
18.54
20.09
20.35
19.45
17.59
15.09
12.39
9.93
8.06
6.97
6.65
6.96
7.70
8.67
9.64
10.39
10.64
10.14
8.76
6.54
3.69
0.50
-2.82
-6.15
-9.52
-12.98
-16.55
-20.12
-23.50
-26.45
-28.78
-30.43
-31.48
-32.18
-32.89
-34.03
-35.87
-38.48
-41.57
-44.49
-46.34
-46.22
-43.51
-38.05
-30.24
-20.92
-11.16
-1.89
6.29
13.22
19.06
24.13
28.62
32.53
35.68
37.88
39.15
39.69
39.87
40.01
40.24
40.47
40.47
40.04
39.16
37.92
36.49
34.91
33.12
30.93
28.23
25.07
21.65
18.32
15.31
12.69
10.30
7.88
5.16
1.97
-1.64
-5.49
-9.36
-13.05
-16.35
-19.11
-21.28
-23.03
-24.66
-26.43
-28.43
-30.53
-32.20
-32.73
-31.43
-27.94
-22.41
-15.52
-8.09
-1.01
5.00
9.55
12.65
14.60
15.73
16.10
15.56
14.27
12.42
10.14
7.60
5.14
3.14
1.87
1.26
0.95
1.34
2.70
4.78
6.99
8.92
10.59
12.38
14.65
17.57
22.44
29.70
38.33
46.24
51.66
54.09
54.52
54.86
57.28
65.30
80.51
101.52
124.43
144.81
159.43
166.86
167.23
150.00
111.82
58.61
3.01
-44.00
-77.79
-98.93
-110.35
-115.60
-117.81
-117.44
-114.60
-109.83
-104.21
-98.63
-93.35
-88.38
-84.04
-80.95
-78.20
-75.22
-72.02
-69.21
-66.89
-64.15
-59.44
-51.46
-39.93
-25.05
-8.48
7.16
19.32
26.90
30.76
32.89
35.04
37.59
39.79
39.90
36.70
30.38
23.05
17.64
16.27
18.55
21.49
20.88
13.05
-3.23
-26.66
-53.45
-78.30
-95.87
-102.11
-95.44
-76.60
-50.83
-24.47
-3.29
9.59
14.49
14.36
12.88
12.42
13.21
13.80
12.78
9.79
5.86
2.76
1.84
3.50
7.24
12.20
17.35
21.78
24.09
22.39
14.93
1.10
-17.67
-38.00
-55.79
-67.81
-72.95
-72.37
-68.51
-63.55
-58.39
-52.31
-44.24
-32.84
-17.42
1.50
22.14
41.42
55.62
61.66
58.33
47.29
32.74
19.79
12.23
11.24
15.06
20.46
24.64
26.55
27.13
28.23
31.09
35.16
38.37
38.26
33.68
25.66
17.11
11.12
9.41
11.55
15.21
17.63
17.03
13.38
8.11
3.00
-0.68
-2.71
-3.57
-4.16
-5.26
-7.39
-10.80
-15.44
-20.91
-26.40
-30.88
-33.34
-33.24
-30.45
-25.36
-18.55
-10.68
-2.42
5.57
12.46
17.56
20.49
21.48
21.35
21.09
21.39
22.18
22.81
22.39
20.62
18.13
16.14
15.75
17.22
19.96
22.94
25.50
27.31
28.41
28.70
27.70
24.95
20.66
16.07
13.22
14.07
18.89
26.14
32.99
36.59
35.21
28.82
18.54
5.79
-5.78
-14.03
-17.97
-17.73
-14.24
-8.80
-2.71
2.82
7.31
11.04
14.42
18.02
22.35
27.77
34.28
41.47
47.91
52.72
55.94
58.09
59.94
61.93
63.72
63.94
60.27
48.92
27.99
-1.52
-36.69
-73.87
-109.79
-142.10
-169.60
-191.97
-211.13
-226.96
-237.28
-239.96
-234.98
-224.81
-213.07
-203.19
-197.26
-197.98
-203.75
-209.41
-209.25
-199.87
-181.29
-155.72
-126.82
-82.27
-25.55
28.99
68.82
92.28
104.86
112.33
118.88
126.71
136.06
142.61
143.92
139.34
129.81
117.29
104.22
94.32
91.08
96.15
106.85
120.17
133.25
144.01
155.86
169.86
185.75
202.04
216.77
221.05
210.79
185.46
147.51
101.48
52.62
7.19
-29.18
-53.37
-66.63
-72.52
-76.59
-84.49
-100.16
-125.05
-156.99
-191.06
-221.42
-243.49
-254.25
-253.31
-242.40
-224.51
-203.20
-181.42
-161.27
-144.04
-130.16
-118.50
-106.81
-92.09
-71.62
-44.26
-10.87
25.65
61.22
91.88
115.38
131.53
142.20
150.18
158.14
167.84
179.49
191.75
202.24
208.76
210.03
206.05
197.24
184.42
168.90
152.21
135.48
119.32
104.13
90.26
78.08
66.45
53.99
40.48
27.10
15.42
6.68
1.68
0.70
3.34
6.34
6.11
1.47
-5.67
-12.31
-16.16
-16.37
-13.75
-10.53
-12.29
-24.45
-48.86
-83.62
-125.99
-173.84
-224.91
-275.58
-304.38
-292.91
-242.58
-173.39
-106.00
-52.30
-15.88
5.38
16.74
23.84
28.06
28.22
24.08
17.71
11.63
7.70
6.90
9.41
14.60
19.39
20.49
17.29
12.38
8.80
8.52
11.90
17.92
24.66
29.41
30.09
27.42
24.67
25.04
30.37
40.71
54.63
69.59
82.23
89.25
87.22
76.81
60.19
40.67
22.12
8.38
0.43
-2.49
-2.72
-3.05
-6.37
-15.08
-30.23
-51.12
-74.98
-97.19
-112.20
-115.82
-107.39
-92.00
-79.29
-79.67
-100.09
-140.79
-194.89
-251.00
-298.12
-322.06
-314.79
-275.47
-209.88
-128.37
-43.21
33.98
94.56
134.30
153.62
155.56
144.99
127.53
108.87
94.47
88.89
94.77
111.62
135.40
158.84
174.81
179.54
174.22
163.99
155.01
151.22
152.88
157.26
160.12
158.34
151.04
139.30
125.18
110.65
97.02
84.86
74.36
65.36
57.73
51.34
45.92
40.93
35.58
29.12
21.35
12.89
4.99
-0.81
-3.38
-2.52
0.92
5.35
9.02
10.57
9.32
5.25
-1.19
-9.32
-18.40
-27.72
-36.81
-45.44
-53.70
-61.93
-70.46
-79.40
-88.42
-96.82
-103.73
-108.39
-110.44
-109.97
-107.38
-103.27
-98.23
-92.78
-87.31
-82.12
-77.38
-73.03
-68.92
-64.77
-60.37
-55.62
-50.60
-45.49
-40.47
-35.54
-30.43
-24.59
-17.33
-8.05
3.61
17.56
33.21
49.41
64.57
76.88
84.76
87.36
84.79
78.44
70.57
63.48
58.60
55.89
53.98
50.93
45.11
35.68
23.12
9.03
-4.31
-14.44
-19.29
-17.60
-9.46
3.10
15.94
24.18
23.77
13.03
-6.73
-31.71
-57.00
-78.01
-92.29
-99.92
-102.53
-102.07
-99.96
-97.04
-93.85
-90.93
-88.34
-82.75
-71.87
-55.44
-35.69
-16.04
-0.09
8.93
9.24
3.51
-4.88
-11.78
-13.05
-6.24
8.29
27.51
47.03
59.65
60.53
47.89
23.40
-8.47
-41.74
-70.43
-89.72
-96.87
-91.37
-74.32
-48.60
-18.18
12.89
41.27
64.80
82.74
95.35
104.11
111.78
120.76
132.05
144.82
157.18
167.49
175.97
184.10
194.77
210.95
233.23
258.41
280.40
293.02
292.09
277.04
248.43
208.39
159.71
104.31
42.91
-23.10
-88.62
-144.64
-179.58
-186.60
-164.66
-119.17
-61.93
-8.26
28.20
41.20
32.05
8.28
-24.84
-63.28
-103.32
-141.82
-176.48
-205.42
-225.81
-236.48
-214.28
-150.73
-60.42
30.14
102.98
154.84
186.42
208.89
228.52
247.39
260.73
262.95
255.49
241.83
226.12
211.39
200.16
192.54
187.88
182.10
172.02
157.74
141.45
125.60
111.36
99.35
88.55
77.96
65.10
48.66
29.67
10.27
-7.72
-23.84
-38.43
-52.86
-68.10
-85.18
-103.90
-122.62
-139.46
-153.46
-165.24
-176.59
-189.93
-206.93
-228.19
-252.71
-278.30
-302.71
-324.68
-344.53
-364.00
-385.74
-412.58
-446.79
-488.99
-537.03
-585.17
-624.58
-645.39
-640.15
-606.84
-550.20
-480.79
-411.32
-352.52
-309.88
-283.08
-267.58
-257.45
-247.35
-233.58
-214.48
-189.82
-160.18
-126.62
-90.58
-54.03
-19.62
10.62
36.23
58.01
78.03
98.74
122.38
150.20
181.37
212.81
241.36
265.40
284.63
300.34
314.03
326.98
340.02
352.16
358.16
350.94
328.64
295.83
260.23
228.32
206.73
198.31
202.80
215.90
231.44
243.95
244.63
228.51
194.74
140.70
76.36
18.81
-19.09
-34.61
-33.32
-25.34
-16.46
-10.31
-8.35
-9.23
-10.93
-13.59
-15.60
-14.41
-8.17
4.11
21.15
40.54
60.26
77.79
90.61
98.01
101.46
103.73
108.08
116.55
130.04
149.10
173.29
201.02
230.30
258.67
283.30
301.77
312.19
314.01
308.12
295.75
277.65
254.23
225.58
191.81
153.16
109.67
61.29
8.56
-46.65
-100.52
-147.47
-181.52
-198.53
-197.87
-183.12
-161.02
-139.26
-124.48
-120.81
-129.43
-148.82
-175.33
-203.90
-228.66
-243.95
-245.52
-232.01
-205.14
-169.20
-129.81
-92.61
-62.22
-41.38
-30.53
-27.92
-30.47
-34.32
-35.96
-33.13
-25.39
-14.26
-1.83
10.43
22.69
35.78
50.70
67.57
85.02
100.27
109.13
108.36
96.87
76.42
49.01
17.64
-13.46
-38.38
-50.87
-48.61
-33.11
-10.24
12.24
23.40
15.56
-12.80
-56.33
-106.50
-159.09
-212.53
-266.69
-318.34
-366.07
-405.95
-432.74
-441.00
-427.95
-398.38
-358.62
-313.93
-265.06
-217.81
-178.08
-151.32
-140.16
-119.21
-76.65
-18.49
17.44
31.59
31.90
36.76
56.07
93.93
147.61
204.90
253.26
285.04
302.74
303.20
286.01
256.93
225.63
198.51
173.65
147.77
119.78
94.03
71.94
55.10
43.81
37.72
36.03
36.48
38.50
42.99
52.11
63.20
71.49
71.49
60.02
38.47
11.98
-11.49
-24.56
-22.75
-7.67
15.99
43.19
67.84
86.04
95.90
97.28
90.96
78.62
61.95
43.29
25.07
8.97
-4.09
-14.40
-23.02
-31.06
-38.70
-45.36
-50.15
-52.78
-54.09
-55.43
-58.23
-63.15
-69.66
-75.58
-78.48
-77.19
-72.42
-66.10
-59.95
-54.70
-49.94
-44.61
-36.90
-26.42
-15.53
-8.41
-8.39
-15.38
-25.27
-30.84
-24.01
3.14
53.48
121.81
195.74
260.29
303.39
318.79
306.60
271.93
225.21
177.37
136.62
107.82
94.04
97.58
118.45
152.79
177.34
172.41
135.10
79.75
22.88
-26.44
-65.11
-93.17
-111.77
-121.94
-121.83
-110.33
-90.14
-68.54
-54.32
-53.72
-68.72
-96.74
-131.24
-161.95
-179.86
-181.29
-165.17
-138.94
-111.33
-88.13
-71.06
-59.06
-49.45
-40.96
-34.63
-32.57
-35.18
-38.57
-36.30
-22.77
3.28
38.22
74.18
103.35
118.98
118.52
104.91
84.19
62.25
42.69
26.67
13.67
2.81
-6.43
-13.89
-18.66
-19.98
-18.22
-15.14
-12.88
-12.90
-15.15
-18.31
-20.42
-19.80
-16.05
-10.27
-4.36
0.14
2.82
4.26
5.24
5.94
5.69
3.40
-1.60
-8.79
-16.32
-21.95
-24.12
-22.86
-19.64
-16.79
-15.59
-16.23
-17.60
-18.03
-16.14
-11.48
-4.66
3.10
10.52
16.65
20.92
23.21
23.69
22.77
20.99
18.93
16.97
15.13
13.02
10.13
6.11
1.11
-4.21
-8.95
-12.19
-13.43
-12.60
-10.13
-6.50
-2.07
2.98
8.55
14.59
20.95
27.46
34.60
42.58
51.73
62.37
74.46
87.32
99.54
109.25
114.54
114.06
107.25
94.62
77.39
56.98
34.59
11.07
-13.00
-37.22
-61.19
-84.44
-106.12
-125.27
-141.26
-154.12
-164.35
-172.51
-178.88
-183.23
-184.94
-182.74
-175.61
-163.66
-148.42
-132.08
-116.61
-103.05
-91.63
-81.97
-72.76
-62.73
-51.63
-40.51
-30.90
-24.06
-20.47
-19.76
-20.49
-19.04
-10.72
8.09
38.22
77.17
119.64
158.73
187.77
196.16
177.37
134.92
82.56
37.00
10.25
7.37
27.02
62.46
102.88
136.85
155.10
153.29
133.87
105.36
78.80
62.64
59.00
63.80
70.91
77.20
80.88
82.18
81.43
77.79
68.97
52.67
28.59
0.11
-26.81
-46.45
-55.39
-53.84
-44.93
-33.17
-22.87
-16.78
-15.46
-17.84
-22.62
-27.90
-32.73
-36.56
-39.01
-39.78
-38.68
-35.46
-30.03
-22.86
-14.85
-7.50
-2.33
-0.45
-2.01
-6.10
-10.89
-14.49
-15.72
-14.47
-11.85
-9.44
-8.44
-9.07
-10.43
-11.02
-9.56
-5.66
-0.03
5.85
10.36
12.38
11.57
8.38
3.75
-1.27
-5.64
-8.59
-9.72
-9.01
-6.90
-4.24
-1.96
-0.87
-1.27
-2.95
-5.24
-7.39
-8.79
-9.24
-8.92
-8.19
-7.39
-6.66
-5.99
-5.41
-5.10
-5.30
-6.10
-7.33
-8.35
-8.41
-7.05
-4.47
-1.59
0.34
0.37
-1.57
-4.58
-7.14
-7.96
-6.59
-3.59
-0.26
2.14
2.97
2.41
1.09
-0.36
-1.81
-3.57
-6.07
-9.41
-13.18
-16.68
-19.28
-20.88
-21.83
-22.72
-23.92
-25.38
-26.61
-27.05
-26.33
-24.46
-21.73
-18.49
-15.05
-11.57
-8.12
-4.73
-1.35
2.10
5.80
9.88
14.28
18.62
22.25
24.44
24.63
22.70
18.98
14.24
9.20
4.62
1.22
-0.44
-0.13
2.00
5.47
9.59
13.70
17.21
20.05
22.66
25.69
29.50
33.88
38.05
41.08
42.42
41.94
40.42
39.28
39.67
41.79
44.79
47.37
48.70
48.95
48.21
47.43
47.87
50.00
52.63
53.36
49.88
41.40
29.29
14.70
0.39
-9.83
-13.27
-10.47
-5.14
-2.61
-7.99
-25.03
-58.62
-109.32
-171.39
-234.00
-285.05
-314.67
-318.07
-297.50
-262.26
-229.99
-215.10
-222.16
-245.44
-274.24
-298.58
-313.11
-318.24
-291.03
-226.85
-141.10
-56.09
16.34
75.09
121.52
155.07
174.77
181.78
175.90
161.33
144.84
132.64
126.67
124.86
123.72
120.84
115.94
107.20
94.89
82.08
72.71
68.60
68.91
71.38
73.86
75.13
73.01
67.20
59.53
52.70
48.30
46.30
45.75
45.58
45.07
42.91
38.70
33.24
27.90
23.68
20.75
18.70
16.94
15.00
12.33
8.87
4.96
1.03
-2.88
-7.07
-11.85
-17.30
-23.06
-28.59
-33.43
-37.49
-41.09
-44.81
-49.09
-54.03
-59.27
-64.22
-68.33
-71.25
-72.85
-72.94
-71.18
-66.96
-59.71
-49.15
-35.53
-19.56
-2.27
15.34
32.40
48.13
61.78
72.60
79.99
83.75
84.22
82.23
78.87
75.10
71.49
68.14
64.87
61.41
57.65
53.74
50.01
46.86
44.52
43.02
42.02
41.05
39.63
37.45
34.49
31.06
27.57
24.42
21.83
19.83
18.32
17.14
16.15
15.25
14.31
13.26
12.05
10.71
9.34
8.08
7.02
6.18
5.53
4.95
4.28
3.30
1.81
-0.36
-3.32
-7.10
-11.64
-16.73
-21.99
-26.81
-30.43
-32.13
-31.40
-28.16
-22.73
-15.76
-8.03
-0.25
6.97
13.20
18.10
21.48
23.37
24.01
23.79
23.09
22.27
21.51
20.90
20.47
20.15
19.83
19.39
18.76
17.96
17.16
16.54
16.20
16.10
16.10
16.08
16.07
16.26
16.92
18.26
20.32
22.91
25.76
28.60
31.31
33.93
36.61
39.45
42.47
45.41
47.88
49.43
49.73
48.68
46.41
43.15
39.06
34.22
28.60
22.12
14.74
6.50
-2.56
-12.27
-22.37
-32.29
-41.20
-48.07
-51.98
-52.50
-49.81
-44.74
-38.42
-31.89
-25.81
-20.41
-15.64
-11.40
-7.73
-4.74
-2.53
-1.01
0.10
1.17
2.52
4.39
6.85
9.92
13.45
17.08
20.19
21.97
21.63
18.68
13.18
5.79
-2.42
-10.25
-16.73
-21.42
-24.45
-26.37
-27.97
-29.89
-32.51
-35.79
-39.44
-43.07
-46.33
-48.98
-50.90
-51.98
-52.13
-51.32
-49.57
-47.12
-44.28
-41.47
-39.09
-37.51
-36.95
-37.45
-38.77
-40.31
-41.18
-40.38
-36.97
-30.48
-20.99
-9.23
3.70
16.51
28.08
37.57
44.53
48.92
51.01
51.37
50.69
49.64
48.73
48.16
47.88
47.63
47.07
45.96
44.25
42.08
39.69
37.29
34.96
32.59
29.91
26.63
22.58
17.82
12.64
7.46
2.65
-1.57
-5.27
-8.69
-12.16
-15.89
-19.91
-24.01
-27.87
-31.18
-33.79
-35.76
-37.35
-38.83
-40.48
-42.35
-44.26
-45.79
-46.40
-45.58
-43.02
-38.73
-33.02
-26.40
-19.40
-12.43
-5.82
0.27
5.66
10.18
13.66
16.04
17.34
17.70
17.31
16.31
14.81
12.95
10.97
9.15
7.79
7.01
6.65
6.42
5.96
5.12
3.98
2.82
1.89
1.27
0.80
0.21
-0.77
-2.25
-4.19
-6.46
-8.90
-11.40
-13.83
-16.04
-17.90
-19.32
-20.30
-20.98
-21.62
-22.51
-23.87
-25.79
-28.08
-30.22
-31.49
-31.09
-28.42
-23.30
-16.10
-7.62
1.08
8.96
15.25
19.55
21.84
22.37
21.59
20.04
18.21
16.51
15.25
14.59
14.51
14.78
15.06
14.98
14.37
13.29
12.11
11.30
11.16
11.64
12.33
12.62
11.99
10.27
7.76
5.04
2.78
1.39
0.88
0.89
0.83
0.15
-1.42
-3.75
-6.44
-8.92
-10.77
-11.92
-12.62
-13.38
-14.70
-16.83
-19.66
-22.73
-25.34
-26.77
-26.42
-23.94
-19.31
-12.83
-5.07
3.16
10.96
17.50
22.19
24.80
25.50
24.80
23.39
21.93
20.87
20.34
20.23
20.32
20.41
20.43
20.44
20.63
21.12
21.98
23.09
24.16
24.67
24.14
22.21
18.87
14.56
9.95
5.80
2.52
0.13
-1.80
-3.90
-6.73
-10.53
-15.20
-20.30
-25.24
-29.48
-32.65
-34.61
-35.54
-35.87
-36.24
-37.36
-39.80
-43.72
-48.73
-53.89
-57.85
-59.29
-57.36
-51.99
-43.86
-34.20
-24.31
-15.24
-7.65
-1.79
2.33
4.85
5.99
6.07
5.48
4.60
3.79
3.26
3.13
3.45
4.24
5.52
7.24
9.24
11.30
13.14
14.47
15.12
15.01
14.20
12.86
11.26
9.64
8.22
7.08
6.22
5.57
5.03
4.51
3.99
3.42
2.73
1.79
0.43
-1.50
-4.03
-7.09
-10.47
-13.87
-17.02
-19.79
-22.19
-24.40
-26.64
-28.95
-31.19
-33.04
-34.11
-34.00
-32.50
-29.48
-25.02
-19.44
-13.25
-7.12
-1.71
2.54
5.47
7.22
8.07
8.20
7.71
6.58
4.93
3.06
1.38
0.27
-0.04
0.46
1.61
3.25
5.21
7.37
9.54
11.45
12.81
13.41
13.15
12.16
10.70
9.05
7.39
5.80
4.24
2.62
0.91
-0.82
-2.47
-3.91
-5.16
-6.34
-7.68
-9.43
-11.73
-14.65
-18.10
-21.83
-25.37
-28.08
-29.22
-28.13
-24.51
-18.55
-10.90
-2.54
5.55
12.60
18.19
22.16
24.61
25.71
25.72
24.91
23.57
22.01
20.44
19.03
17.85
16.90
16.24
15.95
16.13
16.85
18.04
19.48
20.83
21.72
21.94
21.44
20.39
19.03
17.58
16.16
14.80
13.48
12.16
10.85
9.57
8.36
7.28
6.41
5.76
5.31
4.92
4.37
3.37
1.70
-0.76
-3.88
-7.29
-10.37
-12.40
-12.74
-10.98
-7.11
-1.51
5.16
12.08
18.43
23.59
27.19
29.14
29.57
28.85
27.49
26.04
24.92
24.36
24.30
24.48
24.53
24.17
23.25
21.76
19.77
17.37
14.60
11.52
8.20
4.75
1.26
-2.23
-5.79
-9.50
-13.42
-17.43
-21.38
-25.11
-28.65
-32.21
-36.08
-40.43
-45.02
-49.27
-52.39
-53.73
-53.14
-51.03
-48.31
-46.01
-45.03
-45.83
-48.44
-52.45
-57.06
-61.29
-64.05
-64.44
-62.01
-57.00
-50.25
-42.99
-36.37
-31.04
-26.99
-23.62
-20.16
-15.92
-10.58
-4.18
2.88
9.98
16.45
21.62
25.11
26.94
27.67
28.25
29.71
32.81
37.73
43.99
50.73
56.98
61.91
65.00
65.95
64.71
61.40
56.35
50.19
43.57
37.14
31.28
26.02
21.13
16.22
10.99
5.34
-0.63
-6.67
-12.49
-17.86
-22.62
-26.73
-30.19
-33.07
-35.55
-37.89
-40.39
-43.26
-46.44
-49.60
-52.10
-53.24
-52.48
-49.62
-44.74
-38.18
-30.26
-21.29
-11.60
-1.76
7.34
14.68
19.46
21.48
21.37
20.38
19.94
21.12
24.22
28.79
33.94
38.76
42.72
45.74
48.01
49.74
50.97
51.56
51.36
50.30
48.51
46.16
43.41
40.27
36.67
32.54
27.92
22.97
17.86
12.72
7.53
2.21
-3.30
-8.93
-14.49
-19.68
-24.24
-28.10
-31.46
-34.78
-38.56
-43.16
-48.48
-53.84
-58.22
-60.66
-60.67
-58.42
-54.65
-50.41
-46.62
-43.77
-41.76
-40.10
-38.34
-36.33
-34.44
-33.44
-34.17
-37.24
-42.62
-49.43
-56.22
-61.39
-63.40
-60.99
-53.58
-41.84
-28.17
-16.38
-9.93
-10.72
-17.57
-25.85
-28.73
-19.97
2.99
37.29
75.41
109.05
131.00
137.09
126.88
103.35
71.77
38.15
8.15
-13.58
-22.26
-15.95
3.41
30.46
58.95
84.13
104.02
119.04
130.94
143.66
159.22
176.61
192.80
205.31
214.02
220.97
228.79
224.11
199.16
155.08
100.93
46.08
-4.44
-48.89
-86.50
-116.08
-135.74
-141.07
-129.54
-103.41
-70.23
-40.56
-23.57
-23.35
-37.09
-56.78
-71.38
-74.15
-66.06
-54.48
-47.97
-50.82
-61.11
-72.27
-78.07
-73.96
-59.85
-39.56
-18.29
0.21
15.06
26.34
34.61
38.68
36.33
25.49
6.54
-16.29
-35.80
-44.79
-39.70
-22.45
0.06
19.13
27.63
22.61
6.17
-15.66
-35.39
-46.76
-46.83
-36.79
-20.99
-5.04
6.42
11.10
9.01
1.51
-9.94
-24.17
-40.00
-55.40
-67.31
-72.46
-68.94
-57.41
-41.24
-25.17
-13.42
-8.32
-9.05
-13.18
-17.65
-20.03
-19.19
-15.19
-8.86
-1.25
6.73
14.40
20.95
25.45
26.90
24.46
17.97
8.24
-3.01
-13.47
-20.91
-23.88
-22.12
-16.58
-8.93
-1.01
5.86
11.14
14.95
17.68
19.58
20.52
20.24
18.61
15.97
13.09
10.87
9.95
10.46
11.96
13.75
15.25
16.19
16.60
16.59
16.18
15.15
13.09
9.67
4.74
-1.39
-8.09
-14.56
-20.12
-24.42
-27.67
-30.55
-33.26
-36.14
-39.30
-42.50
-45.35
-47.19
-47.50
-46.15
-43.44
-39.90
-36.14
-32.38
-28.58
-24.55
-19.73
-13.80
-7.17
-0.98
3.42
5.16
4.29
1.78
-1.25
-3.04
-2.34
0.88
5.39
9.42
11.56
11.34
9.37
6.56
5.17
7.78
16.41
31.71
52.79
77.27
101.48
121.36
127.51
114.21
84.12
48.61
21.09
9.54
13.88
27.99
45.91
61.04
70.11
72.56
69.25
61.00
48.36
32.34
12.75
-7.19
-23.99
-34.97
-40.26
-42.91
-47.44
-57.15
-71.73
-86.83
-95.80
-92.43
-75.13
-49.58
-25.74
-11.30
-7.77
-11.53
-17.53
-22.15
-25.00
-27.49
-30.52
-32.84
-31.65
-24.44
-10.80
7.08
25.55
40.76
50.22
54.09
54.62
54.68
56.02
58.40
60.20
59.77
57.22
52.13
45.39
38.27
31.73
25.97
20.73
15.75
11.13
7.09
3.42
-0.07
-3.79
-7.98
-12.71
-17.77
-22.79
-27.20
-30.42
-32.10
-31.80
-29.54
-25.79
-21.45
-17.54
-14.80
-13.51
-12.86
-12.42
-11.86
-11.24
-10.99
-11.56
-13.16
-15.53
-18.01
-19.82
-20.45
-19.62
-17.50
-14.59
-11.59
-9.20
-8.02
-8.35
-10.23
-13.50
-17.78
-22.52
-27.06
-30.57
-32.22
-31.33
-27.63
-21.47
-13.71
-5.53
1.98
8.04
12.30
14.81
15.83
15.73
14.91
13.74
12.62
11.86
11.62
11.87
12.37
12.81
12.94
12.61
11.82
10.71
9.42
8.03
6.47
4.59
2.21
-0.78
-4.35
-8.33
-12.53
-16.71
-20.64
-23.97
-26.27
-27.03
-25.95
-23.19
-19.49
-16.03
-14.03
-14.28
-16.79
-20.80
-25.12
-28.56
-30.38
-30.43
-29.19
-27.48
-26.15
-25.76
-26.44
-27.82
-29.16
-29.53
-28.13
-24.32
-17.87
-8.98
1.66
12.88
23.23
31.31
36.21
37.82
36.92
34.88
33.13
32.63
33.59
35.53
37.56
38.87
39.00
37.95
36.07
33.94
32.05
30.79
30.31
30.49
31.05
31.56
31.59
30.80
29.07
26.52
23.53
20.54
17.93
15.85
14.29
13.18
12.64
12.96
14.49
17.28
20.90
24.43
26.81
27.29
25.85
23.15
20.17
17.71
15.97
14.60
12.95
10.53
7.24
3.37
-0.65
-4.42
-7.77
-10.67
-13.19
-15.35
-17.17
-18.76
-20.33
-22.22
-24.71
-27.85
-31.29
-34.35
-36.13
-35.86
-33.13
-28.09
-21.32
-13.71
-6.19
0.49
5.85
9.67
12.00
13.06
13.16
12.61
11.70
10.58
9.40
8.28
7.32
6.64
6.31
6.37
6.88
7.89
9.50
11.77
14.62
17.71
20.53
22.52
23.26
22.63
20.88
18.55
16.24
14.47
13.45
13.04
12.79
12.20
10.89
8.79
6.14
3.36
0.82
-1.36
-3.36
-5.63
-8.65
-12.84
-18.28
-24.72
-31.57
-38.09
-43.63
-47.87
-51.07
-53.94
-57.48
-62.55
-69.57
-78.30
-87.80
-96.56
-102.68
-104.39
-100.56
-91.38
-78.59
-65.14
-54.15
-47.74
-46.09
-47.45
-48.96
-47.93
-42.82
-33.49
-20.88
-6.33
8.86
23.55
36.67
47.20
54.39
58.06
58.83
58.14
57.74
59.10
62.82
68.33
73.99
77.77
78.06
74.29
67.22
58.45
49.63
41.63
34.34
26.92
18.64
9.54
0.57
-6.86
-11.55
-13.04
-11.73
-8.51
-4.41
-0.22
3.47
6.21
7.59
7.42
5.83
3.31
0.61
-1.68
-3.35
-4.71
-6.31
-8.65
-11.80
-15.38
-18.73
-21.23
-22.54
-22.66
-21.79
-20.07
-17.48
-13.81
-8.99
-3.26
2.79
8.37
12.82
15.93
17.93
19.32
20.53
21.73
22.84
23.65
24.02
23.91
23.33
22.28
20.77
18.96
17.11
15.59
14.60
13.99
13.20
11.56
8.60
4.37
-0.46
-4.93
-8.16
-9.81
-10.06
-9.56
-8.98
-8.81
-9.30
-10.55
-12.70
-15.85
-19.93
-24.53
-28.91
-32.27
-34.03
-34.06
-32.56
-29.83
-26.01
-21.21
-15.79
-10.71
-7.52
-7.75
-12.19
-20.26
-29.97
-38.53
-43.30
-42.52
-35.75
-23.63
-7.64
10.30
28.09
43.69
55.48
62.53
64.87
63.39
59.48
54.61
49.91
46.05
43.30
41.67
41.06
41.23
41.88
42.54
42.77
42.17
40.63
38.36
35.89
33.86
32.71
32.43
32.35
31.41
28.51
23.11
15.51
6.87
-1.25
-7.56
-11.44
-13.18
-13.68
-13.93
-14.63
-16.03
-18.01
-20.40
-23.09
-26.00
-29.01
-31.89
-34.36
-36.30
-37.83
-39.17
-40.43
-41.47
-41.86
-41.14
-39.08
-35.73
-31.37
-26.24
-20.46
-14.09
-7.38
-0.88
4.63
8.41
10.04
9.58
7.63
5.07
2.83
1.66
1.98
3.74
6.47
9.42
11.82
13.18
13.41
12.77
11.61
10.17
8.52
6.64
4.59
2.54
0.69
-0.88
-2.26
-3.65
-5.19
-6.87
-8.48
-9.79
-10.71
-11.33
-11.90
-12.68
-13.82
-15.28
-16.85
-18.35
-19.62
-20.73
-21.93
-23.52
-25.79
-28.73
-31.95
-34.70
-36.09
-35.41
-32.41
-27.43
-21.23
-14.78
-8.87
-3.90
0.08
3.22
5.74
7.73
9.20
10.16
10.69
10.94
11.03
11.03
10.91
10.60
10.12
9.55
9.00
8.54
8.13
7.69
7.13
6.42
5.63
4.80
3.93
2.97
1.90
0.78
-0.22
-0.93
-1.26
-1.37
-1.57
-2.25
-3.71
-5.97
-8.81
-11.80
-14.44
-16.29
-17.08
-16.86
-16.02
-15.18
-15.02
-16.02
-18.20
-21.12
-24.00
-25.97
-26.30
-24.60
-20.82
-15.19
-8.20
-0.50
7.14
13.98
19.46
23.33
25.70
26.86
27.24
27.11
26.62
25.73
24.32
22.39
20.11
17.90
16.24
15.49
15.65
16.34
16.97
17.02
16.38
15.30
14.26
13.50
12.96
12.14
10.57
7.98
4.53
0.67
-3.10
-6.46
-9.35
-11.86
-14.09
-15.98
-17.43
-18.34
-18.78
-18.94
-19.18
-19.87
-21.25
-23.36
-25.94
-28.45
-30.23
-30.70
-29.57
-26.97
-23.38
-19.36
-15.39
-11.64
-8.07
-4.65
-1.44
1.27
3.10
3.80
3.43
2.41
1.34
0.79
1.20
2.67
5.08
8.13
11.37
14.34
16.60
17.94
18.43
18.50
18.65
19.24
20.25
21.22
21.44
20.34
17.72
13.94
9.64
5.52
2.06
-0.55
-2.34
-3.42
-3.90
-3.90
-3.65
-3.50
-3.88
-5.18
-7.58
-10.97
-14.92
-18.80
-21.91
-23.68
-23.82
-22.35
-19.59
-16.02
-12.07
-8.09
-4.26
-0.69
2.55
5.39
7.73
9.41
10.31
10.32
9.49
8.08
6.57
5.58
5.59
6.78
8.89
11.33
13.41
14.62
14.76
13.96
12.54
10.81
9.00
7.15
5.24
3.23
1.15
-0.89
-2.75
-4.32
-5.63
-6.86
-8.34
-10.39
-13.24
-16.96
-21.38
-26.15
-30.71
-34.38
-36.47
-36.46
-34.16
-29.83
-24.11
-17.77
-11.50
-5.74
-0.64
3.87
7.91
11.61
15.03
18.22
21.11
23.51
25.10
25.54
24.66
22.64
20.10
17.83
16.55
16.52
17.53
18.94
19.99
20.12
19.10
17.09
14.49
11.78
9.36
7.42
5.95
4.78
3.67
2.44
0.92
-0.93
-3.14
-5.68
-8.47
-11.34
-14.10
-16.66
-19.12
-21.78
-25.01
-28.89
-32.99
-36.36
-37.75
-36.09
-30.90
-22.55
-12.12
-1.15
8.90
16.97
22.61
26.02
27.80
28.76
29.71
31.30
33.85
37.19
40.71
43.34
43.98
41.86
36.97
30.13
22.70
16.11
11.25
8.32
6.94
6.52
6.59
6.92
7.43
7.96
8.27
8.03
7.04
5.27
2.89
0.18
-2.57
-5.14
-7.39
-9.31
-11.04
-12.89
-15.23
-18.37
-22.44
-27.28
-32.57
-37.95
-43.09
-47.62
-51.07
-52.84
-52.30
-48.98
-42.90
-34.55
-24.90
-15.08
-6.05
1.61
7.74
12.54
16.39
19.56
22.21
24.28
25.60
26.07
25.69
24.72
23.52
22.56
22.22
22.69
23.96
25.73
27.56
28.92
29.41
28.82
27.25
25.01
22.56
20.35
18.69
17.73
17.37
17.38
17.47
17.42
17.12
16.55
15.65
14.32
12.42
9.88
6.81
3.58
0.65
-1.63
-3.14
-4.06
-4.74
-5.52
-6.68
-8.40
-10.82
-13.92
-17.45
-20.76
-22.92
-23.05
-20.68
-16.17
-10.61
-5.49
-2.00
-0.64
-0.99
-2.02
-2.58
-1.89
0.14
3.03
5.97
8.28
9.68
10.36
10.80
11.48
12.64
14.14
15.62
16.68
17.10
16.89
16.27
15.46
14.56
13.51
12.19
10.58
8.76
6.92
5.24
3.77
2.44
1.03
-0.71
-2.91
-5.54
-8.42
-11.28
-13.87
-16.05
-17.78
-19.09
-20.05
-20.77
-21.49
-22.54
-24.36
-27.28
-31.39
-36.41
-41.67
-46.26
-49.25
-49.93
-47.95
-43.46
-37.01
-29.42
-21.54
-14.00
-7.20
-1.24
3.82
7.91
10.82
12.37
12.58
11.80
10.70
9.99
10.20
11.35
13.10
14.85
16.15
16.92
17.46
18.22
19.52
21.34
23.29
24.93
25.90
26.12
25.70
24.81
23.64
22.36
21.21
20.49
20.43
20.95
21.64
21.81
20.87
18.59
15.22
11.41
7.82
4.80
2.31
-0.03
-2.60
-5.64
-9.09
-12.68
-16.16
-19.44
-22.66
-26.12
-30.03
-34.34
-38.59
-42.03
-43.83
-43.40
-40.53
-35.46
-28.71
-20.99
-12.98
-5.28
1.65
7.47
11.93
14.90
16.31
16.29
15.08
13.18
11.20
9.75
9.23
9.64
10.63
11.62
12.12
11.97
11.34
10.56
9.88
9.26
8.46
7.21
5.44
3.36
1.37
-0.15
-1.06
-1.54
-1.96
-2.80
-4.40
-6.83
-9.93
-13.24
-16.26
-18.56
-19.98
-20.74
-21.35
-22.44
-24.44
-27.35
-30.71
-33.64
-35.17
-34.53
-31.40
-25.95
-18.80
-10.80
-2.68
5.01
12.04
18.38
23.95
28.58
31.98
33.81
33.93
32.51
30.08
27.35
25.01
23.55
23.09
23.47
24.34
25.34
26.19
26.72
26.84
26.44
25.45
23.79
21.53
18.89
16.22
13.88
12.05
10.66
9.38
7.75
5.33
1.94
-2.28
-6.88
-11.30
-15.02
-17.83
-19.91
-21.69
-23.79
-26.59
-30.13
-33.95
-37.27
-39.18
-39.03
-36.65
-32.31
-26.64
-20.31
-13.86
-7.58
-1.58
4.06
9.25
13.81
17.55
20.28
21.96
22.54
22.08
20.67
18.53
16.01
13.54
11.59
10.53
10.56
11.69
13.67
16.10
18.41
20.03
20.43
19.36
16.89
13.47
9.75
6.35
3.64
1.66
0.14
-1.29
-2.89
-4.74
-6.74
-8.74
-10.62
-12.33
-13.95
-15.62
-17.53
-19.89
-22.87
-26.48
-30.52
-34.48
-37.69
-39.43
-39.14
-36.51
-31.52
-24.42
-15.72
-6.16
3.32
11.73
18.13
21.89
22.88
21.51
18.73
15.77
13.85
13.79
15.74
19.09
22.76
25.54
26.61
25.82
23.67
21.02
18.64
16.98
16.06
15.55
15.03
14.12
12.56
10.22
7.17
3.63
0.02
-3.16
-5.48
-6.72
-6.97
-6.60
-6.14
-6.15
-7.04
-8.99
-11.94
-15.63
-19.77
-24.17
-28.73
-33.30
-37.60
-41.11
-43.10
-42.83
-39.83
-34.17
-26.52
-17.92
-9.39
-1.69
4.75
9.82
13.52
15.86
16.79
16.12
13.92
10.58
6.79
3.31
0.73
-0.73
-1.15
-0.88
-0.63
-0.80
-1.24
-1.49
-1.22
-0.47
0.41
0.91
0.57
-1.43
-5.22
-9.94
-14.37
-17.63
-19.55
-20.47
-20.97
-21.59
-23.68
-27.62
-32.54
-36.96
-40.03
-41.84
-43.07
-44.49
-46.56
-50.69
-57.08
-64.43
-70.89
-75.29
-77.23
-76.56
-72.90
-57.41
-28.33
7.55
39.96
62.73
74.99
78.95
77.69
74.12
70.18
65.54
60.05
54.64
50.82
49.19
49.03
48.51
45.64
39.00
27.52
12.43
-3.08
-15.53
-23.26
-26.82
-29.04
-31.83
-36.41
-43.18
-50.81
-56.67
-58.06
-53.42
-42.56
-26.73
-8.16
10.22
25.21
34.51
37.23
34.08
26.91
18.63
12.31
10.44
14.15
22.81
34.49
46.78
57.76
64.75
67.03
65.50
62.21
59.29
58.16
59.20
61.83
65.07
67.90
69.95
71.18
71.80
72.06
72.20
72.28
72.14
71.26
68.82
64.12
56.70
46.54
34.24
20.80
7.46
-4.82
-15.48
-24.45
-31.92
-38.24
-43.86
-49.19
-54.60
-60.37
-66.63
-73.34
-80.24
-86.90
-92.80
-97.43
-100.31
-101.12
-99.67
-95.95
-90.12
-82.46
-73.32
-63.13
-52.41
-41.74
-31.71
-22.83
-15.37
-9.36
-4.61
-0.81
2.37
5.14
7.60
9.83
11.89
13.85
15.81
17.80
19.87
21.96
23.99
25.81
27.23
28.03
28.04
27.14
25.32
22.74
19.64
16.36
13.17
10.24
7.58
5.05
2.44
-0.47
-3.81
-7.58
-11.59
-15.51
-18.85
-21.13
-21.92
-21.05
-18.56
-14.77
-10.11
-5.02
0.16
5.11
9.55
13.17
15.68
16.91
16.86
15.81
14.19
12.48
11.02
9.87
8.90
7.81
6.45
4.82
3.17
1.87
1.20
1.27
1.90
2.73
3.35
3.49
2.99
1.84
0.10
-2.18
-4.91
-7.92
-10.96
-13.71
-15.89
-17.46
-18.68
-20.03
-22.04
-24.89
-28.24
-31.26
-32.92
-32.36
-29.27
-23.90
-16.98
-9.39
-1.89
4.99
10.94
15.79
19.39
21.62
22.44
21.98
20.55
18.60
16.62
14.95
13.75
12.91
12.25
11.58
10.86
10.20
9.76
9.61
9.67
9.69
9.40
8.62
7.28
5.45
3.26
0.86
-1.59
-4.00
-6.35
-8.69
-11.16
-13.89
-16.91
-20.12
-23.32
-26.28
-28.83
-30.82
-31.97
-31.87
-30.05
-26.16
-20.22
-12.75
-4.59
3.37
10.45
16.29
20.75
23.80
25.41
25.59
24.48
22.44
20.00
17.68
15.88
14.78
14.28
14.16
14.18
14.20
14.21
14.31
14.55
14.90
15.19
15.19
14.65
13.45
11.63
9.31
6.69
3.94
1.21
-1.40
-3.76
-5.79
-7.45
-8.84
-10.18
-11.77
-13.93
-16.78
-20.16
-23.53
-26.07
-26.91
-25.42
-21.47
-15.53
-8.45
-1.26
5.21
10.51
14.58
17.56
19.64
20.90
21.36
21.00
19.89
18.24
16.32
14.41
12.72
11.38
10.42
9.78
9.40
9.18
9.03
8.87
8.65
8.31
7.81
7.08
6.03
4.63
2.95
1.12
-0.73
-2.50
-4.25
-6.06
-8.04
-10.18
-12.37
-14.43
-16.26
-17.95
-19.68
-21.70
-24.04
-26.40
-28.16
-28.56
-27.00
-23.30
-17.76
-11.07
-4.07
2.51
8.17
12.64
15.84
17.80
18.63
18.47
17.56
16.13
14.44
12.69
11.06
9.70
8.76
8.30
8.34
8.79
9.49
10.23
10.82
11.13
11.01
10.42
9.31
7.71
5.70
3.42
1.03
-1.32
-3.52
-5.53
-7.37
-9.17
-11.00
-12.96
-15.08
-17.32
-19.62
-21.89
-23.97
-25.57
-26.33
-25.84
-23.85
-20.30
-15.45
-9.79
-3.85
1.92
7.21
11.86
15.67
18.43
19.86
19.84
18.43
16.04
13.24
10.68
8.78
7.71
7.37
7.51
7.88
8.27
8.57
8.71
8.64
8.34
7.82
7.13
6.32
5.37
4.16
2.56
0.54
-1.83
-4.35
-6.73
-8.77
-10.41
-11.78
-13.12
-14.76
-16.93
-19.67
-22.68
-25.39
-27.03
-26.91
-24.65
-20.32
-14.44
-7.73
-0.95
5.35
10.83
15.33
18.75
21.03
22.10
22.03
21.03
19.41
17.56
15.75
14.17
12.91
11.99
11.41
11.18
11.28
11.62
12.14
12.71
13.20
13.45
13.28
12.54
11.14
9.14
6.76
4.29
1.98
-0.04
-1.85
-3.61
-5.53
-7.74
-10.28
-13.07
-15.97
-18.76
-21.11
-22.65
-23.02
-21.89
-19.11
-14.73
-9.04
-2.53
4.21
10.59
16.10
20.39
23.23
24.57
24.49
23.20
21.06
18.51
15.98
13.86
12.36
11.56
11.36
11.58
11.95
12.24
12.23
11.85
11.17
10.36
9.60
8.93
8.22
7.26
5.80
3.76
1.27
-1.36
-3.83
-5.94
-7.69
-9.24
-10.82
-12.66
-14.84
-17.33
-19.90
-22.22
-23.83
-24.31
-23.38
-20.92
-17.03
-11.98
-6.21
-0.24
5.37
10.17
13.85
16.29
17.57
17.84
17.25
15.96
14.11
11.94
9.75
7.90
6.61
5.99
5.92
6.16
6.43
6.51
6.23
5.58
4.63
3.51
2.37
1.27
0.20
-0.98
-2.42
-4.20
-6.25
-8.35
-10.23
-11.70
-12.85
-13.95
-15.42
-17.53
-20.22
-23.03
-25.21
-26.07
-25.15
-22.41
-18.21
-13.05
-7.47
-1.92
3.19
7.45
10.50
12.13
12.31
11.32
9.56
7.51
5.52
3.82
2.48
1.48
0.80
0.41
0.35
0.62
1.23
2.07
2.95
3.59
3.70
3.07
1.68
-0.34
-2.71
-5.14
-7.41
-9.41
-11.15
-12.66
-14.11
-15.69
-17.62
-20.02
-22.79
-25.50
-27.49
-27.98
-26.42
-22.65
-17.06
-10.42
-3.69
2.26
6.84
9.83
11.30
11.53
10.92
9.85
8.66
7.59
6.76
6.23
6.00
6.02
6.23
6.57
6.95
7.32
7.67
8.00
8.33
8.62
8.76
8.56
7.79
6.32
4.15
1.46
-1.49
-4.42
-7.21
-9.88
-12.61
-15.56
-18.85
-22.47
-26.19
-29.69
-32.53
-34.20
-34.27
-32.46
-28.72
-23.32
-16.74
-9.60
-2.47
4.17
9.95
14.58
17.83
19.58
19.92
19.15
17.79
16.42
15.50
15.26
15.61
16.27
16.89
17.23
17.20
16.87
16.34
15.65
14.80
13.74
12.42
10.83
8.99
6.91
4.50
1.71
-1.47
-4.92
-8.34
-11.31
-13.52
-14.85
-15.47
-15.79
-16.30
-17.37
-19.11
-21.33
-23.56
-25.19
-25.71
-24.74
-22.17
-18.13
-12.96
-7.08
-0.97
4.98
10.40
15.01
18.62
21.07
22.34
22.52
21.80
20.46
18.81
17.16
15.78
14.87
14.57
14.92
15.83
17.09
18.42
19.49
20.11
20.17
19.69
18.75
17.46
15.89
14.13
12.26
10.32
8.38
6.44
4.52
2.57
0.61
-1.36
-3.27
-5.05
-6.60
-7.91
-9.01
-10.04
-11.23
-12.81
-14.99
-17.76
-20.87
-23.88
-26.21
-27.35
-26.98
-25.02
-21.62
-17.12
-11.87
-6.20
-0.40
5.26
10.50
14.96
18.31
20.30
20.88
20.23
18.80
17.13
15.76
15.03
15.03
15.55
16.25
16.79
17.01
16.91
16.68
16.50
16.45
16.47
16.37
15.95
15.07
13.73
12.01
10.05
8.01
6.05
4.25
2.65
1.19
-0.28
-1.95
-3.97
-6.32
-8.81
-11.14
-12.99
-14.20
-14.83
-15.18
-15.69
-16.83
-18.94
-22.06
-25.80
-29.45
-32.07
-32.77
-31.06
-26.92
-20.85
-13.71
-6.39
0.37
6.17
10.88
14.53
17.19
18.88
19.65
19.59
18.91
17.88
16.86
16.06
15.64
15.62
15.95
16.63
17.61
18.80
20.04
21.11
21.78
22.04
21.95
21.70
21.40
20.95
20.10
18.48
15.78
11.90
7.02
1.51
-4.09
-9.22
-13.40
-16.36
-18.08
-18.79
-18.95
-19.10
-19.76
-21.27
-23.75
-27.04
-30.61
-33.69
-35.35
-34.82
-31.75
-26.40
-19.60
-12.50
-6.16
-1.26
2.14
4.49
6.46
8.69
11.46
14.65
17.78
20.27
21.63
21.61
20.30
18.07
15.46
13.06
11.32
10.46
10.43
10.91
11.39
11.38
10.56
8.90
6.67
4.37
2.45
1.23
0.72
0.72
0.89
0.87
0.45
-0.46
-1.79
-3.39
-5.13
-6.93
-8.83
-10.97
-13.48
-16.43
-19.69
-22.87
-25.37
-26.54
-25.87
-23.17
-18.69
-13.01
-6.91
-1.12
3.87
7.86
10.91
13.20
14.81
15.73
15.87
15.18
13.79
12.05
10.43
9.38
9.11
9.61
10.56
11.56
12.25
12.42
12.05
11.31
10.46
9.70
9.13
8.68
8.15
7.29
5.92
3.98
1.55
-1.23
-4.14
-6.97
-9.55
-11.75
-13.53
-15.02
-16.47
-18.27
-20.75
-24.04
-28.01
-32.19
-35.93
-38.55
-39.58
-38.78
-36.21
-32.11
-26.84
-20.81
-14.50
-8.44
-3.10
1.17
4.28
6.42
7.94
9.24
10.54
11.89
13.18
14.26
15.05
15.56
15.88
16.08
16.20
16.21
16.02
15.48
14.47
12.95
10.98
8.70
6.30
3.92
1.60
-0.74
-3.22
-5.91
-8.82
-11.85
-14.92
-17.95
-20.90
-23.62
-25.80
-26.97
-26.64
-24.53
-20.67
-15.45
-9.45
-3.27
2.64
7.98
12.56
16.21
18.77
20.12
20.35
19.70
18.56
17.36
16.40
15.75
15.36
15.07
14.73
14.29
13.79
13.32
12.93
12.56
12.01
11.06
9.49
7.29
4.58
1.66
-1.19
-3.73
-5.92
-7.85
-9.72
-11.80
-14.31
-17.35
-20.83
-24.38
-27.37
-29.08
-28.84
-26.32
-21.62
-15.27
-8.06
-0.85
5.61
10.86
14.65
16.99
18.06
18.16
17.66
16.92
16.20
15.63
15.16
14.62
13.87
12.88
11.78
10.87
10.40
10.45
10.83
11.17
11.02
10.12
8.39
5.97
3.11
0.05
-2.98
-5.82
-8.37
-10.59
-12.61
-14.62
-16.84
-19.35
-21.99
-24.31
-25.68
-25.52
-23.47
-19.50
-13.99
-7.58
-1.00
5.10
10.26
14.30
17.17
18.91
19.57
19.22
18.01
16.19
14.12
12.16
10.60
9.56
8.98
8.72
8.61
8.49
8.29
7.96
7.53
7.04
6.52
5.95
5.25
4.28
2.92
1.19
-0.76
-2.75
-4.62
-6.36
-8.11
-10.06
-12.31
-14.84
-17.45
-19.83
-21.68
-22.68
-22.63
-21.38
-18.89
-15.21
-10.52
-5.08
0.75
6.54
11.89
16.44
19.88
21.99
22.74
22.22
20.70
18.61
16.37
14.39
12.95
12.19
12.08
12.53
13.35
14.38
15.39
16.13
16.40
16.04
14.99
13.37
11.35
9.11
6.77
4.34
1.83
-0.79
-3.41
-5.91
-8.18
-10.21
-12.11
-14.12
-16.53
-19.48
-22.90
-26.48
-29.65
-31.79
-32.32
-30.93
-27.63
-22.76
-16.89
-10.68
-4.72
0.54
4.82
8.00
10.10
11.26
11.69
11.64
11.30
10.84
10.31
9.75
9.21
8.78
8.58
8.69
9.12
9.75
10.37
10.76
10.71
10.16
9.15
7.79
6.22
4.54
2.76
0.86
-1.18
-3.33
-5.54
-7.73
-9.96
-12.32
-14.94
-17.86
-20.93
-23.77
-25.85
-26.67
-25.91
-23.49
-19.62
-14.70
-9.23
-3.64
1.70
6.56
10.74
14.06
16.32
17.33
17.04
15.61
13.45
11.09
9.12
7.94
7.68
8.25
9.33
10.56
11.61
12.26
12.44
12.16
11.46
10.38
8.86
6.89
4.47
1.76
-1.01
-3.60
-5.86
-7.82
-9.64
-11.50
-13.55
-15.80
-18.22
-20.69
-23.06
-25.05
-26.28
-26.28
-24.67
-21.26
-16.20
-9.95
-3.18
3.38
9.12
13.64
16.84
18.84
19.90
20.34
20.36
20.05
19.40
18.36
16.96
15.32
13.62
12.07
10.81
9.90
9.35
9.08
8.97
8.87
8.56
7.85
6.56
4.61
2.05
-0.89
-3.89
-6.57
-8.65
-10.06
-10.95
-11.70
-12.71
-14.30
-16.51
-19.13
-21.70
-23.69
-24.63
-24.19
-22.26
-18.96
-14.59
-9.56
-4.30
0.79
5.38
9.21
12.10
13.96
14.76
14.55
13.51
11.86
9.92
8.01
6.41
5.32
4.76
4.64
4.77
4.96
5.10
5.14
5.09
4.91
4.49
3.68
2.36
0.50
-1.78
-4.25
-6.64
-8.71
-10.32
-11.50
-12.37
-13.14
-14.05
-15.33
-17.10
-19.26
-21.49
-23.22
-23.81
-22.78
-19.95
-15.52
-10.01
-4.10
1.63
6.72
10.86
13.86
15.65
16.26
15.89
14.87
13.65
12.58
11.85
11.43
11.16
10.85
10.38
9.82
9.29
8.92
8.77
8.81
8.92
8.99
8.87
8.45
7.65
6.38
4.63
2.43
-0.08
-2.75
-5.43
-8.03
-10.53
-12.95
-15.36
-17.82
-20.36
-22.91
-25.20
-26.84
-27.33
-26.29
-23.58
-19.45
-14.36
-8.92
-3.58
1.35
5.80
9.75
13.11
15.78
17.57
18.39
18.21
17.18
15.56
13.74
12.13
11.08
10.75
11.02
11.56
11.95
11.83
11.08
9.84
8.39
7.02
5.89
4.98
4.12
3.11
1.82
0.23
-1.59
-3.49
-5.39
-7.23
-9.04
-10.80
-12.51
-14.11
-15.57
-16.90
-18.10
-19.08
-19.59
-19.27
-17.68
-14.57
-9.98
-4.33
1.75
7.57
12.56
16.42
19.05
20.51
20.93
20.42
19.12
17.18
14.81
12.22
9.61
7.15
4.96
3.12
1.68
0.67
0.09
-0.11
-0.05
0.12
0.21
0.07
-0.38
-1.18
-2.29
-3.61
-5.03
-6.38
-7.52
-8.42
-9.16
-9.89
-10.79
-12.01
-13.54
-15.28
-17.02
-18.55
-19.71
-20.36
-20.35
-19.48
-17.55
-14.52
-10.53
-5.96
-1.39
2.57
5.43
7.00
7.32
6.54
4.87
2.72
0.66
-0.78
-1.35
-1.13
-0.49
0.05
0.03
-0.76
-1.86
-2.40
-1.72
0.07
2.18
3.60
3.57
1.89
-1.09
-4.09
-5.63
-4.96
-2.65
-0.18
0.97
0.06
-2.68
-6.25
-8.60
-7.41
-1.01
11.09
28.42
49.93
73.94
97.85
113.98
114.53
96.66
65.68
31.70
3.27
-15.75
-25.98
-30.47
-32.49
-33.36
-32.64
-29.51
-24.22
-18.28
-13.50
-11.07
-11.13
-12.98
-14.86
-14.97
-12.41
-7.73
-2.43
1.96
4.56
5.32
4.85
4.35
4.99
7.33
10.98
14.89
17.98
19.62
19.70
18.53
16.81
15.16
13.88
12.80
11.25
8.80
5.28
0.93
-3.78
-8.16
-11.77
-14.39
-16.19
-17.66
-19.32
-21.43
-23.88
-26.32
-28.24
-29.47
-30.00
-30.10
-30.42
-31.52
-33.69
-36.73
-40.07
-43.00
-45.28
-46.77
-47.68
-48.61
-50.28
-53.30
-58.10
-64.75
-72.72
-80.99
-87.32
-89.14
-85.08
-75.29
-61.50
-46.61
-33.64
-22.31
-13.67
-7.50
-2.77
0.87
3.48
5.12
5.70
5.47
5.01
4.55
4.45
4.39
2.04
-4.98
-17.73
-36.24
-59.14
-83.88
-107.53
-126.46
-137.60
-140.73
-136.65
-126.58
-112.72
-97.47
-82.70
-72.89
-72.27
-74.40
-74.91
-73.98
-70.79
-64.94
-56.21
-44.21
-28.29
-7.29
19.64
50.99
86.51
125.14
163.59
197.57
223.85
241.32
251.10
255.33
254.79
253.32
253.57
255.20
256.10
254.65
250.68
244.96
238.26
230.12
224.65
224.72
229.97
237.79
246.00
253.92
261.78
269.69
250.81
194.53
110.89
22.06
-55.25
-115.81
-161.50
-196.04
-221.18
-241.32
-254.10
-257.83
-253.83
-245.95
-237.69
-230.87
-225.21
-220.23
-215.90
-208.56
-196.26
-179.42
-160.33
-140.97
-122.37
-104.95
-88.64
-73.69
-58.16
-41.62
-24.67
-8.97
4.17
14.14
21.04
26.29
31.10
37.32
44.82
53.63
63.17
72.88
81.80
88.97
95.23
101.26
107.74
113.46
119.11
125.77
134.74
146.32
159.82
176.02
194.44
213.03
227.05
235.36
239.34
242.77
249.30
247.45
231.61
203.34
180.66
162.72
147.16
128.84
108.51
87.89
67.54
49.22
33.49
19.66
4.53
-12.14
-29.55
-46.41
-62.76
-81.18
-102.47
-126.58
-153.16
-183.76
-217.62
-252.17
-282.67
-303.97
-314.73
-313.61
-299.94
-275.09
-244.80
-215.76
-193.72
-181.49
-178.88
-187.87
-205.84
-224.16
-231.55
-220.81
-191.16
-148.44
-102.80
-65.76
-53.61
-75.99
-131.08
-207.80
-293.11
-375.31
-444.42
-492.43
-474.66
-375.63
-224.47
-73.34
42.61
115.44
153.65
170.57
177.54
182.14
180.94
170.17
151.47
132.47
119.72
115.67
119.47
128.69
141.70
152.46
157.65
159.27
164.13
176.53
195.06
214.02
218.81
204.74
172.68
134.99
99.11
73.59
63.91
71.30
94.33
131.10
176.73
223.89
263.92
288.21
291.97
274.17
238.09
191.27
143.38
104.00
78.24
65.52
60.32
56.21
47.43
30.98
7.73
-18.10
-40.15
-52.81
-53.33
-42.73
-24.29
-3.30
14.20
22.46
17.16
-3.29
-37.34
-80.26
-124.85
-162.30
-184.56
-186.43
-166.93
-129.49
-80.75
-28.85
18.35
54.73
76.80
83.59
76.28
57.77
31.97
3.05
-25.45
-51.34
-73.94
-93.60
-110.88
-126.04
-138.90
-149.24
-157.23
-163.47
-168.57
-172.51
-174.24
-171.80
-163.13
-147.04
-124.15
-97.09
-69.94
-46.98
-31.25
-23.28
-20.85
-19.80
-15.87
-6.61
7.53
23.44
37.05
44.93
46.02
41.72
34.79
27.80
22.13
18.07
15.44
14.49
15.74
19.73
26.26
33.90
40.22
42.74
40.16
32.97
23.38
13.99
7.24
4.65
6.39
11.10
16.44
20.03
20.18
16.59
9.38
0.04
-8.68
-13.93
-14.21
-9.77
-1.85
7.97
18.87
28.81
37.26
45.89
57.10
71.63
87.68
101.84
110.04
109.48
95.94
68.52
31.22
-9.06
-46.33
-77.20
-100.25
-116.09
-125.91
-136.04
-151.93
-175.14
-204.13
-236.76
-270.78
-302.60
-328.18
-315.35
-249.07
-142.90
-28.42
68.70
137.09
173.48
184.87
176.15
152.47
115.58
69.32
23.30
-11.52
-28.72
-28.60
-15.97
1.84
18.92
28.89
29.98
25.97
22.96
25.56
35.17
51.17
71.33
93.52
110.84
117.83
114.59
105.16
93.51
81.19
68.24
53.98
38.11
20.41
2.15
-14.14
-26.20
-32.80
-34.63
-34.09
-32.40
-30.14
-27.19
-22.36
-14.36
-2.93
11.07
25.08
36.44
43.53
44.87
42.24
39.34
38.99
41.51
46.82
52.28
56.24
59.07
62.50
68.74
79.00
92.41
102.09
104.39
98.34
85.45
67.80
46.39
21.30
-7.24
-38.12
-68.45
-93.55
-109.94
-116.45
-114.60
-107.45
-99.64
-91.82
-83.87
-75.23
-64.79
-52.42
-38.80
-25.17
-12.74
-2.18
6.70
14.52
21.98
30.16
39.37
48.27
54.12
54.05
47.90
36.92
24.46
15.00
12.66
18.97
32.10
47.74
61.18
69.07
70.22
63.74
50.19
31.38
9.93
-11.02
-27.95
-37.75
-39.37
-35.28
-28.93
-26.52
-32.90
-47.01
-61.57
-67.29
-58.22
-34.82
-3.57
26.36
46.58
52.57
44.73
26.24
2.56
-19.30
-32.83
-34.34
-24.36
-7.69
9.03
20.15
23.50
19.74
12.81
8.02
9.52
18.80
34.09
51.39
65.83
73.00
69.95
55.93
32.27
1.77
-31.93
-65.73
-97.60
-126.57
-152.08
-173.39
-189.17
-197.71
-197.32
-186.55
-165.37
-135.65
-100.88
-65.12
-31.90
-3.69
18.27
33.88
44.61
52.53
59.40
66.33
73.46
79.92
84.00
83.89
75.37
58.21
37.22
18.41
3.89
-8.42
-20.72
-31.67
-35.67
-25.90
1.98
46.10
98.30
147.66
185.07
205.76
208.98
196.26
169.92
133.35
91.09
48.68
11.88
-14.77
-29.60
-34.16
-32.18
-27.50
-22.38
-17.62
-13.49
-10.41
-9.02
-9.59
-11.83
-14.86
-17.74
-19.80
-21.15
-22.47
-24.51
-27.36
-30.34
-32.29
-32.34
-30.36
-26.97
-23.20
-19.90
-17.43
-15.76
-14.73
-14.37
-15.11
-17.49
-21.73
-27.33
-33.08
-37.45
-39.30
-38.14
-34.35
-28.88
-22.74
-16.70
-10.97
-5.51
-0.14
4.97
9.58
13.43
16.45
18.80
20.82
22.68
24.30
26.55
29.65
33.86
39.39
46.22
53.79
60.95
66.17
68.11
66.30
61.31
54.85
49.23
46.62
48.55
55.44
66.49
79.62
91.68
98.92
98.29
88.65
71.60
51.15
32.18
18.36
10.51
6.50
2.61
-4.11
-14.23
-25.78
-35.57
-41.01
-41.48
-38.40
-34.19
-30.98
-29.51
-29.16
-28.63
-26.91
-23.74
-19.66
-15.44
-11.60
-8.07
-4.30
0.35
6.17
12.79
19.23
24.13
26.27
25.06
20.78
14.58
7.93
2.03
-2.73
-6.82
-11.19
-16.60
-23.01
-29.59
-35.04
-38.36
-39.32
-38.58
-37.15
-35.92
-35.24
-34.97
-34.88
-34.87
-35.03
-35.41
-35.81
-35.79
-34.90
-33.01
-30.49
-28.16
-26.93
-27.37
-29.44
-32.46
-35.34
-37.01
-36.74
-34.42
-30.52
-25.91
-21.55
-18.08
-15.73
-14.27
-13.31
-12.53
-11.85
-11.45
-11.53
-12.18
-13.26
-14.51
-15.66
-16.56
-17.22
-17.75
-18.29
-18.95
-19.75
-20.67
-21.58
-22.33
-22.79
-22.91
-22.67
-22.11
-21.22
-19.89
-18.09
-15.89
-13.60
-11.67
-10.46
-10.07
-10.25
-10.52
-10.44
-9.82
-8.78
-7.66
-6.80
-6.44
-6.57
-7.04
-7.59
-7.90
-7.70
-6.76
-5.03
-2.63
0.12
2.86
5.31
7.38
9.19
10.98
12.92
15.01
17.11
19.08
20.89
22.63
24.40
26.20
27.80
28.84
29.02
28.25
26.77
25.00
23.38
22.16
21.36
20.82
20.36
19.85
19.24
18.57
17.87
17.16
16.43
15.66
14.78
13.76
12.60
11.32
9.98
8.67
7.42
6.23
5.07
3.87
2.58
1.15
-0.42
-2.05
-3.59
-4.76
-5.31
-5.10
-4.27
-3.22
-2.51
-2.70
-4.03
-6.37
-9.15
-11.56
-12.78
-12.30
-10.13
-6.80
-3.16
-0.10
1.85
2.58
2.43
1.91
1.49
1.42
1.70
2.23
2.87
3.54
4.18
4.76
5.18
5.35
5.20
4.73
3.97
2.94
1.63
-0.01
-1.99
-4.24
-6.51
-8.42
-9.58
-9.79
-9.07
-7.74
-6.21
-4.97
-4.31
-4.35
-4.96
-5.81
-6.45
-6.42
-5.44
-3.57
-1.20
0.99
2.35
2.39
1.04
-1.43
-4.51
-7.67
-10.46
-12.60
-14.01
-14.70
-14.86
-14.70
-14.44
-14.21
-14.04
-13.88
-13.75
-13.81
-14.37
-15.64
-17.47
-19.08
-19.22
-16.59
-10.52
-1.37
9.40
19.77
27.95
33.08
35.55
36.64
37.93
40.65
45.33
51.74
59.01
65.63
69.59
68.61
60.66
44.83
21.95
-5.35
-33.19
-57.66
-75.96
-87.08
-91.66
-91.34
-87.82
-82.34
-75.65
-68.18
-60.45
-53.12
-46.86
-42.07
-38.69
-36.11
-33.54
-30.42
-26.80
-23.34
-21.06
-20.67
-22.19
-24.93
-27.85
-30.22
-32.02
-33.85
-36.40
-39.85
-43.67
-46.73
-47.89
-46.60
-43.03
-37.89
-32.01
-26.09
-20.65
-16.08
-12.72
-10.74
-9.92
-9.52
-8.45
-5.64
-0.57
6.62
15.20
24.15
32.61
40.08
46.33
51.28
54.89
57.10
57.84
57.09
54.90
51.44
47.00
41.96
36.63
31.26
25.97
20.78
15.69
10.67
5.89
1.57
-2.23
-5.67
-9.12
-12.80
-16.85
-21.24
-26.19
-31.69
-37.52
-43.35
-48.75
-53.29
-56.56
-58.53
-59.61
-61.12
-63.89
-67.94
-72.88
-78.18
-83.32
-87.71
-90.96
-93.02
-95.04
-97.74
-101.54
-107.07
-115.02
-125.29
-135.75
-142.82
-142.48
-132.84
-113.20
-84.71
-50.60
-15.42
16.67
44.04
66.58
91.91
118.86
141.18
153.65
155.45
148.71
136.18
121.78
108.60
98.67
91.82
87.94
87.14
88.94
92.65
97.39
104.42
115.03
130.28
149.85
173.61
202.22
236.50
276.81
311.64
333.47
336.87
319.79
283.90
235.46
184.24
139.95
108.62
90.90
84.36
84.37
87.63
92.32
97.61
103.38
108.98
112.85
113.08
109.48
102.25
91.33
80.26
70.34
61.74
53.64
44.65
33.43
20.10
5.48
-9.14
-22.37
-33.84
-43.65
-52.50
-61.47
-71.67
-83.42
-96.68
-111.13
-126.37
-142.55
-159.50
-176.59
-192.54
-205.55
-213.66
-215.57
-211.13
-201.41
-188.52
-174.46
-160.46
-146.80
-133.04
-118.70
-103.71
-88.67
-74.39
-61.59
-50.16
-39.28
-27.78
-14.84
-0.42
14.87
30.20
45.00
59.04
72.25
84.21
94.16
101.17
104.77
105.28
103.83
101.87
100.53
100.12
100.14
99.48
96.94
91.61
83.09
71.61
57.99
43.41
29.25
16.69
6.48
-1.31
-7.18
-12.05
-16.96
-22.69
-29.62
-37.54
-45.86
-53.82
-60.83
-66.65
-71.37
-75.27
-78.59
-81.47
-83.96
-86.19
-88.34
-90.56
-92.90
-95.13
-96.88
-97.86
-97.91
-97.23
-96.26
-95.47
-95.21
-95.53
-96.18
-96.66
-96.42
-95.04
-92.43
-88.78
-84.47
-79.88
-75.17
-70.36
-65.39
-60.32
-55.39
-50.88
-46.99
-43.57
-40.18
-36.26
-31.46
-25.80
-19.74
-14.04
-9.47
-6.55
-5.43
-5.87
-7.38
-9.43
-11.59
-13.64
-15.42
-16.73
-17.38
-17.21
-16.30
-15.06
-14.12
-14.03
-14.90
-16.31
-17.44
-17.40
-15.75
-12.76
-9.34
-6.67
-5.84
-7.43
-11.36
-16.77
-22.25
-25.96
-26.22
-21.95
-13.19
-1.09
12.26
24.56
33.99
39.59
41.43
40.27
37.22
33.48
30.18
28.38
28.97
32.39
38.46
46.31
54.50
61.49
66.07
67.65
66.31
62.72
57.77
52.43
47.51
43.57
40.89
39.45
38.93
38.82
38.61
37.88
36.56
34.83
33.08
31.69
30.80
30.17
29.16
27.00
23.07
17.25
10.01
2.28
-4.78
-10.26
-13.65
-14.97
-14.65
-13.35
-11.75
-10.46
-9.88
-10.17
-11.21
-12.65
-14.00
-14.84
-14.88
-14.12
-12.73
-11.00
-9.21
-7.66
-6.58
-6.09
-6.15
-6.56
-6.97
-7.07
-6.68
-5.88
-4.94
-4.17
-3.63
-3.48
-3.57
-3.51
-2.98
-2.01
-0.91
-0.03
0.52
0.82
0.81
0.53
0.15
-0.13
-0.24
-0.21
-0.11
-0.01
0.02
-0.82
-2.90
-5.84
-8.74
-10.86
-11.85
-11.73
-10.77
-9.40
-10.03
-14.03
-20.60
-27.48
-32.72
-35.32
-35.08
-32.36
-27.86
-26.41
-30.98
-40.35
-50.67
-58.97
-64.14
-66.30
-65.96
-63.67
-66.23
-77.47
-94.87
-112.25
-125.18
-132.54
-135.25
-134.86
-132.92
-139.04
-158.94
-190.22
-225.72
-260.53
-293.78
-326.84
-361.41
-346.33
-261.99
-134.60
-10.51
83.66
145.61
183.55
206.62
221.76
233.24
235.19
224.18
204.12
183.19
167.08
157.30
153.00
152.93
156.06
155.33
146.58
131.80
116.45
104.35
96.34
91.70
89.45
88.85
85.44
76.66
63.91
50.78
39.86
31.84
26.27
22.52
20.02
16.31
9.94
1.52
-7.17
-14.50
-19.62
-22.27
-22.58
-21.08
-19.17
-18.19
-17.51
-15.95
-12.23
-5.74
3.24
13.57
23.66
31.99
37.54
40.06
39.88
37.46
33.45
28.37
22.84
17.67
13.85
12.06
12.02
12.00
9.42
1.94
-11.16
-28.05
-44.74
-56.78
-61.37
-58.67
-51.76
-44.54
-40.26
-40.12
-43.41
-48.52
-54.23
-60.31
-67.22
-75.46
-84.37
-92.78
-99.40
-103.41
-104.50
-103.03
-99.28
-92.86
-85.65
-77.83
-69.30
-59.95
-49.93
-39.49
-28.91
-18.21
-7.25
4.18
16.60
30.12
44.55
59.46
74.37
88.88
102.81
116.26
129.68
144.25
161.17
181.11
203.48
226.06
245.28
257.30
259.35
250.84
233.79
211.73
188.36
166.31
146.70
129.47
114.10
100.37
88.35
78.26
69.88
62.46
54.99
46.71
37.46
27.75
18.51
10.59
4.42
-0.20
-3.92
-7.56
-11.66
-16.33
-21.21
-25.64
-29.06
-31.22
-32.21
-32.43
-32.29
-32.09
-31.91
-31.66
-31.25
-30.66
-29.97
-29.31
-28.78
-28.34
-27.91
-27.35
-26.58
-25.63
-24.65
-23.83
-23.37
-23.30
-23.50
-23.72
-23.72
-23.37
-22.79
-22.25
-22.00
-22.12
-22.45
-22.62
-22.27
-21.22
-19.51
-17.40
-15.23
-13.24
-11.56
-10.24
-9.30
-8.74
-8.59
-8.80
-9.29
-9.85
-10.27
-10.35
-10.00
-9.23
-8.18
-7.02
-5.90
-4.90
-3.96
-3.01
-2.04
-1.07
-0.27
0.15
0.04
-0.64
-1.73
-2.99
-4.11
-4.93
-5.41
-5.67
-5.85
-6.08
-6.39
-6.71
-6.98
-7.19
-7.39
-7.63
-7.91
-8.21
-8.50
-8.80
-9.14
-9.54
-9.96
-10.24
-10.15
-9.50
-8.15
-6.13
-3.60
-0.85
1.74
3.85
5.22
5.82
5.81
5.48
5.10
4.82
4.66
4.48
4.19
3.75
3.24
2.83
2.65
2.75
3.07
3.44
3.67
3.69
3.50
3.25
3.13
3.27
3.68
4.23
4.74
5.06
5.13
4.96
4.65
4.28
3.87
3.38
2.78
2.05
1.20
0.24
-0.86
-2.15
-3.69
-5.45
-7.32
-9.15
-10.85
-12.38
-13.87
-15.47
-17.28
-19.27
-21.26
-22.97
-24.15
-24.59
-24.24
-23.18
-21.55
-19.64
-17.69
-15.96
-14.60
-13.74
-13.40
-13.52
-13.99
-14.58
-14.99
-14.90
-14.11
-12.55
-10.38
-7.91
-5.50
-3.43
-1.79
-0.52
0.52
1.41
2.19
2.76
3.04
2.95
2.51
1.88
1.18
0.59
0.16
-0.13
-0.36
-0.59
-0.82
-0.96
-0.76
-0.01
1.44
3.53
6.01
8.55
10.89
12.93
14.68
16.22
17.55
18.60
19.30
19.68
19.86
20.04
20.37
20.79
21.15
21.23
20.91
20.19
19.20
18.10
17.04
16.11
15.30
14.54
13.71
12.65
11.30
9.66
7.93
6.35
5.14
4.38
4.00
3.87
3.82
3.81
3.83
3.86
3.81
3.55
2.95
1.97
0.70
-0.71
-2.11
-3.43
-4.74
-6.14
-7.75
-9.60
-11.63
-13.74
-15.79
-17.72
-19.52
-21.21
-22.79
-24.20
-25.33
-26.02
-26.15
-25.72
-24.82
-23.66
-22.48
-21.44
-20.58
-19.84
-19.11
-18.30
-17.38
-16.31
-15.08
-13.64
-11.96
-10.10
-8.22
-6.58
-5.47
-5.05
-5.36
-6.23
-7.34
-8.33
-8.84
-8.63
-7.67
-6.13
-4.38
-2.80
-1.68
-1.08
-0.84
-0.68
-0.43
-0.13
0.09
0.04
-0.33
-0.85
-1.27
-1.40
-1.23
-0.84
-0.39
0.04
0.53
1.16
1.98
2.88
3.66
4.10
4.11
3.73
3.16
2.57
2.07
1.68
1.34
1.02
0.69
0.39
0.16
-0.01
-0.16
-0.35
-0.66
-1.16
-1.84
-2.61
-3.37
-3.98
-4.36
-4.49
-4.49
-4.53
-4.77
-5.25
-5.87
-6.45
-6.79
-6.77
-6.38
-5.64
-4.55
-3.14
-1.42
0.56
2.59
4.46
5.97
7.07
7.84
8.41
8.93
9.40
9.77
9.91
9.78
9.45
8.99
8.56
8.22
8.04
8.01
8.15
8.41
8.75
9.02
8.99
8.42
7.13
5.13
2.62
-0.09
-2.71
-4.99
-6.85
-8.25
-9.16
-9.55
-9.39
-8.75
-7.77
-6.65
-5.58
-4.67
-3.98
-3.51
-3.26
-3.23
-3.38
-3.68
-3.99
-4.18
-4.10
-3.63
-2.64
-1.06
1.16
3.88
6.82
9.63
12.01
13.80
15.05
15.96
16.70
17.39
18.06
18.67
19.21
19.64
19.92
19.86
19.28
17.94
15.75
12.77
9.22
5.44
1.75
-1.57
-4.29
-6.26
-7.48
-8.03
-8.11
-7.99
-7.93
-8.06
-8.44
-8.97
-9.54
-10.03
-10.39
-10.63
-10.82
-11.09
-11.50
-12.05
-12.63
-13.07
-13.22
-13.05
-12.69
-12.37
-12.36
-12.87
-13.93
-15.40
-16.98
-18.29
-18.97
-18.73
-17.42
-15.04
-11.74
-7.85
-3.75
0.15
3.55
6.35
8.65
10.65
12.52
14.29
15.85
17.04
17.71
17.81
17.41
16.61
15.47
14.06
12.49
10.94
9.62
8.70
8.17
7.85
7.49
6.84
5.82
4.52
3.14
1.87
0.81
-0.06
-0.77
-1.32
-1.66
-1.72
-1.53
-1.23
-1.05
-1.18
-1.70
-2.52
-3.42
-4.19
-4.74
-5.12
-5.52
-6.12
-6.97
-7.99
-8.88
-9.30
-8.98
-7.79
-5.88
-3.57
-1.21
0.91
2.73
4.37
6.04
7.90
9.96
12.07
14.01
15.67
17.03
18.24
19.44
20.71
22.02
23.22
24.19
24.88
25.38
25.84
26.40
27.13
27.95
28.70
29.19
29.21
28.65
27.45
25.70
23.60
21.42
19.30
17.24
14.99
12.17
8.43
3.61
-2.13
-8.41
-14.62
-20.24
-24.85
-28.21
-30.30
-31.17
-31.00
-30.06
-28.71
-27.29
-26.13
-25.37
-24.95
-24.68
-24.28
-23.51
-22.23
-20.45
-18.27
-15.85
-13.35
-10.95
-8.87
-7.26
-6.24
-5.74
-5.62
-5.67
-5.72
-5.68
-5.59
-5.52
-5.47
-5.37
-5.12
-4.59
-3.80
-2.87
-2.02
-1.46
-1.35
-1.63
-2.15
-2.67
-2.95
-2.88
-2.52
-2.05
-1.70
-1.64
-1.84
-2.13
-2.33
-2.30
-2.04
-1.73
-1.55
-1.62
-1.92
-2.37
-2.84
-3.31
-3.83
-4.52
-5.43
-6.48
-7.48
-8.21
-8.52
-8.44
-8.09
-7.69
-7.34
-7.05
-6.70
-6.18
-5.40
-4.38
-3.22
-2.11
-1.21
-0.65
-0.52
-0.78
-1.28
-1.83
-2.22
-2.36
-2.33
-2.34
-2.66
-3.44
-4.70
-6.29
-7.99
-9.57
-10.87
-11.85
-12.53
-13.04
-13.57
-14.33
-15.49
-17.11
-19.13
-21.31
-23.33
-24.95
-26.02
-26.58
-26.78
-26.86
-26.94
-26.98
-26.63
-25.27
-22.14
-16.63
-8.66
1.11
11.41
20.68
27.68
31.85
33.42
33.11
31.69
29.59
26.93
23.63
19.76
15.66
11.87
8.93
7.05
6.17
5.92
5.91
5.87
5.69
5.45
5.26
5.28
5.54
6.02
6.66
7.36
7.97
8.41
8.63
8.62
8.40
8.04
7.57
7.04
6.46
5.87
5.32
4.90
4.65
4.57
4.58
4.59
4.51
4.32
4.06
3.80
3.60
3.48
3.42
3.39
3.40
3.48
3.68
4.03
4.57
5.29
6.15
7.12
8.10
8.99
9.64
9.96
9.83
9.15
7.85
5.91
3.41
0.56
-2.29
-4.74
-6.51
-7.50
-7.86
-7.82
-7.61
-7.25
-6.65
-5.70
-4.38
-2.92
-1.65
-0.93
-0.88
-1.42
-2.28
-3.15
-3.81
-4.14
-4.15
-3.89
-3.37
-2.59
-1.57
-0.37
0.92
2.17
3.28
4.18
4.88
5.44
5.92
6.30
6.49
6.37
5.87
5.02
3.96
2.92
2.06
1.45
1.07
0.81
0.60
0.38
0.17
-0.01
-0.08
0.00
0.22
0.50
0.66
0.51
-0.13
-1.27
-2.78
-4.36
-5.66
-6.36
-6.28
-5.45
-4.10
-2.55
-1.20
-0.33
-0.04
-0.22
-0.66
-1.15
-1.58
-1.93
-2.25
-2.55
-2.82
-3.01
-3.14
-3.28
-3.47
-3.68
-3.81
-3.70
-3.29
-2.67
-2.03
-1.57
-1.34
-1.22
-1.02
-0.61
-0.05
0.42
0.52
0.04
-1.07
-2.61
-4.27
-5.72
-6.70
-7.16
-7.18
-6.95
-6.70
-6.59
-6.65
-6.88
-7.17
-7.51
-7.92
-8.49
-9.35
-10.52
-11.98
-13.58
-15.11
-16.33
-17.08
-17.26
-16.82
-15.76
-14.06
-11.82
-9.24
-6.70
-4.62
-3.35
-3.01
-3.46
-4.26
-4.91
-4.95
-4.16
-2.56
-0.38
2.05
4.49
6.79
8.94
10.99
12.95
14.72
16.11
16.84
16.78
15.94
14.55
12.99
11.64
10.79
10.47
10.54
10.66
10.59
10.18
9.55
8.94
8.61
8.63
8.91
9.20
9.28
9.03
8.45
7.54
6.32
4.72
2.71
0.38
-2.02
-4.13
-5.69
-6.58
-6.94
-7.04
-7.14
-7.34
-7.55
-7.47
-6.77
-5.24
-2.91
-0.03
2.99
5.74
7.91
9.44
10.43
11.06
11.49
11.83
12.14
12.49
12.99
13.75
14.75
15.82
16.57
16.62
15.73
13.91
11.45
8.74
6.07
3.51
0.99
-1.66
-4.49
-7.35
-10.02
-12.16
-13.59
-14.12
-13.71
-12.30
-9.85
-6.46
-2.47
1.43
4.33
5.33
3.93
0.23
-5.03
-10.77
-15.89
-19.66
-21.85
-22.63
-22.33
-21.23
-19.52
-17.35
-14.90
-12.42
-10.20
-8.39
-7.00
-5.82
-4.54
-2.86
-0.65
2.03
4.87
7.47
9.45
10.66
11.13
11.04
10.66
10.13
9.50
8.76
7.94
7.10
6.34
5.76
5.36
5.14
5.04
5.02
4.99
4.89
4.64
4.18
3.55
2.80
2.03
1.26
0.51
-0.26
-1.03
-1.74
-2.27
-2.57
-2.66
-2.63
-2.58
-2.58
-2.60
-2.56
-2.43
-2.17
-1.85
-1.60
-1.51
-1.65
-2.06
-2.70
-3.46
-4.26
-4.95
-5.47
-5.77
-5.80
-5.56
-5.05
-4.34
-3.52
-2.72
-2.03
-1.44
-0.90
-0.34
0.23
0.72
0.95
0.82
0.30
-0.56
-1.61
-2.73
-3.79
-4.74
-5.56
-6.25
-6.92
-7.67
-8.58
-9.67
-10.88
-12.07
-13.17
-14.20
-15.27
-16.48
-17.90
-19.42
-20.82
-21.88
-22.46
-22.53
-22.21
-21.65
-20.95
-20.11
-19.12
-17.86
-16.30
-14.42
-12.20
-9.69
-6.89
-3.90
-0.82
2.20
4.98
7.39
9.35
10.82
11.79
12.26
12.23
11.89
11.50
11.45
12.10
13.60
15.82
18.41
20.91
22.99
24.56
25.80
26.93
28.09
29.20
30.04
30.29
29.82
28.63
26.89
24.87
22.73
20.58
18.43
16.26
14.11
12.11
10.42
9.10
8.15
7.43
6.76
5.98
5.09
4.14
3.21
2.34
1.48
0.50
-0.70
-2.10
-3.59
-4.98
-6.10
-6.87
-7.28
-7.47
-7.57
-7.72
-7.96
-8.25
-8.52
-8.68
-8.76
-8.92
-9.33
-10.08
-11.11
-12.20
-13.10
-13.67
-13.95
-14.13
-14.37
-14.73
-15.13
-15.43
-15.54
-15.45
-15.14
-14.49
-13.28
-11.21
-8.21
-4.45
-0.38
3.49
6.78
9.37
11.30
12.69
13.62
14.08
14.05
13.61
12.97
12.40
12.15
12.34
12.97
13.87
14.86
15.67
16.06
15.85
15.03
13.72
12.16
10.61
9.25
8.13
7.23
6.50
5.87
5.31
4.74
4.05
3.20
2.20
1.19
0.36
-0.12
-0.19
0.10
0.64
1.26
1.83
2.20
2.32
2.21
2.05
2.08
2.56
3.68
5.39
7.47
9.50
11.10
11.95
11.90
10.92
9.18
6.94
4.56
2.35
0.54
-0.82
-1.82
-2.62
-3.27
-3.74
-3.88
-3.58
-2.85
-1.86
-0.85
-0.03
0.47
0.64
0.47
-0.01
-0.72
-1.50
-2.08
-2.17
-1.66
-0.73
0.18
0.52
-0.10
-1.75
-4.15
-6.78
-9.14
-10.93
-12.03
-12.53
-12.57
-12.24
-11.64
-10.87
-10.08
-9.41
-8.98
-8.81
-8.82
-8.81
-8.57
-7.98
-7.08
-6.01
-5.03
-4.35
-4.04
-4.06
-4.24
-4.45
-4.64
-4.87
-5.25
-5.86
-6.68
-7.60
-8.42
-9.03
-9.33
-9.29
-8.97
-8.47
-7.97
-7.58
-7.40
-7.40
-7.50
-7.58
-7.63
-7.65
-7.73
-7.89
-8.03
-8.00
-7.59
-6.64
-5.05
-2.84
-0.09
3.03
6.30
9.47
12.29
14.56
16.18
17.16
17.55
17.51
17.22
16.88
16.65
16.57
16.44
15.95
14.74
12.70
10.00
7.15
4.65
2.91
1.96
1.54
1.27
0.85
0.13
-0.80
-1.82
-2.86
-3.98
-5.34
-7.06
-9.12
-11.37
-13.53
-15.32
-16.55
-17.23
-17.50
-17.69
-18.12
-18.99
-20.32
-21.95
-23.62
-25.00
-25.88
-26.34
-26.80
-27.80
-29.73
-32.71
-36.51
-40.65
-44.54
-47.79
-50.42
-52.84
-55.72
-59.66
-65.38
-73.64
-84.65
-97.40
-109.28
-116.32
-114.37
-100.48
-74.08
-37.68
3.83
44.80
80.61
108.57
127.73
137.96
138.14
128.32
110.57
88.21
64.56
42.26
22.98
7.31
-5.13
-15.18
-23.73
-31.44
-38.79
-45.96
-52.85
-59.11
-64.59
-69.47
-73.94
-78.21
-82.30
-86.08
-89.23
-91.33
-91.78
-90.21
-87.16
-82.27
-75.65
-67.65
-58.84
-49.86
-41.41
-33.70
-27.05
-21.96
-18.80
-18.17
-20.61
-26.44
-35.85
-48.91
-64.18
-80.34
-96.62
-112.51
-128.19
-143.83
-159.36
-174.49
-188.71
-198.37
-199.60
-192.12
-175.80
-151.72
-121.28
-85.83
-46.85
-6.07
39.16
91.08
150.06
214.76
281.86
347.90
410.20
466.66
515.81
562.70
612.44
668.05
730.08
796.22
863.86
931.72
999.94
1032.77
1006.18
912.82
765.68
589.59
406.90
233.04
78.30
-50.25
-149.06
-213.52
-242.99
-246.34
-233.36
-213.52
-193.44
-176.63
-164.84
-159.40
-156.97
-154.48
-150.76
-143.99
-135.22
-126.26
-118.91
-114.83
-115.37
-118.45
-121.52
-122.72
-121.08
-117.55
-113.73
-111.27
-111.60
-115.71
-122.56
-130.56
-138.33
-144.85
-150.42
-155.80
-162.04
-170.31
-181.75
-196.64
-214.50
-233.76
-251.69
-265.16
-271.26
-268.35
-256.81
-238.92
-218.02
-197.23
-178.51
-162.23
-147.86
-134.60
-121.99
-110.03
-98.93
-88.75
-79.24
-69.95
-60.52
-50.97
-41.69
-33.35
-26.48
-21.27
-17.44
-14.39
-11.42
-8.11
-4.41
-0.57
3.01
6.09
8.69
11.01
13.29
15.63
17.95
20.01
21.61
22.66
23.22
23.41
23.38
23.16
22.72
21.96
20.84
19.43
17.92
16.54
15.46
14.74
14.20
13.60
12.70
11.42
9.93
8.50
7.40
6.75
6.47
6.33
6.18
5.96
5.76
5.71
5.90
6.28
6.73
7.07
7.18
7.06
6.73
6.25
5.67
4.97
4.15
3.23
2.32
1.56
1.14
1.17
1.69
2.61
3.74
4.85
5.69
6.11
6.00
5.36
4.33
3.11
1.92
0.92
0.16
-0.44
-1.04
-1.81
-2.77
-3.88
-4.94
-5.78
-6.28
-6.41
-6.20
-5.77
-5.23
-4.73
-4.33
-4.07
-3.91
-3.70
-3.36
-2.84
-2.19
-1.51
-0.93
-0.53
-0.28
-0.15
-0.02
0.15
0.42
0.80
1.26
1.76
2.28
2.73
3.07
3.21
3.06
2.59
1.88
1.03
0.20
-0.50
-1.02
-1.40
-1.70
-2.01
-2.38
-2.87
-3.56
-4.55
-5.84
-7.32
-8.80
-10.15
-11.36
-12.57
-14.02
-15.89
-18.16
-20.60
-22.85
-24.69
-26.13
-27.44
-29.05
-31.32
-34.48
-38.51
-43.18
-48.16
-53.14
-57.92
-62.47
-66.94
-71.65
-77.05
-83.68
-91.81
-101.25
-111.34
-121.14
-129.74
-136.75
-142.61
-148.59
-156.42
-167.25
-181.14
-197.06
-213.16
-227.17
-236.91
-240.56
-236.89
-225.64
-207.03
-182.05
-152.68
-121.40
-90.62
-62.03
-36.27
-13.08
8.00
27.88
47.47
66.84
85.62
102.85
117.29
127.61
134.27
134.78
126.28
107.88
80.92
48.49
13.67
-21.07
-53.97
-83.77
-109.90
-132.48
-150.60
-163.70
-171.18
-172.97
-169.38
-160.85
-147.89
-131.08
-110.30
-84.32
-56.22
-28.31
-2.73
18.95
35.83
47.73
54.87
58.08
58.46
56.75
54.03
51.10
48.71
47.63
48.60
52.15
58.53
67.67
78.84
91.42
104.61
117.80
130.69
143.26
155.65
167.96
180.22
192.11
203.29
213.06
220.47
224.47
224.28
219.82
211.90
202.11
192.26
183.85
177.36
172.15
166.91
160.36
151.86
141.70
130.84
120.36
111.09
103.20
96.35
89.91
83.28
76.09
68.25
59.81
50.93
41.75
32.44
23.21
14.44
6.63
0.38
-3.82
-5.70
-5.40
-3.37
-0.36
2.85
5.62
7.52
8.38
8.21
7.16
5.45
3.40
1.40
-0.23
-1.27
-1.74
-1.89
-2.16
-3.01
-4.78
-7.59
-11.24
-15.18
-18.60
-20.61
-20.41
-17.57
-12.18
-4.78
3.76
12.54
20.80
28.10
34.19
38.94
42.23
43.87
43.73
41.89
38.73
34.94
31.29
28.40
26.53
25.58
25.24
25.15
25.12
25.11
25.17
25.44
25.93
26.39
26.46
25.69
24.00
21.48
18.27
14.55
10.59
6.59
2.60
-1.44
-5.81
-10.58
-15.72
-21.03
-26.15
-30.11
-31.99
-31.26
-27.99
-23.06
-17.10
-10.60
-3.93
2.79
10.63
20.17
31.04
41.87
50.18
55.38
58.07
59.45
60.84
65.36
74.63
88.13
103.63
116.92
127.40
135.96
143.34
149.80
158.72
172.59
192.43
217.52
243.39
269.39
295.56
321.32
346.56
376.33
414.43
460.75
509.73
548.77
570.98
574.04
559.87
502.48
392.34
238.63
67.53
-69.68
-169.42
-240.73
-293.05
-338.00
-379.74
-415.60
-444.03
-465.84
-484.19
-505.75
-529.68
-551.91
-568.71
-577.58
-574.54
-557.74
-526.67
-482.52
-430.57
-372.90
-311.94
-251.56
-195.75
-144.79
-101.05
-66.52
-41.87
-28.20
-23.42
-25.07
-30.93
-38.85
-45.83
-49.63
-48.74
-42.60
-33.30
-22.06
-9.59
3.82
17.84
31.94
44.85
55.29
62.27
65.14
64.85
61.43
56.33
51.00
46.09
41.45
36.73
31.75
26.50
21.18
15.96
11.14
6.66
2.25
-2.38
-7.17
-11.80
-15.88
-19.16
-21.70
-23.67
-25.51
-27.72
-30.53
-33.86
-37.36
-40.70
-43.67
-46.30
-48.53
-50.31
-51.50
-51.90
-51.43
-50.17
-48.37
-46.26
-43.84
-40.74
-36.39
-30.26
-22.10
-12.14
-1.07
10.13
20.46
29.08
35.50
39.54
41.27
40.98
39.07
36.00
32.31
28.53
25.19
22.67
21.14
20.59
20.90
21.88
23.40
25.47
28.20
31.71
35.97
40.64
45.13
48.76
50.90
51.12
49.34
45.77
40.93
35.42
29.71
24.02
18.51
12.97
6.95
0.01
-7.91
-16.21
-23.71
-29.01
-30.96
-28.63
-22.17
-12.78
-2.24
7.97
17.31
26.22
35.66
46.46
59.54
74.46
89.24
101.11
107.89
109.06
106.25
102.68
102.22
109.11
125.00
147.56
170.70
186.58
188.37
172.78
141.20
93.57
36.53
-19.47
-64.46
-93.53
-108.04
-113.23
-114.72
-116.55
-120.67
-125.92
-129.50
-127.94
-117.88
-97.01
-66.05
-30.09
1.62
17.19
10.48
-15.09
-47.95
-74.57
-85.77
-80.40
-64.10
-44.93
-28.74
-16.42
-6.19
2.98
9.02
8.02
-3.93
-27.58
-59.32
-91.93
-116.70
-127.22
-119.97
-98.56
-70.32
-42.89
-21.11
-6.14
3.44
10.10
15.47
20.19
24.82
31.59
43.56
62.94
88.59
115.98
138.25
148.59
143.11
122.64
92.71
60.64
32.78
11.97
-1.66
-9.04
-9.68
-3.93
6.38
20.18
34.72
46.07
49.68
43.63
29.92
13.00
-1.78
-11.00
-14.38
-14.89
-17.45
-28.53
-53.08
-90.05
-135.90
-184.04
-226.58
-255.60
-265.75
-247.97
-203.19
-142.77
-84.05
-42.05
-22.23
-21.58
-32.74
-49.27
-68.32
-91.41
-120.46
-154.57
-192.66
-226.36
-246.10
-243.95
-216.54
-166.63
-102.71
-34.80
29.62
87.99
141.61
190.45
234.75
274.08
306.69
329.39
339.27
334.71
315.44
283.20
241.12
194.52
149.85
113.02
87.52
73.66
69.68
70.04
69.13
62.27
47.09
23.82
-5.17
-35.75
-63.23
-84.32
-98.65
-108.44
-116.61
-124.27
-129.79
-129.90
-120.36
-97.83
-61.43
-11.80
46.20
105.82
160.56
205.36
235.65
248.98
245.37
226.64
195.63
155.50
109.53
60.87
11.96
-37.66
-88.64
-140.23
-189.59
-231.96
-261.78
-274.69
-268.68
-235.41
-177.04
-105.62
-36.34
20.78
64.03
96.18
118.65
130.22
129.19
113.06
82.53
42.46
-0.56
-41.11
-77.89
-111.63
-144.78
-178.49
-211.75
-239.58
-254.55
-251.13
-228.37
-183.10
-122.13
-58.26
-3.32
37.17
64.45
86.84
109.33
131.78
150.20
157.64
148.79
122.40
81.35
31.45
-20.90
-71.81
-119.93
-165.51
-209.25
-248.89
-278.11
-288.13
-271.58
-226.36
-158.13
-78.04
1.39
69.79
122.21
155.64
168.42
161.43
138.58
104.64
64.20
21.57
-19.17
-54.07
-80.18
-95.58
-101.17
-98.95
-91.95
-82.79
-72.61
-61.05
-46.62
-27.49
-1.61
30.30
66.82
105.07
141.15
171.10
191.79
201.76
201.45
193.21
180.24
165.79
151.78
138.75
126.56
115.09
104.59
95.45
87.95
81.76
76.22
70.31
63.26
54.92
45.78
36.71
28.37
20.98
14.22
7.62
0.63
-7.06
-15.39
-23.95
-32.12
-39.29
-45.01
-49.08
-51.46
-52.31
-51.80
-50.04
-47.00
-42.62
-37.01
-30.63
-24.31
-19.06
-15.71
-14.63
-15.54
-17.59
-19.69
-20.96
-21.06
-20.33
-19.59
-19.70
-21.17
-23.78
-26.63
-28.55
-28.70
-27.11
-24.76
-23.13
-23.59
-26.74
-32.20
-38.87
-45.35
-50.35
-52.75
-51.56
-46.06
-36.68
-25.60
-16.47
-12.85
-16.08
-23.64
-29.51
-26.66
-9.99
20.45
59.15
97.46
127.31
144.16
147.93
141.78
129.86
116.49
104.75
96.82
94.40
98.64
109.63
125.67
143.12
157.21
164.59
163.68
155.39
142.42
128.09
115.11
104.83
97.20
85.33
65.24
36.39
2.25
-31.63
-60.28
-80.82
-92.43
-95.93
-93.46
-87.25
-80.30
-75.33
-74.18
-77.26
-83.71
-91.97
-100.54
-108.33
-113.59
-115.66
-114.18
-109.50
-102.77
-95.59
-89.50
-85.69
-84.95
-87.43
-93.20
-101.62
-110.76
-117.43
-118.06
-110.23
-93.86
-71.16
-44.95
-17.23
11.46
42.39
77.45
117.20
159.73
201.07
236.85
264.27
282.78
293.55
298.07
296.96
289.83
276.13
256.15
231.44
204.45
177.72
153.11
131.46
112.67
96.09
81.01
66.96
53.77
41.43
29.80
18.33
6.23
-7.36
-23.00
-40.63
-59.59
-78.89
-97.60
-115.04
-130.71
-144.04
-154.24
-160.48
-162.17
-159.34
-152.70
-143.46
-132.90
-122.06
-111.55
-101.59
-92.25
-83.57
-75.64
-68.60
-62.57
-57.72
-54.25
-52.38
-52.24
-53.82
-56.79
-60.54
-64.20
-66.88
-67.91
-66.98
-64.27
-60.21
-55.43
-50.46
-45.74
-41.60
-38.29
-35.95
-34.54
-33.83
-33.39
-32.74
-31.56
-29.74
-27.42
-24.85
-22.20
-19.60
-17.04
-14.49
-12.00
-9.70
-7.71
-6.12
-4.92
-3.96
-3.10
-2.14
-0.94
0.56
2.32
4.19
5.96
7.40
8.36
8.76
8.62
7.98
6.88
5.35
3.44
1.26
-0.92
-2.74
-3.89
-4.21
-3.76
-2.73
-1.42
-0.05
1.20
2.25
3.01
3.43
3.45
3.17
2.75
2.45
2.47
2.87
3.56
4.33
4.96
5.29
5.31
5.10
4.83
4.62
4.52
4.55
4.68
4.88
5.14
5.36
5.44
5.19
4.46
3.14
1.33
-0.76
-2.83
-4.60
-5.92
-6.83
-7.50
-8.18
-9.06
-10.21
-11.52
-12.74
-13.59
-13.85
-13.47
-12.57
-11.37
-10.07
-8.84
-7.76
-6.90
-6.28
-5.93
-5.84
-5.94
-6.20
-6.60
-7.27
-8.31
-9.85
-11.82
-14.06
-16.26
-18.15
-19.51
-20.27
-20.52
-20.40
-20.05
-19.53
-18.75
-17.44
-15.34
-12.27
-8.26
-3.64
1.08
5.38
8.87
11.36
12.90
13.65
13.78
13.47
12.83
11.99
11.02
10.03
9.09
8.27
7.59
7.06
6.67
6.44
6.32
6.26
6.14
5.87
5.37
4.67
3.88
3.18
2.69
2.48
2.50
2.63
2.76
2.89
3.10
3.48
4.08
4.82
5.53
6.05
6.26
6.12
5.70
5.10
4.37
3.62
2.90
2.28
1.79
1.42
1.11
0.80
0.44
0.08
-0.19
-0.25
-0.02
0.51
1.31
2.30
3.42
4.59
5.70
6.63
7.27
7.56
7.49
7.12
6.57
5.91
5.22
4.55
3.96
3.53
3.32
3.34
3.49
3.66
3.65
3.39
2.91
2.34
1.89
1.69
1.82
2.15
2.56
2.86
2.95
2.81
2.48
2.02
1.49
0.95
0.40
-0.12
-0.62
-1.14
-1.69
-2.29
-2.87
-3.31
-3.48
-3.32
-2.86
-2.28
-1.75
-1.36
-1.07
-0.73
-0.23
0.46
1.22
1.95
2.58
3.19
4.00
5.12
6.61
8.30
9.92
11.24
12.10
12.47
12.39
11.92
11.12
10.04
8.80
7.60
6.65
6.09
5.85
5.65
5.03
3.54
0.96
-2.64
-6.87
-11.22
-15.22
-18.58
-21.19
-23.07
-24.26
-24.77
-24.66
-24.05
-23.11
-22.01
-20.81
-19.48
-17.86
-15.86
-13.46
-10.80
-8.11
-5.62
-3.53
-1.95
-0.90
-0.33
-0.15
-0.19
-0.35
-0.51
-0.67
-0.79
-0.88
-0.90
-0.81
-0.59
-0.31
-0.12
-0.17
-0.56
-1.24
-1.98
-2.45
-2.36
-1.59
-0.28
1.26
2.68
3.72
4.31
4.53
4.48
4.24
3.73
2.87
1.73
0.47
-0.58
-1.20
-1.34
-1.19
-1.03
-1.16
-1.67
-2.49
-3.45
-4.38
-5.19
-5.83
-6.30
-6.61
-6.79
-6.90
-7.04
-7.25
-7.50
-7.68
-7.61
-7.16
-6.27
-5.00
-3.50
-1.96
-0.58
0.53
1.34
1.85
2.15
2.29
2.32
2.25
2.03
1.61
1.00
0.26
-0.52
-1.23
-1.79
-2.22
-2.54
-2.82
-3.11
-3.40
-3.62
-3.65
-3.38
-2.73
-1.75
-0.55
0.64
1.59
2.19
2.45
2.52
2.56
2.71
2.97
3.23
3.37
3.23
2.84
2.27
1.71
1.32
1.19
1.29
1.51
1.76
1.93
1.99
1.93
1.76
1.51
1.19
0.82
0.46
0.18
0.03
0.05
0.20
0.44
0.63
0.69
0.50
0.02
-0.76
-1.76
-2.90
-4.05
-5.09
-6.00
-6.79
-7.55
-8.34
-9.15
-9.90
-10.45
-10.68
-10.53
-10.04
-9.25
-8.19
-6.83
-5.13
-3.06
-0.69
1.77
4.07
5.99
7.43
8.41
9.09
9.60
9.98
10.20
10.14
9.76
9.14
8.43
7.77
7.29
6.99
6.79
6.61
6.39
6.12
5.85
5.58
5.29
4.94
4.50
3.95
3.32
2.68
2.08
1.56
1.11
0.70
0.26
-0.27
-0.85
-1.36
-1.58
-1.35
-0.61
0.46
1.48
2.04
1.82
0.85
-0.53
-1.82
-2.62
-2.83
-2.64
-2.39
-2.26
-2.23
-2.00
-1.30
-0.04
1.68
3.58
5.44
7.11
8.61
9.91
10.98
11.74
12.16
12.30
12.29
12.23
12.10
11.82
11.26
10.37
9.20
7.84
6.37
4.79
3.11
1.36
-0.31
-1.67
-2.49
-2.64
-2.10
-0.98
0.55
2.34
4.24
6.14
7.99
9.78
11.59
13.51
15.52
17.49
19.12
20.11
20.22
19.42
17.93
16.07
14.19
12.46
10.85
9.02
6.49
2.81
-2.22
-8.38
-15.04
-21.33
-26.40
-29.74
-31.31
-31.54
-31.05
-30.41
-29.97
-29.75
-29.49
-28.68
-26.71
-23.00
-17.08
-8.84
1.42
12.95
24.79
35.94
45.68
53.63
59.77
64.32
67.51
69.50
70.32
69.88
68.03
64.60
59.52
52.78
44.51
35.02
24.75
14.22
3.97
-5.49
-13.77
-20.63
-26.01
-30.05
-33.06
-35.39
-37.40
-39.24
-40.92
-42.29
-43.11
-43.18
-42.43
-40.89
-38.72
-36.17
-33.49
-30.87
-28.35
-25.83
-23.16
-20.23
-17.08
-13.95
-11.16
-8.97
-7.49
-6.56
-5.89
-5.19
-4.35
-3.44
-2.66
-2.14
-1.89
-1.79
-1.69
-1.55
-1.47
-1.66
-2.23
-3.16
-4.27
-5.29
-6.00
-6.29
-6.12
-5.55
-4.70
-3.72
-2.85
-2.31
-2.25
-2.67
-3.40
-4.16
-4.63
-4.65
-4.23
-3.53
-2.82
-2.34
-2.23
-2.52
-3.07
-3.66
-4.11
-4.29
-4.25
-4.12
-4.07
-4.20
-4.53
-4.96
-5.35
-5.60
-5.67
-5.58
-5.36
-5.06
-4.66
-4.17
-3.58
-2.91
-2.21
-1.56
-1.00
-0.58
-0.33
-0.26
-0.38
-0.66
-1.04
-1.48
-1.97
-2.56
-3.34
-4.39
-5.67
-7.01
-8.19
-9.00
-9.37
-9.37
-9.14
-8.76
-8.22
-7.37
-6.09
-4.30
-2.10
0.26
2.52
4.42
5.82
6.67
7.05
7.08
6.91
6.72
6.70
7.02
7.77
8.92
10.31
11.71
12.98
14.01
14.81
15.41
15.73
15.63
14.95
13.64
11.84
9.86
8.02
6.60
5.69
5.24
5.14
5.25
5.43
5.52
5.31
4.67
3.58
2.13
0.50
-1.10
-2.56
-3.85
-5.01
-6.07
-7.05
-7.90
-8.58
-9.05
-9.31
-9.33
-9.11
-8.65
-7.99
-7.21
-6.45
-5.86
-5.56
-5.55
-5.79
-6.11
-6.29
-6.11
-5.47
-4.38
-3.02
-1.66
-0.57
0.06
0.22
0.03
-0.34
-0.73
-1.07
-1.37
-1.69
-2.09
-2.60
-3.25
-4.02
-4.91
-5.88
-6.87
-7.79
-8.55
-9.09
-9.42
-9.62
-9.87
-10.37
-11.16
-12.15
-13.08
-13.63
-13.53
-12.74
-11.41
-9.83
-8.32
-7.09
-6.20
-5.63
-5.31
-5.14
-5.09
-5.12
-5.21
-5.42
-5.81
-6.42
-7.20
-8.01
-8.68
-9.12
-9.36
-9.54
-9.86
-10.39
-11.05
-11.62
-11.86
-11.59
-10.77
-9.44
-7.68
-5.63
-3.36
-0.99
1.39
3.68
5.80
7.66
9.15
10.15
10.55
10.36
9.67
8.67
7.57
6.55
5.74
5.21
4.98
5.06
5.41
5.95
6.52
6.96
7.12
6.96
6.60
6.27
6.29
6.93
8.29
10.25
12.50
14.63
16.25
17.17
17.38
17.09
16.52
15.86
15.19
14.49
13.70
12.79
11.81
10.85
10.08
9.58
9.35
9.33
9.38
9.35
9.20
8.90
8.50
8.02
7.49
6.87
6.15
5.37
4.57
3.82
3.15
2.53
1.90
1.28
0.72
0.35
0.20
0.25
0.30
0.11
-0.52
-1.63
-3.09
-4.67
-6.13
-7.30
-8.12
-8.63
-8.93
-9.10
-9.22
-9.36
-9.56
-9.83
-10.15
-10.44
-10.54
-10.25
-9.45
-8.06
-6.20
-4.05
-1.90
0.01
1.50
2.52
3.08
3.26
3.14
2.80
2.31
1.72
1.11
0.56
0.15
-0.04
-0.00
0.24
0.60
0.91
1.04
0.92
0.57
0.08
-0.37
-0.67
-0.75
-0.68
-0.60
-0.67
-1.04
-1.71
-2.62
-3.58
-4.41
-5.01
-5.35
-5.52
-5.59
-5.65
-5.77
-6.02
-6.46
-7.15
-8.06
-9.05
-9.97
-10.63
-10.99
-11.17
-11.39
-11.84
-12.64
-13.70
-14.77
-15.52
-15.66
-15.06
-13.73
-11.79
-9.41
-6.75
-3.90
-0.95
1.91
4.50
6.63
8.16
9.12
9.58
9.63
9.38
8.92
8.38
7.94
7.73
7.80
8.07
8.34
8.46
8.36
8.14
7.95
7.93
8.07
8.28
8.44
8.51
8.45
8.29
8.00
7.57
7.01
6.36
5.71
5.17
4.79
4.53
4.38
4.28
4.16
3.96
3.52
2.74
1.54
-0.01
-1.70
-3.24
-4.40
-5.10
-5.48
-5.73
-6.06
-6.50
-6.95
-7.19
-6.99
-6.21
-4.84
-3.00
-0.89
1.27
3.30
5.07
6.51
7.59
8.31
8.69
8.78
8.65
8.44
8.22
8.05
7.93
7.79
7.54
7.19
6.79
6.47
6.29
6.28
6.38
6.50
6.56
6.51
6.35
6.08
5.70
5.27
4.87
4.54
4.32
4.10
3.81
3.34
2.72
2.10
1.62
1.38
1.33
1.36
1.30
1.07
0.73
0.42
0.30
0.45
0.82
1.33
1.87
2.39
2.89
3.43
4.15
5.18
6.69
8.80
11.49
14.64
17.97
21.14
23.92
26.22
28.14
29.91
31.75
33.79
36.01
38.37
40.78
43.22
45.73
48.31
50.94
53.48
55.71
57.35
58.20
58.02
56.63
53.84
49.49
43.55
36.23
27.88
18.92
9.68
0.24
-9.47
-19.53
-29.83
-39.93
-49.21
-57.07
-63.15
-67.40
-69.94
-70.93
-70.43
-68.47
-65.04
-60.33
-54.68
-48.54
-42.36
-36.52
-31.28
-26.78
-23.03
-19.93
-17.39
-15.30
-13.66
-12.48
-11.76
-11.38
-11.06
-10.50
-9.54
-8.25
-6.89
-5.73
-4.87
-4.16
-3.26
-1.89
-0.01
2.12
4.05
5.36
5.83
5.50
4.61
3.49
2.41
1.57
1.06
0.85
0.82
0.79
0.59
0.08
-0.76
-1.93
-3.41
-5.21
-7.31
-9.65
-12.07
-14.34
-16.25
-17.69
-18.77
-19.75
-20.89
-22.31
-23.95
-25.56
-26.89
-27.78
-28.33
-28.77
-29.37
-30.34
-31.67
-33.23
-34.79
-36.20
-37.37
-38.20
-38.61
-38.37
-37.26
-35.09
-31.85
-27.72
-23.03
-18.18
-13.41
-8.82
-4.42
-0.20
3.78
7.40
10.51
13.01
14.91
16.35
17.47
18.37
19.08
19.51
19.56
19.18
18.44
17.46
16.42
15.43
14.52
13.67
12.77
11.71
10.42
8.93
7.36
5.98
5.08
4.96
5.78
7.47
9.76
12.24
14.54
16.36
17.67
18.61
19.42
20.40
21.69
23.27
24.92
26.26
26.86
26.43
24.88
22.38
19.38
16.43
14.00
12.42
11.71
11.72
12.14
12.70
13.18
13.53
13.76
13.91
13.93
13.72
13.17
12.24
10.97
9.52
8.08
6.84
5.90
5.31
4.99
4.82
4.70
4.53
4.23
3.75
3.06
2.17
1.16
0.15
-0.67
-1.16
-1.29
-1.10
-0.72
-0.29
0.11
0.49
0.88
1.34
1.85
2.37
2.82
3.20
3.51
3.74
3.92
4.00
3.92
3.66
3.25
2.78
2.38
2.20
2.29
2.68
3.32
4.15
5.11
6.10
6.98
7.54
7.63
7.15
6.21
4.93
3.44
1.67
-0.51
-3.25
-6.48
-9.86
-12.82
-14.82
-15.56
-15.10
-13.84
-12.30
-10.91
-9.93
-9.37
-9.15
-9.10
-9.09
-9.02
-8.80
-8.38
-7.75
-6.96
-6.02
-4.96
-3.77
-2.47
-1.14
-0.00
0.70
0.78
0.25
-0.68
-1.65
-2.31
-2.47
-2.12
-1.43
-0.64
0.04
0.53
0.86
1.11
1.43
1.91
2.56
3.28
3.81
3.90
3.29
1.92
-0.15
-2.72
-5.56
-8.46
-11.26
-13.80
-15.90
-17.38
-18.14
-18.18
-17.62
-16.63
-15.37
-13.91
-12.33
-10.65
-8.95
-7.37
-5.99
-4.85
-3.93
-3.14
-2.37
-1.55
-0.64
0.36
1.40
2.44
3.40
4.20
4.75
5.01
4.96
4.61
4.02
3.24
2.30
1.24
0.09
-1.07
-2.19
-3.20
-4.02
-4.59
-4.83
-4.67
-4.14
-3.34
-2.48
-1.79
-1.43
-1.46
-1.74
-2.00
-1.99
-1.53
-0.59
0.70
2.14
3.53
4.70
5.58
6.16
6.49
6.67
6.81
6.97
7.18
7.40
7.60
7.73
7.82
7.91
8.11
8.49
9.09
9.88
10.79
11.71
12.53
13.15
13.51
13.57
13.30
12.69
11.79
10.70
9.53
8.44
7.51
6.73
6.02
5.29
4.50
3.71
3.10
2.79
2.87
3.29
3.91
4.59
5.20
5.69
6.08
6.37
6.55
6.59
6.40
5.97
5.23
4.23
3.01
1.68
0.41
-0.64
-1.28
-1.43
-1.11
-0.47
0.27
0.85
1.07
0.88
0.39
-0.17
-0.58
-0.64
-0.33
0.24
0.87
1.26
1.17
0.39
-1.10
-3.20
-5.64
-8.13
-10.41
-12.35
-13.94
-15.24
-16.30
-17.12
-17.65
-17.83
-17.65
-17.18
-16.50
-15.66
-14.63
-13.35
-11.76
-9.86
-7.73
-5.53
-3.43
-1.58
-0.12
0.96
1.69
2.20
2.63
3.07
3.51
3.81
3.87
3.62
3.14
2.52
1.84
1.01
-0.17
-1.89
-4.17
-6.71
-9.06
-10.74
-11.55
-11.52
-10.89
-9.89
-8.62
-7.05
-5.18
-3.14
-1.20
0.31
1.16
1.35
1.02
0.39
-0.33
-1.04
-1.66
-2.07
-2.12
-1.68
-0.74
0.53
1.80
2.71
3.01
2.62
1.69
0.48
-0.74
-1.77
-2.49
-2.85
-2.87
-2.60
-2.11
-1.44
-0.63
0.36
1.62
3.30
5.46
8.08
10.93
13.72
16.11
17.84
18.79
18.95
18.38
17.18
15.48
13.43
11.20
8.96
6.83
4.89
3.16
1.60
0.20
-1.02
-2.03
-2.80
-3.34
-3.70
-3.95
-4.13
-4.25
-4.20
-3.88
-3.24
-2.32
-1.27
-0.31
0.38
0.70
0.66
0.40
0.05
-0.27
-0.47
-0.51
-0.37
-0.08
0.26
0.56
0.74
0.81
0.81
0.77
0.64
0.31
-0.33
-1.28
-2.38
-3.32
-3.79
-3.65
-2.97
-1.98
-0.92
0.08
1.03
1.97
2.96
3.93
4.71
5.13
5.07
4.54
3.72
2.83
2.09
1.60
1.38
1.29
1.22
1.11
0.96
0.85
0.84
0.91
0.96
0.85
0.49
-0.12
-0.87
-1.59
-2.16
-2.50
-2.63
-2.61
-2.56
-2.59
-2.78
-3.17
-3.73
-4.41
-5.17
-5.96
-6.71
-7.31
-7.61
-7.50
-6.97
-6.21
-5.50
-5.12
-5.24
-5.81
-6.59
-7.26
-7.62
-7.61
-7.31
-6.87
-6.42
-5.99
-5.55
-5.01
-4.30
-3.37
-2.18
-0.77
0.75
2.21
3.43
4.21
4.52
4.47
4.27
4.14
4.24
4.56
5.02
5.49
5.90
6.23
6.52
6.77
7.01
7.20
7.30
7.32
7.23
7.06
6.77
6.28
5.54
4.55
3.43
2.42
1.76
1.52
1.66
1.92
2.05
1.85
1.30
0.50
-0.43
-1.34
-2.24
-3.10
-3.93
-4.68
-5.28
-5.69
-5.92
-6.05
-6.20
-6.49
-6.95
-7.52
-8.02
-8.20
-7.81
-6.74
-5.09
-3.12
-1.12
0.73
2.41
3.98
5.50
6.91
8.04
8.76
9.06
9.08
9.04
9.14
9.45
9.91
10.39
10.77
11.01
11.08
11.02
10.86
10.67
10.57
10.65
11.00
11.60
12.29
12.81
12.88
12.22
10.69
8.26
5.11
1.54
-2.03
-5.19
-7.71
-9.52
-10.77
-11.67
-12.39
-12.99
-13.45
-13.76
-13.90
-13.96
-14.02
-14.13
-14.28
-14.46
-14.61
-14.67
-14.53
-14.10
-13.25
-11.94
-10.24
-8.30
-6.29
-4.31
-2.40
-0.52
1.32
3.05
4.54
5.61
6.19
6.35
6.22
6.00
5.86
5.90
6.13
6.54
7.09
7.77
8.51
9.21
9.67
9.69
9.15
8.02
6.41
4.53
2.62
0.86
-0.64
-1.82
-2.73
-3.33
-3.64
-3.64
-3.33
-2.79
-2.18
-1.66
-1.34
-1.27
-1.34
-1.36
-1.13
-0.54
0.43
1.68
3.10
4.63
6.31
8.10
9.95
11.70
13.12
14.00
14.29
14.00
13.19
11.92
10.17
7.88
5.10
2.02
-1.07
-3.81
-5.95
-7.37
-8.08
-8.19
-7.85
-7.19
-6.38
-5.56
-4.86
-4.31
-3.89
-3.48
-2.93
-2.14
-1.08
0.19
1.51
2.64
3.43
3.79
3.84
3.79
3.87
4.23
4.81
5.38
5.60
5.19
3.98
2.02
-0.51
-3.30
-6.01
-8.33
-10.04
-11.04
-11.39
-11.26
-10.86
-10.36
-9.85
-9.29
-8.62
-7.82
-6.91
-5.98
-5.16
-4.52
-4.10
-3.85
-3.67
-3.46
-3.19
-2.85
-2.49
-2.15
-1.88
-1.66
-1.52
-1.44
-1.42
-1.42
-1.41
-1.36
-1.28
-1.21
-1.13
-1.02
-0.82
-0.55
-0.26
-0.10
-0.16
-0.40
-0.66
-0.71
-0.39
0.22
0.93
1.42
1.46
1.03
0.29
-0.54
-1.28
-1.88
-2.37
-2.82
-3.27
-3.68
-3.93
-3.88
-3.41
-2.49
-1.16
0.41
2.00
3.33
4.18
4.45
4.21
3.65
3.04
2.59
2.37
2.37
2.50
2.63
2.69
2.62
2.41
2.09
1.70
1.30
0.97
0.76
0.70
0.75
0.84
0.87
0.77
0.48
0.01
-0.54
-1.06
-1.40
-1.52
-1.50
-1.50
-1.73
-2.29
-3.15
-4.16
-5.12
-5.92
-6.54
-7.05
-7.46
-7.72
-7.65
-7.12
-6.08
-4.65
-3.06
-1.53
-0.20
0.88
1.78
2.56
3.16
3.51
3.55
3.30
2.88
2.44
2.11
1.93
1.83
1.76
1.73
1.80
2.06
2.51
3.05
3.55
3.88
4.02
3.99
3.86
3.68
3.41
3.03
2.49
1.84
1.19
0.65
0.29
0.07
-0.12
-0.39
-0.83
-1.45
-2.21
-3.03
-3.83
-4.53
-5.13
-5.62
-6.01
-6.28
-6.39
-6.25
-5.73
-4.77
-3.34
-1.56
0.38
2.23
3.77
4.83
5.37
5.49
5.34
5.14
5.08
5.25
5.61
6.04
6.38
6.49
6.35
6.05
5.67
5.30
4.92
4.42
3.67
2.63
1.33
-0.06
-1.34
-2.33
-2.97
-3.33
-3.51
-3.66
-3.80
-3.92
-3.92
-3.80
-3.56
-3.32
-3.24
-3.34
-3.55
-3.69
-3.62
-3.30
-2.90
-2.69
-2.93
-3.69
-4.84
-6.07
-7.09
-7.73
-8.00
-7.99
-7.81
-7.41
-6.70
-5.52
-3.88
-1.96
-0.06
1.50
2.56
3.17
3.57
4.01
4.67
5.49
6.27
6.76
6.83
6.60
6.32
6.27
6.57
7.11
7.62
7.84
7.66
7.21
6.76
6.59
6.81
7.28
7.71
7.76
7.26
6.26
5.03
3.93
3.23
3.03
3.22
3.52
3.65
3.42
2.83
2.00
1.11
0.33
-0.27
-0.64
-0.81
-0.86
-0.89
-1.05
-1.50
-2.33
-3.52
-4.88
-6.17
-7.18
-7.78
-7.94
-7.70
-7.05
-6.04
-4.65
-2.97
-1.12
0.73
2.41
3.79
4.82
5.47
5.76
5.73
5.46
5.10
4.77
4.59
4.55
4.62
4.66
4.59
4.38
4.05
3.72
3.48
3.36
3.32
3.29
3.19
3.01
2.83
2.73
2.71
2.70
2.53
2.09
1.38
0.57
-0.10
-0.49
-0.58
-0.56
-0.66
-1.09
-1.91
-3.04
-4.28
-5.42
-6.28
-6.79
-6.99
-6.98
-6.89
-6.82
-6.80
-6.81
-6.79
-6.71
-6.61
-6.52
-6.45
-6.40
-6.29
-6.03
-5.55
-4.85
-4.00
-3.10
-2.27
-1.56
-0.95
-0.35
0.27
0.90
1.42
1.67
1.59
1.24
0.83
0.59
0.66
1.02
1.53
2.02
2.44
2.81
3.25
3.83
4.54
5.26
5.87
6.28
6.44
6.36
6.04
5.48
4.70
3.77
2.79
1.88
1.17
0.70
0.43
0.25
0.09
-0.10
-0.23
-0.19
0.06
0.51
1.01
1.41
1.59
1.48
1.09
0.49
-0.26
-1.11
-1.95
-2.67
-3.11
-3.19
-2.89
-2.30
-1.59
-0.90
-0.31
0.14
0.49
0.77
0.99
1.14
1.19
1.13
0.94
0.59
0.07
-0.58
-1.25
-1.79
-2.05
-1.94
-1.49
-0.84
-0.20
0.28
0.53
0.61
0.65
0.79
1.05
1.35
1.57
1.53
1.17
0.50
-0.35
-1.20
-1.90
-2.35
-2.54
-2.50
-2.31
-2.06
-1.88
-1.86
-2.08
-2.50
-3.00
-3.45
-3.73
-3.84
-3.85
-3.89
-4.04
-4.29
-4.49
-4.44
-3.94
-2.91
-1.49
0.06
1.44
2.41
2.88
2.93
2.68
2.21
1.50
0.48
-0.90
-2.52
-4.17
-5.55
-6.50
-6.99
-7.14
-7.13
-7.08
-7.05
-7.03
-7.04
-7.16
-7.46
-7.93
-8.38
-8.49
-7.96
-6.58
-4.41
-1.69
1.24
4.07
6.63
8.83
10.68
12.12
13.05
13.37
13.01
12.02
10.57
8.87
7.12
5.42
3.80
2.15
0.41
-1.41
-3.17
-4.60
-5.40
-5.36
-4.42
-2.69
-0.38
2.30
5.17
8.05
10.78
13.11
14.77
15.53
15.34
14.31
12.74
10.97
9.31
7.94
6.95
6.33
6.06
6.05
6.15
6.19
5.96
5.35
4.36
3.13
1.87
0.78
-0.04
-0.61
-1.00
-1.30
-1.60
-1.94
-2.36
-2.86
-3.43
-4.01
-4.52
-4.85
-4.90
-4.72
-4.44
-4.30
-4.52
-5.26
-6.51
-8.08
-9.65
-10.92
-11.69
-11.86
-11.46
-10.54
-9.14
-7.32
-5.16
-2.85
-0.63
1.24
2.61
3.43
3.79
3.83
3.69
3.49
3.32
3.28
3.46
3.90
4.54
5.23
5.76
5.94
5.73
5.23
4.62
4.13
3.91
3.97
4.19
4.39
4.43
4.19
3.68
2.93
1.99
0.87
-0.38
-1.71
-2.98
-4.08
-4.93
-5.56
-6.07
-6.62
-7.29
-8.08
-8.88
-9.52
-9.85
-9.81
-9.40
-8.65
-7.58
-6.20
-4.56
-2.71
-0.77
1.14
2.93
4.54
5.93
7.05
7.83
8.19
8.13
7.73
7.15
6.61
6.23
6.09
6.13
6.23
6.29
6.25
6.13
5.97
5.82
5.65
5.41
4.95
4.22
3.24
2.19
1.27
0.66
0.39
0.36
0.39
0.34
0.18
-0.03
-0.26
-0.55
-1.01
-1.76
-2.87
-4.30
-5.89
-7.45
-8.78
-9.79
-10.47
-10.84
-10.96
-10.81
-10.34
-9.44
-8.01
-6.05
-3.70
-1.22
1.10
3.04
4.47
5.40
5.87
5.91
5.56
4.92
4.13
3.34
2.71
2.31
2.14
2.18
2.44
2.91
3.55
4.27
4.89
5.21
5.12
4.61
3.81
2.89
2.04
1.36
0.87
0.53
0.23
-0.14
-0.63
-1.20
-1.79
-2.27
-2.56
-2.63
-2.55
-2.42
-2.39
-2.56
-3.00
-3.72
-4.70
-5.83
-6.90
-7.68
-7.85
-7.22
-5.73
-3.54
-0.99
1.52
3.66
5.24
6.27
6.79
6.92
6.81
6.55
6.26
6.01
5.76
5.42
4.89
4.14
3.27
2.51
2.06
2.01
2.28
2.69
3.07
3.33
3.52
3.69
3.88
4.03
4.03
3.80
3.32
2.65
1.87
1.07
0.28
-0.53
-1.40
-2.33
-3.30
-4.23
-5.01
-5.55
-5.85
-5.95
-5.97
-6.03
-6.22
-6.52
-6.84
-6.99
-6.81
-6.16
-4.98
-3.30
-1.25
0.97
3.17
5.13
6.69
7.76
8.33
8.43
8.15
7.56
6.72
5.76
4.88
4.33
4.33
4.97
6.18
7.69
9.16
10.33
11.11
11.59
11.97
12.48
13.21
14.15
15.14
15.96
16.36
16.07
14.84
12.50
9.00
4.55
-0.42
-5.35
-9.68
-12.96
-15.03
-15.95
-15.95
-15.31
-14.34
-13.26
-12.28
-11.50
-10.93
-10.49
-9.92
-8.99
-7.50
-5.42
-2.99
-0.63
1.13
1.87
1.33
-0.41
-2.99
-5.89
-8.57
-10.69
-12.15
-13.06
-13.57
-13.67
-13.20
-11.80
-9.21
-5.42
-0.79
3.89
7.54
8.93
6.91
0.60
-10.37
-25.82
-44.99
-66.82
-90.22
-114.36
-138.74
-163.08
-186.89
-209.36
-229.23
-245.04
-255.50
-259.80
-257.60
-248.95
-234.10
-213.21
-186.43
-154.04
-116.87
-76.58
-35.83
2.04
33.57
56.08
68.42
71.29
67.12
59.34
51.50
46.53
46.36
52.04
63.95
82.08
106.06
135.24
168.72
205.71
245.87
289.26
335.85
384.38
431.50
471.70
498.52
506.73
494.36
463.61
420.22
371.30
323.11
279.41
241.36
208.23
178.73
151.77
126.72
103.27
81.08
59.79
39.03
18.57
-1.66
-21.40
-40.12
-56.98
-71.11
-81.94
-89.64
-95.19
-100.09
-105.74
-112.69
-120.44
-127.69
-133.15
-136.24
-137.34
-137.49
-137.62
-138.07
-138.34
-137.61
-135.30
-131.43
-126.67
-121.88
-117.67
-114.15
-110.96
-107.49
-103.23
-98.01
-92.01
-85.65
-79.43
-73.72
-68.62
-64.03
-59.68
-55.31
-50.87
-46.50
-42.50
-39.15
-36.54
-34.52
-32.79
-31.06
-29.20
-27.34
-25.73
-24.64
-24.13
-24.07
-24.11
-23.93
-23.32
-22.26
-20.88
-19.28
-17.46
-15.27
-12.62
-9.48
-6.06
-2.75
0.03
2.01
3.16
3.69
3.88
3.98
4.08
4.10
3.89
3.27
2.17
0.64
-1.23
-3.29
-5.43
-7.46
-9.14
-10.23
-10.54
-10.02
-8.81
-7.19
-5.43
-3.69
-1.99
-0.27
1.47
3.07
4.28
4.90
4.96
4.65
4.29
4.10
4.11
4.16
4.02
3.46
2.36
0.71
-1.43
-3.85
-6.26
-8.32
-9.69
-10.20
-9.88
-9.00
-7.84
-6.70
-5.72
-4.97
-4.47
-4.24
-4.30
-4.61
-5.01
-5.33
-5.39
-5.09
-4.46
-3.63
-2.77
-2.12
-1.86
-2.08
-2.78
-3.81
-4.98
-6.05
-6.87
-7.36
-7.57
-7.57
-7.50
-7.51
-7.78
-8.45
-9.57
-11.12
-12.89
-14.61
-15.98
-16.71
-16.63
-15.62
-13.67
-10.90
-7.55
-3.99
-0.61
2.30
4.58
6.26
7.44
8.25
8.73
8.87
8.67
8.21
7.65
7.23
7.11
7.34
7.77
8.16
8.23
7.80
6.88
5.67
4.43
3.42
2.74
2.36
2.15
1.94
1.63
1.18
0.60
-0.14
-1.03
-2.07
-3.20
-4.37
-5.50
-6.53
-7.49
-8.36
-9.10
-9.59
-9.64
-9.09
-7.90
-6.19
-4.24
-2.32
-0.63
0.80
2.05
3.26
4.47
5.66
6.73
7.62
8.32
8.86
9.27
9.58
9.79
9.91
9.98
10.02
10.03
9.94
9.65
9.01
7.91
6.36
4.48
2.50
0.73
-0.58
-1.26
-1.31
-0.87
-0.13
0.77
1.75
2.79
3.87
4.98
6.10
7.36
8.96
11.16
14.03
17.42
20.89
23.97
26.29
27.80
28.82
29.74
30.95
32.49
34.13
35.45
36.07
35.71
34.33
32.06
29.07
25.58
21.70
17.48
12.90
7.95
2.74
-2.48
-7.29
-11.23
-13.94
-15.26
-15.23
-14.06
-11.95
-9.09
-5.75
-2.41
0.20
1.32
0.43
-2.43
-6.69
-11.36
-15.48
-18.44
-20.06
-20.54
-20.22
-19.40
-18.26
-16.90
-15.42
-13.93
-12.54
-11.34
-10.38
-9.67
-9.16
-8.78
-8.38
-7.84
-7.16
-6.47
-6.04
-6.15
-6.89
-8.11
-9.54
-10.91
-12.09
-13.11
-14.02
-14.71
-14.87
-14.22
-12.64
-10.51
-8.48
-7.35
-7.61
-9.32
-12.03
-14.99
-17.46
-18.89
-19.11
-18.25
-16.71
-14.98
-13.49
-12.50
-11.99
-11.85
-11.86
-11.93
-12.03
-12.12
-12.11
-11.74
-10.76
-8.97
-6.39
-3.23
0.17
3.43
6.25
8.45
10.05
11.17
12.10
13.08
14.22
15.41
16.37
16.83
16.70
16.16
15.52
15.09
14.97
15.01
14.96
14.66
14.14
13.54
12.99
12.42
11.57
10.15
8.05
5.41
2.66
0.25
-1.56
-2.81
-3.80
-4.84
-6.06
-7.30
-8.24
-8.63
-8.50
-8.19
-8.14
-8.64
-9.60
-10.65
-11.29
-11.23
-10.50
-9.45
-8.43
-7.67
-7.21
-6.96
-6.87
-6.96
-7.25
-7.71
-8.17
-8.39
-8.09
-7.20
-5.81
-4.16
-2.55
-1.19
-0.25
0.25
0.39
0.34
0.32
0.52
1.00
1.70
2.48
3.10
3.41
3.25
2.58
1.44
-0.03
-1.56
-2.83
-3.57
-3.69
-3.30
-2.74
-2.36
-2.42
-2.93
-3.68
-4.41
-4.89
-5.10
-5.14
-5.21
-5.44
-5.81
-6.24
-6.58
-6.69
-6.51
-6.07
-5.45
-4.79
-4.20
-3.79
-3.57
-3.51
-3.51
-3.44
-3.16
-2.53
-1.38
0.38
2.74
5.56
8.50
11.14
13.13
14.31
14.82
14.96
15.05
15.30
15.62
15.74
15.37
14.37
12.83
11.05
9.37
8.03
7.11
6.50
6.04
5.62
5.14
4.52
3.69
2.56
1.16
-0.32
-1.58
-2.26
-2.11
-1.12
0.44
2.20
3.71
4.68
4.97
4.66
3.95
3.12
2.43
2.16
2.42
3.24
4.47
5.86
7.17
8.16
8.77
9.05
9.10
9.07
9.08
9.21
9.53
10.10
10.86
11.67
12.24
12.30
11.68
10.50
9.09
7.91
7.33
7.40
7.89
8.42
8.60
8.26
7.47
6.46
5.49
4.78
4.41
4.39
4.61
4.98
5.37
5.62
5.59
5.08
4.01
2.39
0.42
-1.53
-3.10
-3.96
-4.00
-3.34
-2.25
-1.00
0.16
1.18
2.09
3.04
4.20
5.71
7.68
10.06
12.74
15.52
18.21
20.73
23.20
25.79
28.66
31.68
34.38
35.96
35.65
32.99
28.15
21.91
15.48
10.05
6.41
4.85
5.12
6.69
8.95
11.33
13.36
14.76
15.47
15.69
15.83
16.18
16.73
16.86
15.56
11.83
5.21
-3.91
-14.29
-24.34
-32.70
-38.59
-41.96
-43.22
-42.95
-41.60
-39.48
-36.80
-33.76
-30.63
-27.63
-24.90
-22.44
-20.07
-17.57
-14.68
-11.33
-7.58
-3.78
-0.40
2.15
3.70
4.39
4.63
4.84
5.29
5.89
6.29
6.01
4.68
2.26
-0.92
-4.26
-7.16
-9.23
-10.49
-11.23
-11.92
-12.86
-14.08
-15.33
-16.25
-16.66
-16.59
-16.30
-16.09
-16.05
-16.06
-15.85
-15.23
-14.12
-12.68
-11.21
-9.97
-9.13
-8.68
-8.45
-8.23
-7.86
-7.24
-6.35
-5.27
-4.12
-2.99
-1.89
-0.73
0.60
2.15
3.81
5.28
6.10
5.88
4.44
2.00
-0.93
-3.75
-5.98
-7.54
-8.57
-9.30
-9.81
-9.97
-9.60
-8.63
-7.29
-6.05
-5.37
-5.41
-6.03
-6.77
-7.20
-7.12
-6.61
-6.01
-5.66
-5.74
-6.23
-6.96
-7.70
-8.28
-8.71
-9.10
-9.63
-10.34
-11.17
-11.95
-12.55
-12.95
-13.30
-13.74
-14.29
-14.80
-14.98
-14.61
-13.68
-12.43
-11.21
-10.34
-9.92
-9.82
-9.84
-9.71
-9.26
-8.30
-6.66
-4.18
-0.80
3.38
8.05
12.77
17.05
20.48
22.84
24.02
24.08
23.22
21.65
19.57
17.12
14.42
11.61
8.87
6.49
4.69
3.56
3.00
2.73
2.46
2.08
1.68
1.50
1.75
2.43
3.29
3.96
4.15
3.79
3.07
2.28
1.68
1.41
1.38
1.41
1.23
0.70
-0.21
-1.35
-2.50
-3.42
-3.98
-4.15
-3.96
-3.47
-2.77
-1.95
-1.15
-0.54
-0.26
-0.31
-0.60
-0.84
-0.75
-0.22
0.71
1.77
2.67
3.14
3.08
2.52
1.66
0.73
-0.07
-0.59
-0.79
-0.68
-0.36
0.05
0.40
0.58
0.57
0.43
0.30
0.33
0.66
1.31
2.20
3.19
4.12
4.92
5.55
6.02
6.33
6.53
6.66
6.80
7.02
7.39
7.86
8.35
8.74
8.92
8.90
8.69
8.32
7.82
7.16
6.36
5.47
4.65
4.02
3.73
3.76
4.03
4.34
4.52
4.40
3.93
3.16
2.18
1.16
0.29
-0.26
-0.38
-0.04
0.65
1.46
2.12
2.36
2.12
1.46
0.59
-0.29
-1.08
-1.77
-2.48
-3.30
-4.28
-5.38
-6.53
-7.65
-8.65
-9.42
-9.82
-9.73
-9.22
-8.63
-8.47
-9.24
-11.21
-14.33
-18.14
-22.01
-25.30
-27.72
-29.36
-30.44
-31.06
-31.18
-30.65
-29.20
-26.57
-22.53
-16.98
-10.14
-2.26
6.30
14.91
22.48
27.73
29.68
28.01
23.10
15.73
7.11
-1.45
-9.06
-15.61
-21.41
-26.73
-31.67
-36.43
-41.70
-47.90
-54.60
-60.36
-63.37
-61.86
-55.04
-43.88
-29.26
-15.80
-9.39
-13.51
-26.98
-45.87
-66.02
-84.78
-101.16
-115.20
-127.37
-137.55
-146.07
-152.10
-155.71
-157.88
-159.91
-162.87
-167.39
-173.71
-181.34
-189.28
-196.39
-202.04
-207.04
-211.96
-217.01
-221.87
-225.94
-228.15
-227.31
-222.38
-213.10
-199.84
-183.16
-163.72
-142.14
-118.99
-94.66
-69.18
-42.52
-14.97
12.86
40.12
66.21
90.77
113.56
134.51
153.75
171.40
187.37
201.33
212.66
221.00
226.29
228.66
228.54
226.95
224.96
223.40
222.64
221.97
221.01
219.57
217.62
215.35
214.25
215.75
220.54
228.03
234.87
238.86
238.81
234.30
225.99
217.48
212.51
213.58
220.61
227.88
231.93
231.20
225.26
215.45
207.37
206.47
216.01
235.10
254.02
267.19
272.49
270.18
263.65
262.05
274.52
307.82
363.98
434.07
513.64
600.10
689.43
742.22
724.21
617.13
432.02
244.89
86.67
-32.35
-111.83
-168.14
-209.96
-239.03
-255.47
-259.94
-256.26
-257.84
-271.42
-297.98
-334.62
-373.97
-404.68
-416.97
-405.85
-373.44
-333.12
-295.46
-267.55
-253.28
-251.88
-257.94
-264.42
-264.95
-255.95
-240.52
-221.42
-200.74
-181.48
-166.23
-155.70
-148.51
-142.19
-134.99
-128.50
-124.06
-122.52
-124.00
-126.95
-128.59
-126.02
-117.88
-105.01
-90.69
-77.86
-68.32
-62.13
-57.78
-52.54
-43.41
-28.40
-6.67
21.35
53.78
86.84
115.03
132.23
131.73
112.63
80.02
43.19
11.71
-8.27
-15.96
-14.87
-10.11
-5.29
-1.11
3.42
9.19
15.72
21.38
24.40
24.13
21.29
17.70
15.77
16.95
21.27
27.45
33.65
38.15
40.17
39.60
37.24
34.39
32.06
30.27
28.03
23.92
16.41
4.70
-11.56
-31.46
-53.16
-74.73
-93.81
-109.90
-122.88
-133.84
-141.33
-144.20
-141.71
-134.39
-123.94
-112.22
-99.96
-86.02
-68.28
-44.08
-15.97
10.95
30.89
39.93
38.02
28.81
17.70
9.07
4.54
2.51
0.46
-3.33
-8.79
-14.20
-17.35
-16.77
-12.19
-4.53
4.97
15.43
26.12
36.05
43.69
47.23
45.52
38.90
29.64
20.97
16.07
16.62
22.19
30.73
39.64
46.87
51.30
52.55
50.58
45.67
38.46
30.04
21.84
15.18
10.85
8.81
8.39
8.66
9.01
8.99
8.14
5.85
1.75
-3.52
-8.36
-10.70
-9.25
-4.37
1.77
6.13
6.26
2.11
-3.27
-5.24
-0.29
11.67
26.66
38.20
40.33
30.30
9.01
-17.90
-42.59
-58.73
-64.12
-60.32
-50.17
-35.40
-16.31
6.72
31.59
53.92
68.57
72.29
65.62
52.51
38.47
27.89
22.51
21.51
22.56
23.16
21.58
17.41
10.33
0.57
-11.09
-23.58
-35.86
-47.24
-57.48
-66.56
-74.28
-80.28
-83.86
-84.35
-81.56
-75.96
-68.41
-59.77
-50.61
-41.03
-31.27
-21.47
-11.63
-1.60
8.90
20.06
31.42
41.81
51.22
58.87
62.46
60.44
52.39
39.29
23.16
6.19
-10.15
-25.66
-41.51
-59.10
-78.96
-100.46
-122.11
-142.40
-160.76
-178.18
-197.13
-221.01
-252.52
-292.37
-338.74
-387.43
-432.60
-467.99
-488.17
-489.46
-470.59
-432.38
-377.38
-309.43
-232.86
-151.96
-70.58
8.15
81.88
149.03
209.37
263.45
312.27
357.17
399.79
441.99
485.22
529.63
573.17
612.27
641.75
656.44
653.22
632.46
597.62
553.46
504.02
451.75
399.11
348.00
300.13
257.14
220.25
189.81
164.96
143.91
124.82
108.09
94.14
82.50
71.69
59.90
45.73
28.50
8.21
-25.06
-73.14
-130.09
-185.56
-231.42
-265.64
-291.30
-312.91
-333.44
-353.54
-370.51
-381.10
-383.69
-379.08
-369.53
-357.34
-343.94
-329.81
-313.04
-291.76
-265.59
-236.04
-205.98
-178.43
-155.32
-137.10
-122.89
-111.01
-99.07
-85.36
-69.50
-52.20
-34.61
-17.48
-1.03
14.90
30.48
45.91
61.09
75.56
88.58
99.34
107.15
111.39
111.63
107.78
100.33
90.26
78.78
67.04
55.96
46.12
37.59
29.87
22.12
13.68
4.98
-1.92
-3.46
4.08
22.73
51.13
84.21
114.59
134.84
139.79
127.73
100.37
61.90
17.90
-25.53
-62.16
-86.21
-93.68
-83.69
-58.89
-24.34
14.55
54.03
92.69
130.64
168.01
202.77
230.34
245.30
244.66
230.04
207.55
185.17
169.53
164.52
169.75
181.14
192.69
198.56
194.32
177.18
146.07
102.55
52.81
6.05
-28.35
-44.33
-41.34
-24.89
-4.66
9.02
2.31
-29.17
-77.23
-125.44
-159.71
-175.85
-178.77
-176.46
-174.56
-174.38
-173.06
-167.55
-157.78
-146.94
-139.19
-136.81
-138.95
-142.33
-142.97
-136.92
-122.35
-100.24
-74.25
-48.99
-28.16
-13.02
-2.65
5.23
12.20
19.57
26.77
31.86
34.30
34.16
33.64
35.84
42.95
55.31
71.36
88.09
102.25
110.95
111.88
103.41
84.53
55.34
17.82
-23.94
-64.81
-98.53
-120.15
-127.49
-121.56
-106.20
-86.91
-69.40
-58.11
-55.41
-60.46
-70.40
-80.76
-86.90
-86.19
-78.95
-67.65
-55.27
-44.27
-36.11
-31.63
-30.90
-33.17
-36.89
-40.08
-40.99
-38.88
-34.70
-30.39
-27.88
-27.80
-29.31
-31.05
-32.37
-34.54
-39.98
-51.22
-69.18
-92.22
-116.29
-136.35
-147.93
-147.93
-134.62
-107.12
-65.20
-9.69
56.69
128.76
199.22
259.83
303.31
325.07
324.22
303.50
268.41
225.61
181.11
138.82
100.01
63.96
29.39
-3.77
-33.57
-56.35
-68.12
-66.53
-51.97
-27.74
1.15
29.28
51.97
65.72
68.64
60.84
44.61
24.14
4.20
-11.96
-24.34
-36.45
-53.61
-80.01
-116.01
-157.39
-196.91
-227.18
-243.41
-244.58
-232.81
-211.88
-185.59
-156.67
-126.93
-97.74
-70.14
-44.65
-20.69
3.43
29.81
59.55
92.15
124.57
151.69
168.02
169.90
157.51
135.15
109.95
89.22
79.32
83.44
101.24
129.38
162.30
193.66
217.20
227.43
220.70
197.85
164.05
128.01
99.66
86.71
92.69
116.03
150.75
180.96
192.66
178.59
141.92
93.62
45.10
3.98
-26.60
-46.67
-58.30
-63.96
-67.47
-73.78
-87.58
-112.09
-146.67
-186.49
-224.28
-253.11
-267.77
-266.62
-253.77
-232.48
-206.98
-181.22
-157.98
-138.67
-123.47
-111.03
-99.51
-87.44
-74.10
-60.31
-47.53
-37.10
-29.85
-26.05
-25.16
-26.26
-28.25
-29.83
-30.26
-29.32
-27.00
-23.57
-19.57
-15.56
-12.04
-9.23
-6.88
-4.79
-2.68
-0.36
2.15
4.57
6.58
7.95
8.78
9.58
10.89
13.20
16.76
21.47
26.92
32.46
37.42
41.23
43.57
44.39
43.89
42.52
40.84
39.34
38.28
37.60
37.01
36.09
34.51
32.16
29.22
26.11
23.42
21.54
20.60
20.35
20.36
20.23
19.76
18.97
18.19
17.65
17.30
16.76
15.56
13.42
10.42
6.96
3.49
0.60
-1.46
-2.89
-4.18
-5.60
-6.96
-7.42
-5.97
-1.90
5.46
15.83
27.81
39.13
47.62
52.12
52.89
51.32
49.05
48.47
51.09
56.93
64.54
71.76
76.62
77.93
75.52
70.51
67.03
70.39
85.25
113.28
152.17
195.91
236.52
266.32
271.16
243.54
185.92
110.91
34.97
-29.32
-76.87
-108.49
-127.64
-138.05
-141.32
-138.51
-131.11
-121.50
-112.01
-104.10
-98.07
-93.64
-90.60
-87.95
-85.51
-84.26
-86.46
-93.70
-105.47
-118.32
-126.70
-124.97
-109.30
-80.13
-41.50
-3.26
25.53
40.47
42.98
38.17
31.32
25.55
20.57
13.95
3.30
-11.18
-26.88
-40.04
-47.86
-49.57
-46.43
-40.89
-35.17
-30.42
-25.99
-20.41
-12.16
-0.98
12.24
25.95
38.40
48.10
53.16
52.16
44.02
28.09
3.59
-29.26
-68.02
-107.50
-140.48
-159.86
-161.00
-146.12
-118.84
-85.34
-52.27
-24.57
-4.27
9.37
18.73
26.71
35.76
47.04
60.04
73.17
84.54
92.65
96.75
96.67
92.65
85.15
75.12
63.67
52.27
42.36
34.69
28.76
22.85
14.84
3.42
-10.85
-25.70
-38.05
-44.74
-44.00
-36.13
-23.57
-9.86
1.57
8.69
11.26
10.55
8.51
6.76
5.91
5.62
5.15
4.04
2.38
0.82
0.08
0.60
2.34
4.78
7.22
9.06
9.98
9.86
8.73
6.71
4.13
1.59
0.10
0.86
4.89
12.53
23.11
35.03
46.23
54.92
60.10
61.76
60.61
57.65
53.72
49.32
44.75
40.23
36.10
32.70
30.22
28.50
27.08
25.30
22.64
18.96
14.53
9.93
5.72
2.26
-0.55
-3.04
-5.75
-9.15
-13.56
-18.96
-25.05
-31.21
-36.58
-40.30
-41.69
-40.61
-37.45
-33.07
-28.53
-24.71
-22.07
-20.65
-20.14
-20.12
-20.19
-19.99
-19.21
-17.59
-14.99
-11.51
-7.56
-3.74
-0.74
1.00
1.31
0.39
-1.48
-3.92
-6.73
-9.75
-12.78
-15.55
-17.68
-18.82
-18.71
-17.35
-14.98
-12.03
-8.96
-6.21
-4.02
-2.43
-1.26
-0.20
0.97
2.36
3.81
5.13
6.14
6.80
7.26
7.63
7.96
8.08
7.77
6.77
5.06
2.86
0.55
-1.45
-2.81
-3.40
-3.35
-2.95
-2.65
-2.87
-3.88
-5.70
-8.12
-10.73
-13.21
-15.38
-17.29
-19.12
-21.04
-23.04
-24.95
-26.55
-27.69
-28.41
-28.88
-29.21
-29.32
-28.82
-27.20
-23.96
-18.95
-12.50
-5.35
1.57
7.40
11.62
14.08
15.00
14.79
13.92
12.89
12.14
12.08
12.99
14.95
17.82
21.25
24.75
27.83
30.06
31.08
30.59
28.30
24.10
18.12
10.86
3.14
-4.07
-9.95
-14.00
-16.14
-16.63
-15.87
-14.27
-12.18
-9.89
-7.62
-5.55
-3.72
-2.03
-0.26
1.82
4.33
7.25
10.38
13.44
16.10
18.02
18.89
18.52
16.94
14.41
11.47
8.74
6.71
5.56
5.03
4.62
3.83
2.48
0.80
-0.70
-1.47
-1.29
-0.36
0.82
1.66
1.76
1.01
-0.48
-2.49
-4.84
-7.40
-10.04
-12.51
-14.53
-15.83
-16.31
-16.11
-15.50
-14.75
-14.03
-13.28
-12.34
-11.07
-9.44
-7.64
-5.97
-4.76
-4.19
-4.25
-4.66
-4.99
-4.87
-4.08
-2.67
-0.94
0.78
2.27
3.56
4.86
6.43
8.41
10.76
13.36
16.24
19.55
23.61
28.66
34.70
41.40
48.20
54.51
59.93
64.40
68.09
71.34
74.42
77.43
80.24
82.51
83.73
83.26
80.38
74.50
65.40
53.45
39.67
25.56
12.73
2.39
-5.04
-9.89
-13.05
-15.48
-17.86
-20.47
-23.25
-26.05
-28.83
-31.67
-34.64
-37.67
-40.54
-42.88
-44.36
-44.85
-44.47
-43.57
-42.58
-41.85
-41.54
-41.57
-41.67
-41.45
-40.62
-39.09
-37.03
-34.82
-32.89
-31.50
-30.70
-30.27
-29.98
-29.67
-29.34
-29.14
-29.17
-29.43
-29.77
-29.95
-29.77
-29.12
-28.00
-26.48
-24.64
-22.56
-20.27
-17.87
-15.46
-13.19
-11.19
-9.49
-8.08
-6.87
-5.78
-4.81
-4.06
-3.63
-3.58
-3.84
-4.23
-4.51
-4.56
-4.37
-3.98
-3.43
-2.73
-1.86
-0.91
-0.04
0.55
0.79
0.78
0.80
1.15
1.98
3.21
4.56
5.75
6.56
6.88
6.65
5.79
4.29
2.27
0.02
-2.06
-3.59
-4.40
-4.56
-4.26
-3.67
-2.85
-1.74
-0.27
1.52
3.51
5.47
7.28
8.90
10.39
11.78
13.05
14.06
14.68
14.82
14.49
13.78
12.89
11.95
11.02
10.04
8.84
7.28
5.24
2.72
-0.17
-3.26
-6.31
-9.04
-11.19
-12.57
-13.08
-12.82
-12.01
-11.00
-10.07
-9.46
-9.22
-9.32
-9.69
-10.29
-11.12
-12.24
-13.60
-15.11
-16.52
-17.56
-17.99
-17.76
-16.93
-15.72
-14.41
-13.17
-12.08
-11.09
-10.08
-8.95
-7.64
-6.17
-4.63
-3.12
-1.71
-0.46
0.60
1.43
2.07
2.52
2.87
3.22
3.70
4.40
5.31
6.39
7.54
8.69
9.84
11.01
12.22
13.17
13.60
13.48
13.10
12.94
13.46
14.91
17.29
20.39
23.57
26.26
28.25
29.67
30.92
32.37
34.30
36.88
40.12
43.24
45.63
47.22
48.69
51.00
54.88
60.49
67.23
73.90
76.98
73.61
62.82
45.87
25.22
3.34
-17.89
-37.28
-54.21
-72.55
-95.31
-122.89
-152.82
-181.64
-207.01
-228.32
-246.15
-261.58
-282.01
-312.47
-353.01
-398.57
-442.44
-479.95
-509.38
-530.98
-545.76
-562.99
-589.31
-625.64
-667.03
-706.68
-739.81
-764.31
-779.61
-733.96
-601.77
-393.12
-151.30
75.50
258.58
391.88
482.66
542.24
580.59
596.44
588.55
560.16
520.16
479.03
444.17
418.39
401.15
390.23
376.85
354.77
323.06
286.20
250.54
220.54
197.67
181.29
169.77
157.51
140.65
118.75
94.92
73.51
57.81
48.88
46.98
51.49
59.48
68.46
77.21
85.89
95.02
104.59
113.81
121.55
126.59
127.34
122.74
112.64
97.73
79.18
58.32
36.36
14.48
-6.40
-25.58
-42.67
-57.63
-70.62
-81.89
-91.40
-98.91
-103.98
-106.21
-105.45
-101.84
-95.77
-87.67
-78.75
-69.56
-60.21
-50.39
-39.57
-27.07
-12.24
5.22
24.93
45.44
64.52
79.42
87.85
88.84
83.12
72.87
60.82
49.31
39.64
32.21
26.83
23.30
21.58
21.74
23.59
26.51
29.55
31.72
32.38
31.43
29.26
26.62
24.22
22.50
21.42
20.49
18.97
16.24
12.04
6.67
0.96
-3.89
-6.67
-6.47
-2.91
3.74
12.71
22.86
33.04
42.29
49.89
55.43
58.61
59.32
57.58
53.68
48.22
42.00
35.85
30.43
26.10
22.92
20.78
19.53
19.00
19.06
19.56
20.36
21.35
22.46
23.64
24.78
25.70
26.23
26.21
25.61
24.54
23.13
21.47
19.54
17.18
14.26
10.67
6.45
1.76
-3.15
-8.02
-12.59
-16.71
-20.29
-23.37
-26.10
-28.72
-31.54
-34.80
-38.56
-42.64
-46.54
-49.55
-50.91
-50.07
-46.84
-41.53
-34.83
-27.59
-20.63
-14.50
-9.49
-5.66
-2.92
-1.16
-0.27
-0.15
-0.61
-1.38
-2.15
-2.62
-2.57
-1.97
-0.87
0.54
2.14
3.85
5.60
7.36
9.03
10.44
11.42
11.84
11.71
11.11
10.23
9.25
8.28
7.35
6.41
5.38
4.20
2.93
1.66
0.55
-0.35
-1.10
-1.95
-3.21
-5.23
-8.22
-12.20
-16.92
-21.87
-26.36
-29.64
-31.04
-30.13
-26.84
-21.48
-14.68
-7.24
0.02
6.41
11.48
15.03
17.02
17.53
16.70
14.74
11.91
8.61
5.28
2.36
0.13
-1.31
-2.01
-2.11
-1.70
-0.80
0.62
2.58
5.00
7.71
10.51
13.21
15.70
17.95
19.96
21.75
23.30
24.56
25.42
25.72
25.35
24.25
22.45
20.11
17.44
14.67
11.95
9.37
6.91
4.44
1.74
-1.41
-5.17
-9.50
-14.01
-17.96
-20.44
-20.56
-17.79
-12.15
-4.25
4.89
14.06
22.20
28.56
32.76
34.75
34.71
32.95
29.85
25.83
21.28
16.60
12.04
7.73
3.62
-0.49
-4.80
-9.43
-14.31
-19.22
-23.88
-28.10
-31.86
-35.33
-38.77
-42.39
-46.24
-50.19
-53.98
-57.31
-59.98
-61.96
-63.47
-64.84
-66.45
-68.52
-71.08
-73.95
-76.87
-79.64
-82.15
-84.42
-86.51
-88.40
-90.01
-91.14
-91.43
-90.32
-86.93
-80.07
-68.49
-51.17
-27.73
1.44
35.24
72.20
110.77
149.50
187.01
221.88
252.62
277.75
296.02
306.55
309.00
303.50
290.59
271.14
246.24
217.09
184.96
151.01
116.33
81.91
48.73
17.69
-10.46
-35.23
-56.47
-74.27
-88.94
-100.79
-110.16
-117.28
-122.37
-125.62
-127.24
-127.43
-126.36
-124.18
-120.99
-116.83
-111.56
-105.03
-97.21
-88.26
-78.65
-69.02
-60.05
-52.23
-45.68
-39.69
-33.20
-25.09
-14.58
-1.59
13.22
28.72
43.71
57.32
69.87
82.08
94.51
107.02
118.58
127.71
133.16
134.60
132.68
129.88
128.71
130.79
136.18
143.35
150.08
154.45
155.68
154.17
152.76
154.56
162.06
176.30
196.26
219.23
241.54
259.41
260.40
236.14
184.14
110.05
26.33
-53.59
-120.66
-172.18
-210.14
-238.06
-256.97
-266.43
-265.80
-255.60
-238.86
-220.07
-203.40
-191.47
-185.15
-182.72
-181.58
-178.65
-170.30
-153.54
-126.87
-90.85
-48.88
-6.57
30.49
57.91
71.80
73.40
66.22
53.91
39.08
22.96
6.77
-7.47
-17.58
-22.18
-21.04
-16.26
-11.43
-10.43
-16.86
-32.62
-57.12
-87.09
-116.90
-139.45
-149.13
-143.73
-123.56
-94.77
-64.64
-38.60
-18.57
-3.34
9.71
21.91
32.40
39.19
39.66
32.40
17.61
-2.92
-26.40
-49.42
-68.29
-80.85
-86.08
-84.15
-75.23
-59.73
-38.93
-16.52
3.72
17.26
20.78
14.11
0.40
-15.05
-27.27
-33.06
-32.70
-28.28
-21.84
-14.16
-4.92
6.00
17.65
27.97
34.69
36.52
34.13
29.54
25.19
22.88
23.21
25.59
28.68
31.05
31.56
29.60
24.88
17.67
9.48
3.09
1.54
7.03
19.57
36.44
53.15
65.08
68.90
64.51
54.16
41.02
27.76
15.86
5.79
-2.28
-8.07
-11.21
-11.49
-9.27
-5.37
-0.77
3.48
6.04
5.60
1.15
-7.48
-19.32
-32.50
-44.81
-54.46
-60.71
-64.12
-65.51
-65.75
-64.64
-61.38
-55.18
-45.98
-34.71
-23.10
-12.93
-5.22
-0.01
3.49
6.34
9.35
12.82
16.54
19.92
22.13
22.46
20.40
16.06
10.26
4.41
0.16
-1.29
0.27
3.95
8.14
11.16
11.93
10.25
6.65
2.05
-2.81
-7.55
-12.15
-16.72
-21.28
-25.53
-28.82
-30.29
-29.16
-25.03
-18.16
-9.45
-0.40
7.41
12.82
15.41
15.48
13.75
11.00
7.79
4.48
1.29
-1.52
-3.61
-4.59
-4.31
-2.90
-0.69
2.05
5.21
8.79
12.79
16.30
18.50
18.68
16.63
12.84
8.35
4.31
1.49
0.06
-0.31
0.07
1.08
2.78
5.20
8.05
10.61
11.98
11.60
9.53
6.59
3.81
1.93
0.95
0.10
-1.71
-5.32
-10.82
-17.37
-23.44
-27.38
-27.88
-24.27
-16.63
-5.86
6.47
18.32
27.62
33.00
34.31
32.66
29.97
28.01
27.61
28.42
29.34
29.35
28.25
26.78
26.16
27.20
29.77
32.74
34.58
34.18
31.38
27.00
22.35
18.52
15.87
13.96
11.90
8.94
4.91
0.40
-3.65
-6.50
-8.04
-8.90
-10.05
-12.17
-15.23
-18.52
-21.00
-21.89
-21.11
-19.35
-17.69
-17.13
-17.94
-19.41
-19.96
-17.57
-10.46
2.19
19.82
40.44
61.14
78.83
90.94
95.93
93.32
83.59
67.98
48.41
27.41
7.77
-8.07
-18.97
-25.41
-29.38
-33.37
-39.21
-47.26
-56.39
-64.82
-71.14
-74.88
-76.32
-75.81
-73.21
-67.95
-59.67
-48.71
-36.52
-25.21
-16.76
-12.21
-11.40
-13.31
-16.69
-20.76
-25.21
-30.30
-36.56
-44.57
-54.53
-66.20
-78.85
-91.44
-102.91
-111.84
-116.95
-117.16
-111.94
-101.26
-85.80
-66.93
-46.49
-26.09
-5.81
15.69
40.38
69.29
101.59
134.39
164.00
187.64
201.41
204.13
196.75
181.25
159.23
132.10
101.62
70.84
43.31
21.49
5.78
-5.73
-14.55
-22.01
-26.60
-24.67
-12.73
9.23
36.66
62.20
78.60
81.56
70.69
49.08
19.15
-16.06
-54.84
-96.39
-138.90
-177.30
-203.39
-209.40
-191.58
-152.80
-101.31
-47.54
-0.00
37.12
65.22
87.32
105.02
118.47
127.02
130.74
130.68
128.82
127.35
125.22
121.02
112.62
98.49
78.81
55.94
33.52
14.98
1.98
-6.41
-13.27
-22.92
-38.94
-62.74
-92.96
-126.15
-157.96
-184.33
-202.21
-209.65
-206.08
-192.18
-170.07
-143.23
-116.07
-92.83
-76.21
-66.46
-61.29
-57.18
-50.71
-39.59
-23.03
-1.38
24.37
52.96
82.95
112.76
140.56
164.64
183.66
196.83
203.92
204.93
200.09
189.84
175.12
157.53
139.11
121.89
107.16
95.10
84.81
74.93
64.20
51.84
37.65
21.92
5.33
-11.20
-26.99
-42.10
-57.54
-74.75
-94.46
-115.33
-133.75
-144.97
-145.52
-135.33
-118.32
-100.78
-88.62
-84.71
-88.00
-94.43
-99.11
-98.15
-89.75
-74.09
-52.77
-28.22
-3.11
19.91
38.68
51.88
59.29
61.73
60.72
57.95
54.89
52.54
51.39
51.31
51.78
52.09
51.72
50.66
49.56
49.67
52.32
58.38
67.85
79.78
92.52
104.35
114.01
121.09
125.76
128.19
127.90
123.36
112.17
91.72
60.36
18.44
-31.19
-83.49
-132.36
-172.19
-199.33
-212.82
-214.21
-206.42
-192.37
-173.93
-151.72
-125.69
-95.88
-63.13
-29.22
3.32
31.95
54.52
69.26
74.68
69.77
54.52
30.50
0.91
-30.64
-60.71
-86.93
-108.26
-124.63
-136.26
-142.94
-143.75
-137.41
-124.03
-104.85
-82.05
-58.34
-36.44
-18.87
-7.58
-3.52
-6.33
-15.60
-30.10
-47.91
-66.76
-84.51
-99.42
-110.03
-114.90
-105.91
-78.73
-34.90
17.44
67.52
107.41
134.76
151.66
161.66
167.06
166.47
157.12
137.31
108.42
75.03
43.04
17.31
0.01
-9.57
-15.30
-21.29
-29.97
-41.18
-52.73
-61.91
-66.90
-68.76
-68.27
-67.23
-66.88
-66.94
-65.54
-60.21
-49.27
-33.02
-13.76
5.41
21.55
33.47
41.92
48.63
54.88
61.19
67.27
72.43
76.23
78.01
77.00
72.30
63.66
53.04
43.28
37.85
39.28
47.89
60.99
73.76
80.84
78.28
63.61
39.87
14.04
-5.68
-13.03
-6.15
12.13
36.41
61.00
82.18
99.43
114.23
127.87
139.82
147.41
147.43
138.34
121.53
101.07
81.87
67.16
57.13
49.57
41.69
32.51
23.38
17.18
16.72
23.10
34.77
48.04
58.83
64.34
64.04
59.47
53.17
47.36
43.10
40.01
36.77
31.99
24.93
15.79
5.59
-4.47
-13.42
-20.95
-27.43
-33.66
-40.38
-47.84
-55.70
-63.15
-69.36
-73.86
-76.64
-78.08
-78.60
-78.43
-77.56
-75.96
-73.76
-71.40
-69.49
-68.59
-68.91
-70.11
-71.42
-71.96
-71.15
-68.98
-65.87
-62.46
-59.24
-56.33
-53.51
-50.43
-47.04
-43.71
-41.32
-40.93
-43.40
-48.90
-56.75
-65.51
-73.46
-79.13
-81.75
-81.34
-78.43
-73.66
-67.36
-59.52
-49.98
-38.88
-26.77
-14.60
-3.33
6.35
14.09
19.87
23.67
25.34
24.57
21.02
14.57
5.26
-6.71
-21.30
-38.43
-57.81
-78.82
-100.39
-121.09
-139.40
-153.94
-163.66
-168.19
-167.57
-162.19
-152.88
-140.88
-127.76
-115.13
-104.30
-96.07
-91.02
-89.07
-89.69
-92.09
-95.46
-99.05
-102.20
-104.34
-104.98
-104.22
-101.97
-97.75
-90.57
-79.05
-61.86
-38.14
-8.08
29.79
73.46
118.55
159.88
193.59
218.54
235.90
247.68
254.95
257.64
254.53
244.87
229.24
209.53
188.29
167.74
149.32
133.50
120.60
110.81
104.71
102.91
105.18
109.68
113.02
112.81
106.47
93.97
77.97
62.77
51.86
45.61
40.74
32.08
16.02
-7.00
-31.89
-51.63
-61.38
-61.52
-57.82
-58.01
-67.10
-84.17
-102.93
-115.37
-116.07
-105.15
-87.73
-70.91
-59.38
-54.36
-53.54
-53.26
-51.21
-47.24
-42.71
-38.90
-35.99
-33.19
-29.20
-23.43
-15.88
-6.65
5.65
22.89
46.79
77.11
110.63
142.15
165.39
179.66
183.10
174.96
156.94
133.60
111.55
95.34
90.59
99.67
118.17
136.88
144.58
133.41
102.87
59.45
12.51
-30.18
-66.40
-98.98
-130.12
-157.87
-175.95
-176.62
-155.30
-113.64
-57.05
3.46
56.29
92.91
109.55
106.76
87.72
56.43
17.61
-22.60
-56.26
-74.49
-73.42
-58.23
-40.73
-32.43
-38.34
-55.29
-75.05
-89.87
-96.33
-96.16
-93.72
-92.08
-90.99
-87.89
-80.38
-68.31
-54.28
-42.12
-34.94
-33.57
-36.17
-39.22
-39.68
-36.41
-30.41
-24.10
-19.95
-19.45
-22.41
-27.67
-32.21
-33.43
-30.08
-22.55
-12.42
-1.74
7.75
15.16
20.66
25.19
29.66
34.43
39.29
43.57
46.49
47.49
46.37
43.37
39.06
33.95
28.53
23.16
18.28
14.19
11.10
9.00
7.68
6.84
6.17
5.48
4.59
3.38
1.71
-0.60
-3.66
-7.51
-12.14
-17.55
-23.80
-30.88
-38.47
-45.78
-51.55
-54.33
-52.97
-47.10
-37.31
-24.87
-11.28
2.21
14.81
26.10
35.81
43.60
49.13
52.23
53.15
52.55
51.48
50.89
51.44
53.19
55.61
57.74
58.59
57.35
53.68
47.60
39.37
29.36
17.94
5.52
-7.33
-19.93
-31.75
-42.59
-52.65
-62.47
-72.34
-81.81
-89.70
-94.76
-96.48
-95.54
-93.34
-91.08
-88.82
-85.41
-79.23
-69.39
-56.35
-41.57
-26.51
-11.56
4.21
22.31
43.74
68.23
94.26
119.81
143.10
162.99
179.01
191.15
199.86
206.09
211.08
216.19
222.48
230.22
238.58
245.65
248.82
245.37
233.32
212.14
183.14
149.20
113.94
80.59
50.99
25.26
2.21
-19.78
-41.86
-64.32
-86.65
-107.94
-127.28
-143.93
-157.29
-166.74
-171.71
-171.84
-167.24
-158.67
-147.48
-135.59
-125.14
-118.13
-115.77
-117.84
-122.36
-125.97
-125.05
-117.16
-102.24
-82.65
-62.19
-44.44
-31.38
-22.85
-17.14
-12.10
-6.10
1.57
10.91
21.57
32.92
43.85
52.93
58.55
59.51
55.55
47.34
36.08
22.97
8.92
-5.12
-17.65
-26.47
-29.25
-24.65
-13.45
1.32
15.27
24.34
26.26
21.22
11.35
-0.42
-11.53
-20.54
-27.21
-32.07
-35.90
-39.33
-42.63
-45.70
-48.14
-49.56
-49.82
-49.04
-47.54
-45.62
-43.42
-40.93
-38.18
-35.48
-33.38
-32.46
-33.00
-34.77
-37.13
-39.32
-41.01
-42.49
-44.64
-48.37
-54.03
-60.89
-67.24
-71.06
-70.79
-66.03
-57.67
-47.40
-37.05
-27.94
-20.61
-14.81
-9.81
-4.77
0.85
6.91
12.33
14.80
11.32
-0.66
-21.81
-49.92
-80.00
-105.87
-122.47
-127.80
-123.49
-113.55
-102.27
-92.25
-83.75
-75.50
-66.09
-55.02
-42.90
-30.58
-18.28
-5.31
9.40
26.26
44.29
61.33
74.94
83.22
85.50
82.33
75.16
65.88
56.54
48.95
44.46
44.10
47.85
54.72
62.89
70.30
75.62
78.83
81.10
84.25
90.35
99.93
112.18
124.85
135.20
141.16
142.11
138.70
132.52
126.42
122.93
124.35
131.41
142.67
154.49
162.06
161.17
145.09
112.54
68.00
21.83
-14.39
-33.07
-33.40
-20.46
-2.01
14.82
29.36
40.50
47.81
50.59
48.02
39.95
27.24
12.02
-3.20
-15.85
-27.28
-38.74
-52.01
-68.51
-88.37
-110.20
-131.77
-151.21
-167.30
-180.35
-190.66
-198.53
-203.92
-206.57
-206.18
-202.77
-196.67
-188.15
-177.63
-165.05
-150.46
-134.08
-116.24
-97.00
-76.05
-52.81
-26.83
1.47
30.89
59.33
84.40
104.18
117.77
125.47
128.41
128.15
126.02
123.01
119.52
115.61
111.32
107.03
103.52
101.82
102.82
106.84
113.53
122.02
131.26
140.36
148.79
156.25
162.62
167.71
171.39
173.56
174.19
173.40
171.37
168.30
164.36
159.56
153.75
146.61
137.84
127.27
114.97
101.21
86.40
70.94
54.98
38.35
20.52
0.80
-21.29
-45.58
-71.07
-95.94
-118.18
-136.16
-148.91
-156.00
-157.06
-151.51
-138.73
-118.72
-92.73
-63.43
-34.34
-8.79
10.80
23.34
28.81
27.72
20.83
8.97
-7.04
-26.63
-49.69
-76.51
-107.30
-141.36
-176.31
-207.95
-230.84
-239.57
-230.29
-202.04
-157.58
-103.05
-46.81
2.75
39.44
60.70
67.71
64.09
54.00
40.72
25.95
10.19
-6.69
-24.80
-43.93
-63.17
-80.41
-92.21
-94.37
-83.46
-58.65
-22.93
17.34
54.42
81.72
95.67
95.96
84.45
63.76
36.37
4.71
-28.20
-58.36
-81.20
-92.85
-91.60
-78.72
-58.25
-35.66
-16.29
-3.62
1.38
-0.13
-5.92
-13.85
-22.51
-31.22
-39.67
-47.78
-55.25
-61.54
-66.23
-69.29
-71.11
-72.34
-73.49
-74.74
-76.20
-77.63
-78.62
-78.95
-78.90
-79.12
-80.31
-82.58
-85.10
-86.67
-85.83
-81.63
-74.14
-64.66
-55.08
-46.88
-40.47
-30.63
-13.95
9.54
36.28
61.48
81.96
97.27
108.67
117.47
123.83
128.77
133.95
141.82
154.72
173.37
195.76
217.37
232.72
233.44
214.71
178.40
133.25
90.68
58.92
39.36
27.25
15.47
-0.92
-22.05
-43.93
-61.21
-70.50
-72.18
-69.78
-67.65
-68.45
-72.02
-75.96
-77.59
-75.49
-70.22
-63.74
-58.18
-54.90
-55.13
-57.29
-59.12
-58.46
-53.76
-44.48
-31.22
-15.54
0.50
14.86
26.26
34.26
39.30
42.47
44.87
47.25
49.84
52.47
54.77
56.42
57.03
56.29
53.99
50.10
44.74
38.25
31.18
24.03
17.11
10.10
2.28
-7.17
-18.80
-32.62
-48.02
-63.91
-79.05
-92.41
-103.30
-111.35
-116.21
-117.43
-114.56
-107.28
-95.49
-79.20
-58.42
-33.26
-4.46
26.05
54.95
78.29
92.94
97.92
94.81
86.73
76.78
66.89
57.83
50.37
46.30
48.46
59.30
79.08
105.01
132.03
154.92
170.38
177.86
178.74
174.67
166.29
153.00
133.92
109.06
79.89
49.04
19.33
-7.35
-30.45
-50.57
-68.81
-86.01
-102.40
-117.51
-130.49
-140.52
-147.07
-150.03
-149.66
-146.44
-140.94
-133.72
-125.32
-116.27
-107.08
-98.23
-90.12
-82.97
-76.81
-71.51
-66.87
-62.80
-59.37
-56.78
-55.15
-54.32
-53.75
-52.64
-50.21
-45.95
-39.75
-31.88
-22.87
-13.50
-4.64
2.70
7.67
9.71
8.74
5.14
-0.54
-7.74
-16.04
-24.99
-33.83
-41.53
-46.94
-49.38
-48.95
-46.60
-43.66
-41.09
-38.95
-36.52
-32.83
-27.41
-20.71
-13.83
-7.76
-2.69
2.14
7.97
15.63
24.96
34.97
44.41
52.58
59.58
65.97
72.11
77.73
82.09
84.70
85.88
86.73
88.55
91.84
95.81
98.57
97.91
92.27
81.38
66.33
49.02
31.60
15.90
3.07
-6.48
-13.06
-17.46
-20.56
-23.00
-24.92
-25.90
-25.18
-21.98
-15.69
-6.10
6.51
21.34
37.16
52.45
65.73
75.83
82.21
84.93
84.63
82.18
78.42
73.97
69.04
63.46
56.72
48.14
37.24
24.03
9.13
-6.20
-20.45
-32.22
-40.61
-45.38
-46.84
-45.61
-42.35
-37.56
-31.48
-24.09
-15.09
-4.02
9.45
25.05
41.61
57.15
69.31
76.21
77.15
72.91
65.49
57.42
50.94
47.34
46.74
48.05
49.41
48.77
44.54
36.06
23.79
9.08
-6.48
-21.54
-35.47
-48.15
-59.60
-69.59
-77.58
-82.97
-85.46
-85.34
-83.34
-80.32
-76.78
-72.57
-67.00
-59.28
-49.23
-37.19
-24.21
-11.48
-0.15
8.91
15.26
18.74
19.47
17.52
13.46
8.01
2.22
-3.12
-7.55
-10.79
-12.88
-13.96
-14.57
-14.48
-13.17
-9.56
-2.87
7.02
19.87
34.94
51.64
69.29
88.42
105.75
117.88
121.64
115.60
101.49
83.28
70.21
65.31
68.52
77.31
88.29
98.10
101.63
96.91
84.16
65.23
42.38
19.29
0.32
-9.92
-8.62
3.02
19.04
29.67
25.16
-0.41
-45.71
-103.14
-162.04
-211.47
-242.57
-251.41
-240.09
-214.40
-180.89
-144.16
-107.30
-72.80
-43.01
-20.08
-4.99
2.76
5.40
5.89
6.98
10.17
15.41
21.59
27.05
30.46
31.43
30.71
29.69
29.82
31.85
35.60
40.27
44.83
48.38
50.57
51.69
52.42
53.39
54.89
56.66
58.16
58.76
57.97
55.63
51.99
47.48
42.61
37.88
33.60
29.97
27.14
25.21
24.37
24.87
26.68
29.76
34.08
39.52
45.64
52.08
58.74
65.85
74.00
82.93
92.33
102.02
111.90
121.61
131.01
140.14
149.36
159.37
169.63
179.56
188.50
195.84
200.35
201.04
197.25
188.34
178.89
170.24
162.82
156.62
151.33
144.52
134.50
121.02
105.54
91.69
79.31
67.11
53.67
37.73
14.78
-17.53
-58.14
-102.21
-140.60
-171.26
-195.31
-214.93
-233.02
-258.15
-295.94
-347.01
-406.09
-461.14
-510.58
-557.49
-605.78
-659.34
-727.70
-815.05
-918.07
-1024.77
-1113.80
-1177.39
-1214.78
-1228.20
-1166.79
-1005.96
-758.13
-471.21
-239.02
-66.60
61.92
162.43
255.65
345.39
419.73
471.53
491.88
480.78
454.22
422.29
391.75
366.29
345.03
320.23
287.06
245.89
203.00
173.63
162.17
166.92
183.97
208.52
233.84
256.50
273.28
284.87
297.02
309.61
320.09
325.94
324.96
314.81
295.33
268.10
237.36
209.46
186.72
168.90
154.71
142.36
129.82
116.20
101.25
86.18
73.27
63.33
56.17
51.10
47.17
43.47
39.71
35.71
31.81
28.62
26.53
25.59
25.38
26.75
27.77
27.47
25.47
22.10
18.22
14.80
12.54
11.67
11.91
12.60
13.39
14.28
15.93
19.45
25.94
35.90
48.95
63.92
79.41
94.18
107.59
119.87
131.92
145.04
160.73
180.38
204.79
233.42
263.18
288.65
303.60
303.23
286.22
255.25
215.70
172.03
130.58
95.49
67.80
46.36
29.44
15.90
5.27
-2.78
-9.10
-14.79
-21.31
-29.40
-38.67
-47.88
-55.63
-61.36
-65.70
-70.14
-76.10
-84.73
-96.14
-109.36
-122.92
-135.74
-147.71
-159.81
-173.55
-189.99
-209.49
-231.56
-255.15
-279.32
-303.51
-327.60
-351.37
-374.09
-394.20
-409.78
-418.90
-420.19
-413.09
-397.78
-374.98
-345.66
-311.12
-272.99
-233.18
-193.25
-153.68
-113.26
-69.54
-20.32
34.33
90.69
141.81
179.94
200.01
202.18
192.02
177.95
167.16
162.52
161.71
159.36
150.58
133.82
111.73
89.73
73.33
65.80
67.18
74.80
84.81
93.80
99.92
103.16
104.81
106.46
109.02
112.22
114.69
114.78
111.29
104.05
94.04
82.98
72.95
65.99
64.07
69.00
82.02
103.17
130.69
161.41
191.61
218.38
240.59
258.73
274.11
287.55
298.65
305.93
307.77
303.34
293.07
278.45
261.30
243.00
224.33
205.64
187.38
170.35
155.50
143.61
134.73
128.02
121.96
114.83
105.31
93.07
78.74
63.66
49.21
36.28
24.88
14.25
3.31
-8.77
-22.11
-36.03
-49.32
-60.74
-69.57
-75.93
-80.68
-85.03
-89.99
-95.96
-102.60
-109.19
-114.94
-119.52
-123.22
-126.83
-131.36
-137.86
-147.19
-159.87
-175.70
-193.39
-210.25
-222.67
-227.21
-221.96
-207.51
-187.06
-165.33
-146.75
-133.88
-126.79
-123.72
-122.56
-122.21
-123.08
-126.49
-133.55
-144.33
-157.70
-172.09
-186.28
-199.69
-212.10
-222.91
-230.66
-233.47
-230.03
-220.58
-207.25
-193.16
-180.95
-171.41
-163.08
-153.07
-138.68
-118.98
-95.46
-71.31
-49.87
-32.92
-20.06
-9.32
1.23
12.25
22.76
31.08
36.09
37.81
36.87
33.38
26.07
12.78
-8.06
-35.81
-67.17
-97.40
-122.59
-141.23
-154.44
-164.38
-172.28
-177.20
-176.54
-167.92
-151.10
-128.94
-106.40
-88.29
-76.80
-70.34
-64.14
-52.31
-30.76
1.75
43.71
91.68
141.42
188.86
230.49
263.23
284.26
290.60
280.33
253.63
213.10
162.97
107.85
51.40
-4.77
-61.34
-121.62
-188.24
-260.57
-333.86
-400.48
-452.65
-485.31
-498.32
-496.82
-492.59
-495.91
-510.45
-531.84
-551.01
-558.55
-547.94
-517.18
-468.55
-413.69
-362.08
-316.38
-273.11
-228.01
-179.67
-128.86
-76.45
-22.37
23.39
54.33
71.25
80.12
85.37
86.41
80.93
68.27
49.98
14.73
-44.10
-122.72
-209.26
-292.75
-369.86
-442.33
-513.62
-499.36
-361.45
-129.51
121.09
330.56
480.92
579.67
642.68
684.58
715.05
724.89
707.48
667.21
612.43
560.38
520.33
495.00
483.82
483.67
478.84
457.70
418.63
368.65
316.19
263.54
208.03
152.57
106.93
70.35
40.54
15.93
-3.12
-15.14
-20.45
-19.75
-13.37
-2.61
6.68
10.08
6.59
-1.38
-10.33
-18.49
-25.10
-29.54
-31.64
-32.91
-33.75
-33.01
-28.53
-18.47
-2.87
16.68
37.84
57.66
73.13
82.44
85.17
82.25
75.58
67.35
59.56
53.70
50.04
47.57
44.69
39.73
31.94
21.60
9.99
-0.97
-9.64
-15.47
-18.65
-19.81
-20.29
-22.41
-29.59
-45.25
-70.64
-102.93
-135.45
-159.76
-169.44
-163.45
-146.05
-124.61
-105.37
-91.14
-78.84
-63.96
-43.13
-15.98
14.94
46.43
76.27
103.99
129.23
152.25
172.21
187.30
196.53
197.78
190.80
177.05
159.11
139.73
121.19
104.28
88.71
73.63
58.11
42.15
26.41
12.04
0.06
-8.80
-14.70
-18.38
-20.86
-23.14
-25.68
-28.39
-30.96
-33.13
-34.72
-35.90
-37.10
-38.71
-41.18
-44.62
-48.78
-53.36
-58.15
-62.97
-67.83
-72.82
-78.06
-83.71
-89.88
-96.26
-102.67
-108.98
-115.09
-120.96
-126.59
-132.02
-137.39
-142.87
-148.16
-153.05
-157.38
-160.90
-163.28
-164.07
-162.53
-157.53
-151.07
-143.67
-135.56
-126.87
-117.63
-107.92
-97.85
-87.63
-77.59
-68.14
-59.22
-50.93
-43.37
-36.67
-30.94
-26.27
-22.71
-20.27
-18.91
-18.12
-17.45
-16.49
-14.93
-12.63
-9.64
-6.20
-2.64
0.68
3.78
6.82
10.04
13.68
17.87
22.56
27.44
32.17
36.51
40.64
45.01
50.28
56.99
65.34
75.00
85.19
95.02
103.85
111.71
119.25
127.53
137.49
149.54
163.22
177.51
191.19
203.53
214.61
225.33
237.08
251.24
268.93
290.74
316.58
345.29
374.38
400.04
418.01
424.92
419.70
404.29
382.86
360.00
338.69
319.27
299.93
278.42
253.91
227.69
202.50
180.90
163.81
150.05
137.35
123.84
109.20
94.95
83.44
76.54
74.55
76.00
78.23
78.48
74.73
66.16
52.99
36.02
16.18
-5.79
-29.37
-54.14
-79.52
-104.65
-128.46
-149.90
-168.30
-183.46
-195.62
-205.28
-213.01
-219.43
-225.31
-231.41
-238.16
-245.34
-251.90
-256.37
-257.50
-254.95
-249.48
-242.43
-234.90
-227.15
-218.56
-208.16
-195.31
-180.18
-163.59
-146.67
-130.30
-114.91
-100.37
-86.15
-71.43
-55.33
-37.09
-16.38
6.53
30.80
55.28
78.88
100.84
120.77
138.49
153.80
166.37
175.97
182.73
187.36
191.13
195.37
200.86
207.33
213.34
216.64
215.02
207.24
193.67
176.39
158.42
142.59
130.43
121.51
113.72
104.06
89.73
69.04
41.61
8.00
-30.77
-73.54
-119.04
-165.55
-210.77
-252.05
-287.03
-314.46
-334.64
-349.14
-359.96
-368.20
-373.29
-372.78
-363.29
-341.93
-307.73
-262.23
-209.15
-153.24
-98.90
-49.25
-5.89
30.67
60.58
84.31
102.63
116.77
128.18
137.97
146.17
151.41
151.45
144.42
130.10
110.40
88.73
68.46
51.65
38.47
27.72
17.95
8.37
-0.91
-9.34
-16.58
-22.81
-28.59
-34.33
-40.04
-45.44
-50.27
-54.72
-59.29
-64.51
-70.58
-76.98
-82.58
-85.94
-85.85
-81.67
-73.58
-62.38
-49.16
-34.96
-20.35
-5.45
9.88
25.79
42.10
58.17
72.98
85.35
94.20
98.92
99.50
96.48
90.75
83.07
73.76
62.56
49.07
33.28
16.15
-0.38
-14.15
-23.73
-29.22
-32.07
-34.20
-36.84
-40.07
-43.23
-45.86
-48.31
-51.39
-55.44
-59.53
-61.57
-59.59
-53.18
-44.04
-34.97
-27.97
-22.66
-16.43
-6.10
9.74
29.54
49.37
65.11
74.45
77.62
76.33
72.12
65.14
54.45
39.30
20.40
0.20
-18.02
-31.42
-38.50
-39.04
-33.30
-21.37
-3.37
19.71
45.13
68.34
84.24
89.00
81.60
64.23
41.45
18.72
0.59
-10.33
-13.81
-11.51
-6.29
-0.99
2.49
3.89
4.67
6.91
12.38
21.66
34.01
47.72
60.66
71.00
77.32
78.75
74.75
65.35
51.58
35.66
20.42
8.62
2.08
-0.35
-1.03
-3.40
-10.87
-25.57
-47.60
-75.43
-106.60
-138.29
-167.92
-193.10
-212.12
-224.02
-230.27
-231.72
-228.71
-221.46
-210.07
-194.89
-176.75
-157.33
-138.75
-122.60
-109.67
-98.85
-88.08
-75.44
-59.98
-42.01
-23.05
-5.11
10.66
23.41
34.25
45.14
58.32
75.79
98.99
128.49
164.01
205.25
246.58
282.11
305.76
313.26
303.90
280.80
249.19
213.93
184.24
161.22
144.73
134.89
132.47
137.96
150.36
166.76
176.63
172.74
150.52
110.97
58.89
0.55
-58.31
-113.39
-161.66
-200.96
-229.67
-248.58
-258.59
-261.17
-258.06
-250.74
-240.27
-227.48
-213.44
-198.76
-184.03
-169.55
-155.26
-140.89
-126.19
-111.18
-96.20
-81.88
-68.29
-55.54
-43.44
-31.68
-20.04
-8.53
2.66
13.16
22.40
29.97
35.47
38.81
40.36
40.86
41.15
41.89
43.24
44.85
46.20
46.95
47.17
47.42
48.57
51.34
56.02
62.28
69.22
75.62
80.30
82.35
81.34
77.27
70.56
61.97
52.42
42.83
33.99
26.45
20.54
16.37
13.92
12.91
12.93
13.31
13.30
12.30
10.04
6.71
2.99
-0.26
-2.33
-2.97
-2.53
-1.88
-2.11
-4.01
-7.74
-12.41
-16.46
-18.18
-16.31
-10.55
-1.83
8.11
17.52
25.34
32.11
39.40
49.28
63.31
81.48
101.55
119.28
129.35
126.76
108.90
76.29
33.46
-11.36
-47.62
-64.97
-56.19
-19.89
38.35
107.58
173.64
223.38
248.47
247.16
223.58
185.65
142.18
97.35
55.64
20.49
-5.77
-21.94
-28.38
-27.33
-22.20
-16.40
-12.08
-8.74
-4.98
0.66
8.46
17.71
24.97
26.39
19.41
3.69
-18.58
-44.96
-73.68
-104.46
-136.71
-170.59
-206.44
-244.40
-283.74
-321.28
-351.97
-368.82
-364.90
-336.71
-287.53
-227.43
-170.53
-131.95
-116.60
-121.74
-138.30
-154.67
-161.06
-152.87
-131.01
-100.21
-66.36
-33.92
-6.03
16.07
32.36
43.36
49.34
50.78
48.82
45.10
42.50
43.47
49.44
60.01
73.02
85.41
94.70
100.17
103.03
105.77
110.16
116.52
123.57
129.32
132.26
132.29
130.82
129.92
131.40
135.69
141.78
147.72
151.43
151.40
146.95
138.05
125.06
108.64
89.83
70.36
52.69
39.54
32.96
33.35
39.10
47.21
54.52
59.07
60.67
60.52
60.10
60.05
59.77
57.66
52.07
42.13
28.12
11.42
-6.04
-22.51
-37.04
-49.94
-62.60
-76.85
-93.88
-113.25
-132.74
-149.22
-160.15
-164.90
-165.06
-163.46
-162.63
-163.60
-165.68
-167.29
-166.98
-163.82
-157.18
-146.25
-129.90
-107.48
-79.73
-49.37
-20.34
3.60
20.56
31.04
37.36
42.28
47.66
54.03
60.97
67.84
74.18
79.57
83.32
84.50
82.31
76.51
67.58
56.35
43.60
29.76
15.25
0.76
-12.73
-24.45
-34.50
-43.83
-53.57
-63.92
-73.45
-79.51
-79.74
-73.63
-63.24
-52.35
-44.55
-41.45
-41.79
-42.13
-38.54
-28.45
-11.81
8.82
29.38
45.88
55.89
59.26
57.76
53.96
49.86
46.13
42.28
37.58
32.06
26.80
23.35
22.69
24.42
26.76
27.48
25.06
19.45
12.10
5.12
0.27
-1.85
-1.89
-1.38
-2.04
-5.02
-10.22
-16.15
-20.07
-18.86
-10.38
5.50
26.61
49.14
69.01
83.07
89.88
89.67
83.74
74.02
62.64
51.73
43.10
37.87
36.12
36.72
37.50
35.77
29.15
16.41
-1.75
-22.52
-41.67
-55.09
-60.57
-58.99
-54.06
-50.46
-51.58
-58.27
-68.88
-80.78
-92.17
-102.83
-113.71
-125.70
-138.74
-151.68
-163.05
-171.87
-178.16
-182.86
-187.34
-192.87
-200.33
-210.23
-222.86
-238.74
-258.72
-283.52
-312.99
-345.35
-377.02
-403.49
-420.93
-427.40
-423.62
-412.19
-395.86
-375.88
-351.44
-320.50
-281.34
-233.96
-179.84
-121.47
-61.10
-0.03
61.21
121.85
180.04
232.62
275.84
308.09
329.94
344.08
354.00
362.37
369.98
375.93
378.65
376.55
371.47
366.17
363.07
363.07
365.26
367.74
368.79
367.78
363.99
361.23
363.27
372.58
389.67
413.09
440.10
467.72
493.65
514.92
535.23
559.52
592.39
636.46
691.37
754.03
819.98
885.11
920.58
906.09
829.34
691.17
506.71
300.04
95.30
-89.92
-234.27
-342.02
-417.80
-465.67
-488.72
-490.52
-476.12
-451.60
-424.92
-400.98
-384.27
-371.88
-359.48
-343.16
-321.02
-293.67
-263.61
-233.99
-208.00
-190.37
-181.53
-181.91
-189.92
-202.56
-216.49
-229.57
-241.30
-252.91
-267.01
-282.61
-296.71
-305.08
-304.58
-294.68
-280.49
-265.48
-251.84
-240.39
-229.23
-215.62
-197.12
-173.02
-144.69
-114.90
-86.15
-60.38
-38.67
-20.19
-4.67
7.81
16.70
